1552504655.00
64.000000
-0.00
-0.00
-0.00
-0.00
-0.00
-0.00
-0.00
-0.00
-0.00
-0.00
0.00
0.01
0.01
-0.00
-0.03
-0.05
-0.05
0.00
0.13
0.36
0.66
1.01
1.37
1.72
2.06
2.40
2.79
3.24
3.80
4.42
5.06
5.66
6.20
6.68
7.15
7.68
8.31
9.14
10.09
11.04
11.88
12.56
13.14
13.76
14.65
15.96
17.91
20.32
22.90
25.38
27.58
29.57
31.68
34.32
37.81
42.54
48.15
54.10
59.83
64.97
69.58
74.14
79.34
85.71
93.76
103.00
112.62
121.73
129.77
136.75
143.30
150.75
157.77
166.64
177.95
191.79
206.97
220.57
228.25
225.36
208.53
176.87
132.76
80.05
23.07
-34.94
-92.44
-149.16
-205.23
-260.37
-313.74
-363.87
-409.83
-450.91
-486.50
-515.74
-537.23
-549.22
-549.96
-538.37
-514.21
-478.67
-433.88
-382.45
-327.02
-269.84
-212.63
-156.66
-102.95
-52.37
-5.90
35.58
71.43
101.35
125.50
144.38
158.70
169.15
176.37
180.75
182.57
182.07
179.52
175.26
169.68
163.19
156.12
148.71
141.12
133.44
125.72
118.03
110.40
102.88
95.51
88.33
81.37
74.66
68.25
62.20
56.51
51.17
46.15
41.40
36.86
32.54
28.47
24.72
21.37
18.42
15.83
13.47
11.22
8.96
6.71
4.57
2.72
1.33
0.44
-0.09
-0.52
-1.17
-2.26
-3.76
-5.43
-6.86
-7.70
-7.85
-7.51
-7.17
-7.37
-8.45
-10.36
-12.65
-14.65
-15.81
-15.92
-15.29
-14.53
-14.30
-15.08
-17.03
-20.01
-23.63
-27.15
-29.46
-29.24
-25.37
-17.59
-6.87
4.70
14.59
20.97
23.49
23.46
23.06
24.24
27.76
32.89
37.96
41.36
42.15
40.44
36.93
32.47
27.55
22.36
16.91
11.44
6.55
2.94
1.21
1.36
2.86
4.81
6.29
6.78
6.29
5.27
4.37
4.05
4.41
5.24
6.02
6.23
5.56
4.20
2.85
2.57
4.40
8.82
15.51
23.24
30.26
34.89
36.12
33.88
28.82
22.08
14.45
6.57
-1.09
-8.11
-14.07
-18.57
-21.39
-22.62
-22.64
-21.93
-20.96
-20.01
-19.25
-18.66
-18.17
-17.66
-17.03
-16.29
-15.64
-15.41
-15.90
-17.08
-18.39
-18.77
-17.11
-12.74
-5.91
2.13
9.61
14.89
17.05
16.18
13.05
8.76
4.16
-0.24
-4.31
-7.88
-10.66
-12.28
-12.51
-11.38
-9.38
-7.20
-5.52
-4.76
-4.82
-5.24
-5.49
-5.30
-4.83
-4.58
-5.26
-7.30
-10.56
-14.17
-16.72
-16.73
-13.20
-6.04
3.95
15.33
26.62
36.24
42.98
46.29
46.28
43.47
38.53
32.13
24.94
17.58
10.62
4.54
-0.38
-4.11
-6.86
-8.91
-10.53
-11.90
-13.12
-14.33
-15.66
-17.35
-19.68
-22.99
-27.52
-33.23
-39.58
-45.42
-49.23
-49.45
-45.04
-35.99
-23.43
-9.35
4.01
14.79
22.01
25.61
26.29
25.02
22.68
19.85
16.84
13.81
10.93
8.43
6.55
5.47
5.20
5.62
6.56
7.85
9.39
11.11
12.87
14.34
14.93
13.93
10.86
5.84
-0.10
-5.12
-7.15
-4.57
3.05
14.70
28.35
41.60
52.53
60.11
64.17
65.03
63.17
58.94
52.66
44.76
35.88
26.84
18.40
11.11
5.16
0.41
-3.45
-6.73
-9.60
-12.12
-14.28
-16.18
-18.13
-20.66
-24.35
-29.49
-35.77
-42.09
-46.79
-48.11
-44.87
-36.97
-25.49
-12.36
0.23
10.56
17.67
21.39
22.11
20.42
16.91
12.16
6.74
1.30
-3.55
-7.34
-9.85
-11.15
-11.54
-11.39
-11.05
-10.77
-10.75
-11.17
-12.22
-14.10
-17.00
-20.94
-25.72
-30.76
-35.12
-37.63
-37.15
-32.96
-25.03
-14.22
-2.03
9.74
19.51
26.30
29.80
30.28
28.34
24.67
19.90
14.63
9.28
4.20
-0.33
-4.16
-7.18
-9.39
-10.89
-11.79
-12.40
-13.03
-13.98
-15.45
-17.60
-20.46
-24.04
-28.09
-32.08
-35.08
-35.89
-33.36
-26.89
-16.79
-4.34
8.50
19.66
27.56
31.53
31.80
29.31
25.16
20.33
15.43
10.66
6.09
1.77
-2.07
-5.07
-6.99
-7.77
-7.67
-7.28
-7.20
-7.88
-9.48
-12.00
-15.34
-19.34
-23.71
-27.87
-30.85
-31.45
-28.65
-22.05
-12.18
-0.45
11.27
21.22
28.18
31.75
32.17
30.08
26.25
21.35
15.98
10.65
5.77
1.69
-1.43
-3.59
-4.94
-5.73
-6.16
-6.43
-6.75
-7.32
-8.50
-10.72
-14.31
-19.27
-25.05
-30.45
-33.99
-34.23
-30.43
-22.81
-12.52
-1.31
9.07
17.32
22.83
25.55
25.83
24.06
20.68
16.09
10.75
5.16
-0.22
-5.02
-9.02
-12.13
-14.40
-15.94
-16.88
-17.33
-17.44
-17.40
-17.50
-18.20
-19.95
-22.92
-26.71
-30.25
-31.94
-30.30
-24.52
-14.94
-2.96
9.43
20.33
28.45
33.31
35.09
34.22
31.22
26.53
20.63
14.13
7.71
2.03
-2.43
-5.47
-7.13
-7.69
-7.53
-7.04
-6.56
-6.42
-6.94
-8.46
-11.33
-15.78
-21.60
-28.04
-33.70
-36.89
-36.15
-30.76
-21.10
-8.63
4.58
16.46
25.48
30.93
32.92
32.05
29.09
24.70
19.39
13.57
7.67
2.24
-2.16
-5.06
-6.34
-6.28
-5.50
-4.67
-4.30
-4.58
-5.53
-7.19
-9.83
-13.88
-19.48
-26.12
-32.40
-36.28
-35.81
-29.97
-19.17
-5.24
9.29
22.04
31.54
37.38
39.94
39.87
37.76
34.01
29.01
23.29
17.50
12.29
8.08
4.97
2.75
1.16
-0.05
-1.02
-1.84
-2.70
-3.87
-5.79
-8.93
-13.68
-19.99
-27.26
-34.17
-38.97
-39.94
-36.00
-27.19
-14.73
-0.64
12.91
24.19
32.26
36.92
38.45
37.36
34.22
29.68
24.42
19.15
14.46
10.72
7.98
6.11
4.87
4.00
3.34
2.77
2.12
1.19
-0.35
-2.90
-6.88
-12.51
-19.59
-27.28
-34.05
-38.05
-37.63
-32.00
-21.59
-8.00
6.54
19.79
30.11
36.74
39.71
39.50
36.78
32.24
26.53
20.34
14.29
8.93
4.54
1.20
-1.23
-2.93
-4.13
-4.95
-5.56
-6.16
-7.08
-8.78
-11.78
-16.47
-22.88
-30.51
-38.14
-44.08
-46.50
-44.00
-36.18
-23.82
-8.72
6.78
20.50
30.87
37.22
39.65
38.81
35.61
30.88
25.37
19.61
14.00
8.84
4.43
1.00
-1.28
-2.54
-3.12
-3.55
-4.32
-5.74
-7.96
-11.06
-15.26
-20.84
-27.82
-35.57
-42.58
-46.71
-45.91
-39.08
-26.66
-10.64
6.12
20.88
31.84
38.48
41.25
41.08
38.82
34.99
29.90
23.92
17.62
11.77
7.10
4.00
2.37
1.64
1.11
0.24
-1.17
-3.03
-5.19
-7.73
-11.01
-15.63
-21.92
-29.52
-37.14
-42.74
-44.15
-39.91
-29.85
-15.33
1.26
17.24
30.44
39.68
44.74
46.05
44.36
40.43
35.07
29.05
23.14
17.93
13.80
10.79
8.71
7.26
6.13
5.10
4.01
2.68
0.93
-1.45
-4.75
-9.30
-15.30
-22.64
-30.62
-37.85
-42.47
-42.64
-37.25
-26.40
-11.50
5.08
20.73
33.35
41.74
45.71
45.79
42.84
37.79
31.55
24.92
18.62
13.23
9.07
6.21
4.48
3.52
2.95
2.36
1.44
-0.01
-2.08
-4.78
-8.16
-12.35
-17.61
-24.06
-31.34
-38.36
-43.36
-44.37
-39.97
-29.96
-15.60
0.76
16.49
29.49
38.61
43.66
45.03
43.34
39.18
33.22
26.29
19.38
13.44
9.13
6.60
5.45
4.97
4.44
3.41
1.78
-0.26
-2.45
-4.66
-7.08
-10.15
-14.41
-20.22
-27.43
-35.13
-41.70
-45.20
-43.99
-37.32
-25.75
-11.01
4.57
18.73
29.92
37.43
41.28
41.85
39.58
35.01
28.84
22.03
15.71
10.85
7.92
6.69
6.41
6.13
5.17
3.33
0.93
-1.51
-3.58
-5.27
-6.95
-9.34
-13.15
-18.79
-26.04
-33.98
-41.03
-45.30
-45.13
-39.65
-29.08
-14.77
1.18
16.47
29.15
38.00
42.61
43.25
40.62
35.70
29.53
23.12
17.37
12.91
9.99
8.49
7.89
7.55
6.91
5.58
3.52
1.00
-1.61
-4.00
-6.11
-8.27
-11.14
-15.57
-22.10
-30.52
-39.54
-47.00
-50.38
-47.88
-39.09
-25.31
-9.03
6.94
20.46
30.53
37.15
40.81
41.95
40.66
36.93
31.01
23.75
16.47
10.58
7.00
5.80
6.18
6.91
6.93
5.78
3.72
1.43
-0.48
-1.82
-3.00
-4.81
-8.04
-13.17
-20.14
-28.29
-36.35
-42.68
-45.62
-43.92
-37.22
-26.22
-12.51
1.91
15.23
26.26
34.44
39.61
41.79
41.01
37.46
31.71
24.79
18.02
12.55
8.98
7.20
6.50
6.00
5.00
3.30
1.07
-1.27
-3.41
-5.29
-7.12
-9.31
-12.34
-16.62
-22.32
-29.20
-36.50
-42.91
-46.83
-46.81
-42.12
-33.02
-20.74
-7.10
6.02
17.19
25.56
30.78
32.86
32.05
28.78
23.82
18.20
12.97
8.97
6.50
5.28
4.67
3.98
2.78
1.05
-0.92
-2.82
-4.46
-5.96
-7.70
-10.20
-13.95
-19.23
-25.94
-33.40
-40.32
-44.99
-45.74
-41.51
-32.33
-19.45
-5.00
8.70
19.80
27.33
31.22
31.96
30.19
26.55
21.63
16.11
10.80
6.53
3.89
3.02
3.56
4.79
5.93
6.44
6.16
5.20
3.80
2.04
-0.22
-3.34
-7.76
-13.69
-20.89
-28.46
-34.92
-38.49
-37.69
-31.90
-21.67
-8.65
4.93
16.99
26.16
31.98
34.71
34.93
33.13
29.70
25.01
19.62
14.27
9.74
6.50
4.55
3.48
2.68
1.72
0.45
-0.96
-2.25
-3.35
-4.45
-6.03
-8.72
-13.00
-19.06
-26.53
-34.39
-41.08
-44.85
-44.28
-38.77
-28.86
-16.01
-2.25
10.54
20.93
28.22
32.25
33.22
31.54
27.77
22.70
17.24
12.28
8.46
5.98
4.58
3.73
2.92
1.81
0.39
-1.12
-2.50
-3.68
-4.85
-6.41
-8.86
-12.67
-18.07
-24.84
-32.24
-38.89
-43.07
-43.17
-38.30
-28.69
-15.73
-1.54
11.73
22.54
30.18
34.65
36.31
35.52
32.62
28.03
22.43
16.74
11.92
8.54
6.68
5.86
5.40
4.73
3.63
2.27
0.97
-0.06
-0.95
-2.09
-4.03
-7.29
-12.15
-18.51
-25.81
-32.94
-38.39
-40.53
-38.13
-30.84
-19.43
-5.61
8.47
20.87
30.40
36.66
39.81
40.28
38.45
34.70
29.56
23.76
18.18
13.60
10.35
8.28
6.81
5.27
3.25
0.74
-1.87
-4.05
-5.47
-6.18
-6.67
-7.74
-10.22
-14.69
-21.20
-29.03
-36.82
-42.72
-44.99
-42.49
-35.14
-23.91
-10.60
2.83
14.58
23.55
29.28
31.87
31.73
29.49
25.76
21.18
16.19
11.17
6.38
2.08
-1.43
-3.90
-5.28
-5.83
-6.15
-6.94
-8.64
-11.28
-14.41
-17.44
-20.07
-22.47
-25.38
-29.53
-35.04
-40.99
-45.56
-46.68
-42.97
-34.36
-22.29
-9.05
3.09
12.66
19.18
22.95
24.46
24.13
22.12
18.63
14.08
9.16
4.64
1.06
-1.41
-2.98
-4.06
-5.03
-6.09
-7.25
-8.37
-9.35
-10.19
-11.10
-12.55
-15.10
-19.12
-24.49
-30.38
-35.29
-37.51
-35.65
-29.21
-18.81
-6.04
7.09
18.73
27.62
33.26
35.80
35.72
33.67
30.31
26.28
22.16
18.38
15.22
12.76
10.95
9.67
8.76
8.08
7.49
6.79
5.81
4.37
2.35
-0.43
-4.15
-8.90
-14.47
-20.13
-24.61
-26.35
-24.10
-17.41
-7.00
5.41
17.67
27.84
34.78
38.26
38.79
37.17
34.13
30.17
25.57
20.54
15.34
10.30
5.80
2.10
-0.75
-2.88
-4.59
-6.13
-7.68
-9.28
-10.97
-12.90
-15.50
-19.30
-24.64
-31.26
-38.02
-43.08
-44.43
-40.72
-31.84
-19.08
-4.64
9.12
20.43
28.48
33.28
35.25
34.87
32.54
28.63
23.70
18.48
13.74
10.00
7.40
5.63
4.21
2.69
0.91
-1.03
-2.87
-4.51
-6.12
-8.23
-11.57
-16.67
-23.43
-30.88
-37.23
-40.39
-38.77
-31.81
-20.39
-6.43
7.74
20.13
29.64
35.94
39.26
39.94
38.32
34.75
29.80
24.26
19.03
14.67
11.26
8.46
5.75
2.86
-0.07
-2.61
-4.35
-5.30
-5.98
-7.24
-9.89
-14.43
-20.75
-28.17
-35.50
-41.32
-44.17
-42.92
-37.10
-27.06
-14.01
0.29
13.94
25.23
33.07
37.03
37.36
34.83
30.48
25.39
20.42
16.03
12.32
9.16
6.39
4.00
2.06
0.69
-0.13
-0.64
-1.17
-2.07
-3.55
-5.73
-8.70
-12.65
-17.77
-24.10
-31.15
-37.75
-42.21
-42.76
-38.34
-29.02
-16.06
-1.56
12.29
23.80
32.09
37.02
38.82
37.90
34.71
29.79
23.85
17.76
12.30
8.00
5.02
3.15
2.02
1.25
0.63
0.08
-0.39
-0.80
-1.24
-1.93
-3.18
-5.36
-8.83
-13.76
-19.97
-26.69
-32.57
-35.93
-35.27
-29.84
-20.03
-7.28
6.36
18.85
28.78
35.54
39.25
40.31
39.11
35.93
31.06
24.98
18.46
12.40
7.59
4.38
2.63
1.76
1.09
0.17
-1.07
-2.39
-3.48
-4.22
-4.88
-6.04
-8.39
-12.45
-18.21
-25.03
-31.58
-36.18
-37.30
-34.00
-26.34
-15.33
-2.61
10.04
21.20
30.00
36.08
39.34
39.83
37.68
33.26
27.22
20.48
14.03
8.57
4.41
1.37
-0.97
-3.08
-5.21
-7.33
-9.24
-10.71
-11.72
-12.53
-13.66
-15.79
-19.49
-24.98
-31.86
-39.01
-44.81
-47.50
-45.79
-39.35
-28.89
-15.95
-2.45
9.92
19.97
27.04
30.92
31.65
29.51
25.07
19.16
12.78
6.82
1.84
-1.98
-4.80
-6.91
-8.52
-9.74
-10.56
-10.96
-11.06
-11.10
-11.45
-12.54
-14.81
-18.53
-23.68
-29.73
-35.55
-39.60
-40.32
-36.66
-28.52
-16.82
-3.31
10.00
21.39
29.80
34.91
36.92
36.37
33.85
29.93
25.13
19.93
14.73
9.88
5.59
2.06
-0.62
-2.47
-3.60
-4.26
-4.82
-5.63
-7.05
-9.31
-12.59
-17.03
-22.58
-28.80
-34.74
-38.92
-39.72
-35.93
-27.30
-14.82
-0.48
13.35
24.67
32.35
36.25
36.96
35.34
32.14
27.90
22.92
17.44
11.78
6.33
1.55
-2.18
-4.72
-6.22
-7.11
-7.89
-9.00
-10.65
-12.90
-15.74
-19.34
-23.92
-29.56
-35.80
-41.48
-44.86
-44.21
-38.53
-28.07
-14.35
0.34
13.72
24.26
31.39
35.37
36.83
36.33
34.21
30.69
26.08
20.92
15.96
11.88
9.05
7.42
6.55
5.85
4.92
3.65
2.22
0.83
-0.49
-2.14
-4.76
-9.03
-15.12
-22.37
-29.29
-33.99
-34.80
-30.88
-22.49
-10.88
2.21
15.03
26.18
34.59
39.61
41.00
38.95
34.19
27.90
21.34
15.55
10.95
7.44
4.65
2.29
0.32
-1.05
-1.64
-1.54
-1.34
-1.79
-3.53
-6.84
-11.53
-17.13
-23.01
-28.54
-33.08
-35.87
-35.99
-32.61
-25.31
-14.46
-1.31
12.29
24.27
33.00
37.70
38.51
36.32
32.34
27.64
22.96
18.54
14.31
10.17
6.18
2.61
-0.16
-1.89
-2.57
-2.52
-2.27
-2.34
-3.14
-4.94
-7.93
-12.27
-17.97
-24.72
-31.68
-37.40
-40.18
-38.60
-32.08
-21.23
-7.64
6.53
19.34
29.41
36.12
39.41
39.54
36.90
32.05
25.74
18.89
12.43
7.03
2.92
-0.03
-2.18
-3.84
-5.12
-5.98
-6.35
-6.40
-6.49
-7.17
-8.94
-12.14
-16.86
-22.86
-29.49
-35.70
-40.09
-41.25
-38.16
-30.56
-19.19
-5.61
8.25
20.61
30.20
36.44
39.28
39.05
36.26
31.55
25.64
19.32
13.29
8.07
3.90
0.80
-1.40
-2.92
-3.96
-4.71
-5.31
-5.92
-6.75
-8.02
-10.02
-13.07
-17.45
-23.21
-29.89
-36.43
-41.20
-42.46
-38.95
-30.52
-18.19
-3.89
10.16
22.21
31.29
37.18
40.08
40.25
37.90
33.31
27.06
20.10
13.54
8.31
4.84
2.95
2.03
1.37
0.44
-0.88
-2.45
-3.95
-5.23
-6.41
-7.92
-10.41
-14.52
-20.55
-28.12
-35.97
-42.23
-44.90
-42.54
-34.91
-23.07
-9.01
5.02
17.18
26.38
32.25
34.80
34.19
30.65
24.64
17.01
8.98
1.79
-3.71
-7.31
-9.48
-11.06
-12.73
-14.80
-17.06
-19.09
-20.61
-21.68
-22.78
-24.57
-27.67
-32.36
-38.40
-45.11
-51.29
-55.54
-56.41
-52.86
-44.52
-31.88
-16.26
0.43
16.29
29.78
40.11
47.25
51.73
54.23
55.44
55.75
55.41
54.70
53.98
53.69
54.11
55.15
56.25
56.45
54.89
51.10
45.28
38.18
30.68
23.36
16.24
8.69
-0.10
-10.57
-22.31
-33.84
-42.94
-47.39
-45.78
-38.22
-26.25
-12.30
1.18
12.52
21.06
26.88
30.31
31.42
30.05
26.10
19.97
12.70
5.70
0.27
-2.92
-4.05
-3.94
-3.58
-3.73
-4.65
-6.14
-7.83
-9.42
-10.94
-12.71
-15.25
-19.10
-24.58
-31.57
-39.37
-46.65
-51.65
-52.71
-48.78
-39.95
-27.47
-13.36
0.24
11.68
20.13
25.47
27.91
27.68
25.00
20.19
13.95
7.34
1.55
-2.55
-4.70
-5.33
-5.31
-5.45
-6.20
-7.45
-8.79
-9.77
-10.30
-10.75
-11.80
-14.18
-18.32
-24.11
-30.78
-36.97
-41.04
-41.46
-37.21
-28.20
-15.33
-0.28
14.94
28.56
39.33
46.67
50.52
51.10
48.77
44.05
37.67
30.60
23.91
18.46
14.67
12.40
11.10
10.11
8.96
7.55
6.05
4.71
3.59
2.49
1.00
-1.30
-4.73
-9.45
-15.40
-22.26
-29.28
-35.20
-38.45
-37.56
-31.74
-21.32
-7.84
6.48
19.42
29.45
36.00
39.24
39.67
37.75
33.79
28.15
21.48
14.72
8.91
4.83
2.65
1.90
1.79
1.55
0.77
-0.46
-1.82
-3.00
-4.02
-5.24
-7.29
-10.86
-16.32
-23.51
-31.51
-38.76
-43.33
-43.57
-38.67
-29.01
-16.08
-1.93
11.43
22.62
30.96
36.29
38.68
38.20
35.05
29.69
23.01
16.20
10.42
6.39
4.20
3.37
3.08
2.59
1.51
-0.09
-1.85
-3.38
-4.56
-5.64
-7.26
-10.20
-15.05
-21.85
-29.87
-37.69
-43.46
-45.49
-42.74
-35.17
-23.79
-10.27
3.50
15.84
25.56
31.99
34.94
34.57
31.38
26.16
19.94
13.76
8.45
4.44
1.71
-0.13
-1.55
-2.88
-4.19
-5.35
-6.22
-6.80
-7.33
-8.24
-10.04
-13.13
-17.69
-23.49
-29.81
-35.37
-38.62
-38.04
-32.76
-22.88
-9.64
4.94
18.58
29.48
36.65
40.01
40.09
37.70
33.57
28.33
22.43
16.33
10.48
5.26
0.97
-2.25
-4.46
-5.86
-6.77
-7.50
-8.36
-9.55
-11.21
-13.50
-16.71
-21.19
-27.15
-34.32
-41.63
-47.24
-49.07
-45.57
-36.47
-23.08
-7.83
6.55
17.98
25.54
29.48
30.58
29.67
27.23
23.45
18.53
12.98
7.61
3.21
0.14
-1.79
-3.17
-4.63
-6.37
-8.07
-9.15
-9.24
-8.65
-8.29
-9.37
-12.82
-18.69
-26.08
-33.29
-38.41
-39.93
-37.05
-29.88
-19.23
-6.38
7.19
20.03
30.88
38.60
42.52
42.51
39.19
33.78
27.83
22.65
18.94
16.48
14.54
12.35
9.60
6.63
4.13
2.70
2.40
2.63
2.48
1.13
-1.79
-6.23
-11.91
-18.50
-25.50
-32.11
-37.10
-38.91
-36.26
-28.71
-17.04
-3.04
11.07
23.25
32.24
37.58
39.49
38.50
35.30
30.60
25.15
19.63
14.59
10.37
7.04
4.49
2.50
0.87
-0.52
-1.69
-2.69
-3.60
-4.64
-6.15
-8.60
-12.45
-17.94
-24.84
-32.28
-38.78
-42.60
-42.26
-37.07
-27.44
-14.75
-0.92
12.20
23.20
31.27
36.13
37.82
36.59
32.96
27.72
21.84
16.25
11.62
8.17
5.75
3.97
2.52
1.19
-0.06
-1.24
-2.43
-3.84
-5.73
-8.37
-12.02
-16.84
-22.88
-29.77
-36.63
-42.03
-44.24
-41.85
-34.28
-22.23
-7.49
7.55
20.61
30.22
35.86
37.88
37.00
34.02
29.61
24.36
18.88
13.79
9.63
6.68
4.89
3.88
3.15
2.30
1.12
-0.36
-2.04
-3.87
-5.99
-8.71
-12.46
-17.60
-24.14
-31.55
-38.58
-43.46
-44.39
-40.24
-30.98
-17.89
-3.15
10.88
22.35
30.38
34.93
36.47
35.61
32.83
28.54
23.21
17.45
11.94
7.28
3.74
1.29
-0.38
-1.68
-2.93
-4.26
-5.61
-6.88
-8.10
-9.57
-11.87
-15.69
-21.49
-29.09
-37.40
-44.58
-48.45
-47.28
-40.38
-28.41
-13.09
3.30
18.63
31.37
40.70
46.40
48.64
47.86
44.73
40.09
34.91
30.02
25.87
22.52
19.69
17.10
14.62
12.36
10.49
9.11
7.91
6.35
3.82
-0.10
-5.54
-12.32
-20.00
-27.94
-35.20
-40.57
-42.63
-40.21
-32.82
-21.03
-6.47
8.66
22.11
32.27
38.47
40.87
40.20
37.31
33.01
28.02
22.82
17.83
13.35
9.55
6.50
4.18
2.46
1.26
0.44
-0.15
-0.70
-1.46
-2.76
-4.98
-8.53
-13.64
-20.18
-27.45
-34.11
-38.46
-38.91
-34.56
-25.59
-13.24
0.48
13.43
23.95
31.10
34.74
35.24
33.21
29.34
24.30
18.72
13.19
8.18
3.99
0.72
-1.70
-3.48
-4.85
-6.04
-7.23
-8.60
-10.27
-12.39
-15.15
-18.79
-23.57
-29.55
-36.32
-42.86
-47.60
-48.84
-45.41
-37.07
-24.81
-10.54
3.51
15.37
23.90
28.78
30.36
29.33
26.37
22.11
17.07
11.80
6.83
2.62
-0.52
-2.54
-3.65
-4.25
-4.78
-5.58
-6.84
-8.61
-10.89
-13.81
-17.61
-22.57
-28.74
-35.65
-42.12
-46.52
-47.20
-43.13
-34.39
-22.25
-8.82
3.60
13.23
19.16
21.39
20.53
17.38
12.75
7.28
1.53
-3.95
-8.65
-12.10
-14.00
-14.27
-13.06
-10.73
-7.74
-4.54
-1.53
0.98
2.73
3.37
2.56
0.08
-3.87
-8.40
-12.06
-13.13
-10.22
-2.89
8.10
20.95
33.38
43.40
49.80
52.35
51.66
48.73
44.53
39.71
34.61
29.31
23.94
18.72
14.06
10.33
7.71
6.03
4.83
3.57
1.88
-0.40
-3.16
-6.42
-10.32
-15.16
-21.08
-27.61
-33.56
-37.18
-36.80
-31.54
-21.74
-8.96
4.59
16.71
25.95
31.76
34.36
34.36
32.44
29.07
24.63
19.53
14.32
9.58
5.87
3.45
2.20
1.69
1.34
0.68
-0.49
-2.15
-4.10
-6.35
-9.11
-12.84
-17.88
-24.10
-30.62
-35.88
-38.09
-35.88
-28.87
-17.90
-4.75
8.37
19.56
27.66
32.35
33.93
32.99
30.15
26.03
21.22
16.32
11.97
8.60
6.34
5.01
4.15
3.28
2.11
0.64
-0.94
-2.43
-3.81
-5.37
-7.64
-11.21
-16.36
-22.74
-29.23
-34.15
-35.75
-32.87
-25.43
-14.53
-2.09
9.80
19.57
26.40
30.24
31.47
30.58
28.01
24.21
19.68
15.05
10.83
7.35
4.69
2.70
1.19
0.05
-0.78
-1.35
-1.91
-2.81
-4.47
-7.18
-11.07
-16.05
-21.85
-27.96
-33.60
-37.69
-38.98
-36.44
-29.69
-19.33
-6.85
5.82
16.82
24.94
29.75
31.45
30.59
27.85
23.84
19.20
14.41
9.87
5.81
2.38
-0.31
-2.14
-3.05
-3.15
-2.86
-2.73
-3.31
-4.77
-6.95
-9.44
-11.97
-14.61
-17.63
-21.14
-24.54
-26.55
-25.49
-20.16
-10.52
2.14
15.49
27.11
35.32
39.64
40.68
39.53
37.20
34.24
30.72
26.54
21.75
16.64
11.75
7.53
4.14
1.46
-0.95
-3.50
-6.44
-9.78
-13.38
-17.16
-21.18
-25.72
-31.10
-37.39
-44.15
-50.29
-54.26
-54.44
-49.80
-40.27
-26.98
-11.90
2.77
15.28
24.68
30.91
34.41
35.81
35.59
34.11
31.65
28.55
25.18
21.86
18.79
16.01
13.52
11.30
9.41
7.94
6.91
6.20
5.60
4.74
3.20
0.53
-3.60
-9.22
-15.82
-22.28
-27.03
-28.50
-25.69
-18.66
-8.59
2.56
12.76
20.47
25.05
26.67
25.98
23.73
20.56
16.93
13.25
9.89
7.13
5.10
3.68
2.53
1.27
-0.40
-2.57
-5.11
-7.80
-10.45
-13.00
-15.57
-18.51
-22.24
-27.05
-32.82
-38.81
-43.66
-45.75
-43.76
-37.21
-26.82
-14.26
-1.60
9.37
17.61
22.96
25.78
26.59
25.76
23.50
19.98
15.57
10.79
6.25
2.37
-0.71
-3.14
-5.22
-7.20
-9.10
-10.82
-12.16
-13.14
-14.13
-15.81
-18.91
-23.81
-30.07
-36.37
-40.82
-41.62
-37.72
-29.35
-17.93
-5.56
5.70
14.47
20.22
23.18
23.91
22.99
20.82
17.70
13.91
9.90
6.10
2.91
0.46
-1.40
-3.01
-4.70
-6.60
-8.63
-10.65
-12.64
-14.83
-17.71
-21.76
-27.08
-33.18
-38.87
-42.58
-42.89
-38.99
-31.01
-20.01
-7.63
4.38
14.55
21.96
26.27
27.72
26.97
24.99
22.86
21.43
21.07
21.42
21.60
20.57
17.75
13.36
8.45
4.37
2.22
2.21
3.63
5.27
5.90
4.83
2.07
-1.80
-5.80
-8.89
-10.02
-8.30
-3.16
5.43
16.81
29.74
42.77
54.60
64.46
72.22
78.16
82.78
86.51
89.65
92.36
94.71
96.71
98.37
99.69
100.62
101.09
100.90
99.77
97.27
92.93
86.30
77.10
65.30
51.12
35.16
18.43
2.42
-11.17
-20.71
-25.29
-25.06
-21.29
-15.93
-10.89
-7.45
-6.12
-6.92
-9.76
-14.69
-21.72
-30.40
-39.55
-47.48
-52.56
-53.94
-51.92
-47.78
-43.14
-39.29
-36.65
-34.86
-33.18
-30.97
-28.03
-24.69
-21.56
-19.25
-18.08
-18.01
-18.67
-19.50
-20.00
-19.81
-18.78
-16.82
-13.82
-9.66
-4.38
1.57
7.18
11.16
12.31
10.15
5.15
-1.42
-8.08
-13.85
-18.62
-23.07
-28.03
-33.95
-40.50
-46.80
-51.86
-55.13
-56.66
-56.89
-56.35
-55.37
-53.95
-52.14
-50.13
-48.35
-47.10
-46.20
-44.85
-41.91
-36.40
-28.16
-18.03
-7.52
1.73
8.64
12.87
14.74
14.89
13.77
11.63
8.50
4.43
-0.46
-5.76
-10.96
-15.51
-19.12
-21.78
-23.92
-26.16
-29.13
-33.19
-38.30
-43.99
-49.61
-54.49
-58.18
-60.65
-62.19
-63.35
-64.64
-66.26
-67.97
-69.25
-69.45
-68.16
-65.44
-61.77
-57.88
-54.45
-51.96
-50.55
-49.97
-49.66
-48.83
-46.68
-42.63
-36.45
-28.47
-19.36
-10.04
-1.49
5.33
9.56
10.41
7.45
0.72
-9.07
-20.50
-31.62
-40.38
-45.07
-44.74
-39.37
-29.78
-17.45
-4.03
8.91
20.25
29.36
36.12
40.85
44.01
46.10
47.49
48.38
48.84
48.89
48.55
47.83
46.68
44.89
42.17
38.20
32.86
26.27
18.83
11.02
3.21
-4.44
-11.87
-18.90
-24.94
-28.99
-29.86
-26.63
-19.17
-8.32
4.30
16.79
27.59
35.95
41.97
46.31
49.66
52.29
53.91
53.89
51.60
46.82
39.80
31.24
21.86
12.20
2.43
-7.50
-17.68
-28.04
-38.23
-47.79
-56.41
-64.14
-71.38
-78.58
-85.74
-92.03
-95.86
-95.28
-89.03
-77.17
-61.31
-44.13
-28.30
-15.51
-5.95
1.32
7.65
13.78
19.44
23.50
24.71
22.48
17.35
10.66
4.13
-0.99
-4.28
-6.07
-6.99
-7.59
-8.12
-8.72
-9.58
-11.20
-14.16
-18.79
-24.76
-30.88
-35.34
-36.32
-32.51
-23.65
-10.58
5.08
21.44
36.89
50.45
61.54
70.00
75.85
79.31
80.80
81.01
80.71
80.52
80.35
79.69
77.85
74.42
69.66
64.40
59.46
55.13
50.80
45.28
37.62
27.68
16.34
5.05
-5.01
-13.46
-20.80
-27.62
-33.80
-38.12
-38.71
-33.98
-23.73
-9.36
6.42
20.79
31.93
39.42
44.05
47.01
49.14
50.69
51.29
50.60
48.52
45.35
41.57
37.51
33.18
28.43
23.08
17.19
11.10
5.29
0.12
-4.38
-8.46
-12.56
-17.15
-22.49
-28.50
-34.74
-40.45
-44.64
-46.29
-44.58
-39.16
-30.32
-19.02
-6.73
4.99
14.80
21.96
26.42
28.65
29.34
29.09
28.26
26.94
25.10
22.82
20.35
18.01
16.07
14.58
13.34
12.00
10.24
7.83
4.71
0.88
-3.78
-9.45
-16.23
-23.84
-31.41
-37.49
-40.40
-38.78
-32.20
-21.42
-8.21
5.21
16.90
25.70
31.42
34.50
35.60
35.21
33.57
30.81
27.14
23.02
18.99
15.58
12.95
10.95
9.19
7.24
4.90
2.24
-0.51
-3.15
-5.76
-8.75
-12.79
-18.29
-25.06
-31.99
-37.30
-39.09
-36.11
-28.33
-16.91
-3.79
9.09
20.31
29.22
35.78
40.14
42.47
42.87
41.54
38.87
35.45
31.87
28.57
25.67
23.03
20.35
17.41
14.17
10.82
7.65
4.84
2.32
-0.26
-3.51
-7.97
-13.90
-20.94
-28.10
-33.86
-36.63
-35.22
-29.32
-19.58
-7.44
5.36
17.30
27.37
35.11
40.42
43.33
43.87
42.20
38.70
34.14
29.35
25.11
21.80
19.29
17.12
14.80
12.09
9.10
6.11
3.39
0.96
-1.42
-4.18
-7.76
-12.40
-17.97
-24.01
-29.64
-33.68
-34.90
-32.33
-25.63
-15.33
-2.75
10.24
21.80
30.62
36.17
38.68
38.84
37.43
35.09
32.05
28.39
24.13
19.44
14.70
10.38
6.83
4.13
2.05
0.15
-1.92
-4.37
-7.17
-10.27
-13.77
-17.95
-23.17
-29.42
-36.07
-41.80
-44.92
-44.00
-38.43
-28.67
-16.18
-2.94
9.16
18.82
25.46
29.19
30.52
30.05
28.30
25.57
21.98
17.58
12.51
7.05
1.62
-3.27
-7.29
-10.37
-12.72
-14.77
-16.97
-19.71
-23.24
-27.64
-32.82
-38.42
-43.69
-47.50
-48.55
-45.72
-38.53
-27.38
-13.58
1.02
14.51
25.47
33.17
37.58
39.15
38.54
36.34
33.02
28.86
24.05
18.81
13.38
8.08
3.29
-0.71
-3.83
-6.18
-8.09
-9.97
-12.27
-15.35
-19.45
-24.55
-30.30
-35.83
-39.88
-40.99
-37.99
-30.45
-18.95
-4.97
9.49
22.54
32.87
39.94
43.93
45.41
45.07
43.45
40.87
37.52
33.51
29.02
24.38
20.01
16.30
13.51
11.56
10.13
8.73
6.79
3.84
-0.51
-6.41
-13.66
-21.54
-28.78
-33.79
-35.13
-32.00
-24.61
-14.16
-2.47
8.52
17.31
23.03
25.52
25.13
22.53
18.55
13.99
9.44
5.25
1.49
-1.89
-4.89
-7.43
-9.35
-10.59
-11.23
-11.54
-11.81
-12.28
-13.10
-14.38
-16.31
-19.04
-22.50
-26.14
-28.90
-29.36
-26.35
-19.42
-9.15
2.99
15.12
25.59
33.39
38.21
40.33
40.25
38.49
35.49
31.60
27.16
22.46
17.82
13.46
9.56
6.21
3.40
1.04
-0.98
-2.83
-4.69
-6.76
-9.32
-12.65
-16.91
-21.98
-27.24
-31.64
-33.88
-32.88
-28.20
-20.20
-10.04
0.75
10.67
18.65
24.17
27.22
28.11
27.34
25.40
22.70
19.56
16.14
12.52
8.73
4.90
1.20
-2.13
-4.89
-6.96
-8.34
-9.21
-9.86
-10.69
-12.09
-14.33
-17.29
-20.43
-22.78
-23.25
-20.99
-15.77
-8.06
1.04
10.18
18.14
24.06
27.56
28.62
27.51
24.67
20.56
15.69
10.43
5.11
-0.05
-4.88
-9.26
-13.05
-16.19
-18.67
-20.57
-22.05
-23.30
-24.56
-26.09
-28.10
-30.59
-33.23
-35.30
-35.88
-34.06
-29.34
-21.82
-12.30
-2.06
7.43
14.92
19.63
21.43
20.75
18.37
15.10
11.54
7.94
4.28
0.46
-3.47
-7.24
-10.53
-13.19
-15.33
-17.28
-19.37
-21.71
-24.16
-26.55
-28.85
-31.34
-34.27
-37.53
-40.42
-41.66
-40.00
-34.78
-26.38
-16.28
-6.39
1.63
6.98
9.80
10.87
10.93
10.34
8.84
6.03
1.71
-3.69
-9.24
-13.82
-16.72
-17.94
-18.28
-18.75
-20.08
-22.30
-24.85
-27.04
-28.54
-29.58
-30.74
-32.39
-34.18
-34.97
-33.32
-28.15
-19.47
-8.33
3.36
13.73
21.49
26.22
28.24
28.21
26.74
24.27
21.03
17.21
13.04
8.84
4.93
1.60
-0.96
-2.69
-3.66
-4.02
-4.05
-4.14
-4.79
-6.49
-9.58
-13.95
-18.88
-23.11
-25.13
-23.71
-18.38
-9.66
1.11
12.24
22.28
30.27
35.85
39.06
40.05
39.05
36.28
32.14
27.14
21.82
16.64
11.79
7.32
3.15
-0.71
-4.20
-7.16
-9.53
-11.44
-13.23
-15.46
-18.72
-23.28
-28.88
-34.57
-38.85
-40.16
-37.44
-30.59
-20.58
-9.12
1.96
11.21
17.93
22.07
23.94
23.93
22.38
19.53
15.68
11.21
6.51
1.92
-2.38
-6.29
-9.79
-12.79
-15.18
-16.86
-17.90
-18.59
-19.47
-21.23
-24.41
-29.12
-34.80
-40.20
-43.69
-43.75
-39.52
-31.15
-19.80
-7.22
4.81
14.91
22.43
27.34
29.96
30.66
29.73
27.38
23.88
19.59
14.91
10.24
5.81
1.70
-2.11
-5.58
-8.58
-10.91
-12.47
-13.41
-14.25
-15.72
-18.54
-22.96
-28.53
-34.01
-37.71
-38.02
-34.02
-25.83
-14.59
-2.04
10.07
20.37
28.16
33.31
36.06
36.77
35.83
33.55
30.26
26.19
21.55
16.50
11.27
6.11
1.35
-2.72
-5.93
-8.32
-10.16
-11.95
-14.30
-17.80
-22.78
-29.06
-35.75
-41.48
-44.60
-43.77
-38.43
-29.03
-16.92
-3.91
8.26
18.20
25.25
29.30
30.71
30.12
28.26
25.78
23.18
20.69
18.29
15.87
13.34
10.75
8.27
6.08
4.28
2.69
0.93
-1.47
-4.91
-9.62
-15.46
-21.96
-28.20
-32.99
-35.02
-33.19
-26.96
-16.61
-3.31
11.15
24.85
36.07
43.82
47.81
48.39
46.32
42.45
37.57
32.33
27.14
22.24
17.75
13.70
10.13
7.03
4.44
2.38
0.82
-0.35
-1.41
-2.82
-5.20
-9.16
-14.96
-22.25
-29.84
-35.96
-38.68
-36.61
-29.46
-18.18
-4.68
8.84
20.54
29.37
35.10
38.04
38.67
37.41
34.58
30.50
25.60
20.41
15.44
11.06
7.35
4.16
1.25
-1.56
-4.32
-6.94
-9.43
-12.01
-15.20
-19.65
-25.72
-33.09
-40.56
-46.24
-48.11
-44.80
-36.09
-23.11
-7.98
6.99
19.90
29.69
36.14
39.55
40.37
39.06
36.04
31.83
27.03
22.30
18.12
14.65
11.73
9.05
6.35
3.61
0.95
-1.48
-3.79
-6.45
-10.20
-15.70
-23.00
-31.30
-38.91
-43.75
-43.98
-38.79
-28.61
-15.08
-0.37
13.43
24.91
33.45
39.10
42.18
43.07
42.07
39.48
35.70
31.25
26.66
22.38
18.59
15.24
12.15
9.16
6.19
3.33
0.58
-2.17
-5.30
-9.41
-14.98
-22.05
-29.87
-36.90
-41.21
-41.10
-35.75
-25.62
-12.32
1.96
15.12
25.70
33.12
37.49
39.24
38.80
36.51
32.68
27.76
22.32
16.99
12.27
8.35
5.10
2.21
-0.56
-3.28
-5.80
-7.95
-9.78
-11.69
-14.38
-18.58
-24.56
-31.83
-39.04
-44.33
-45.87
-42.48
-34.14
-21.91
-7.71
6.41
18.75
28.35
34.89
38.55
39.65
38.53
35.56
31.27
26.30
21.35
16.95
13.31
10.29
7.56
4.83
2.04
-0.64
-2.99
-4.99
-6.91
-9.35
-12.95
-18.10
-24.53
-31.26
-36.69
-39.06
-37.07
-30.32
-19.53
-6.29
7.47
20.01
30.20
37.47
41.78
43.27
42.25
39.13
34.55
29.30
24.19
19.86
16.57
14.28
12.69
11.48
10.38
9.21
7.81
5.95
3.32
-0.42
-5.53
-11.94
-19.18
-26.17
-31.45
-33.48
-31.14
-24.11
-13.11
0.22
13.73
25.37
33.63
37.89
38.29
35.56
30.64
24.48
17.81
11.20
5.10
-0.14
-4.25
-7.08
-8.70
-9.46
-9.93
-10.75
-12.54
-15.69
-20.45
-26.90
-34.97
-44.23
-53.94
-62.82
-69.30
-71.94
-69.81
-62.95
-52.35
-39.68
-26.87
-15.47
-6.29
0.70
6.14
10.93
15.76
20.86
25.81
29.92
32.57
33.65
33.60
33.21
33.12
33.47
33.78
33.30
31.49
28.33
24.26
19.79
15.16
10.28
4.95
-0.51
-5.03
-6.92
-4.64
2.42
13.41
26.16
37.92
46.33
50.26
49.89
46.39
41.24
35.60
30.13
24.97
20.06
15.42
11.17
7.55
4.70
2.62
1.21
0.29
-0.35
-0.93
-1.77
-3.27
-5.93
-10.11
-15.82
-22.53
-29.09
-33.93
-35.45
-32.54
-24.97
-13.52
0.22
14.27
26.80
36.51
42.83
45.84
46.03
44.05
40.52
35.95
30.72
25.10
19.34
13.65
8.19
3.11
-1.52
-5.70
-9.49
-12.99
-16.33
-19.70
-23.31
-27.40
-32.15
-37.56
-43.30
-48.59
-52.29
-53.12
-50.12
-43.02
-32.41
-19.74
-6.87
4.37
12.73
17.63
19.26
18.24
15.37
11.37
6.80
1.99
-2.84
-7.52
-11.85
-15.60
-18.58
-20.67
-21.95
-22.64
-23.10
-23.71
-24.81
-26.73
-29.73
-33.97
-39.33
-45.12
-50.10
-52.62
-51.09
-44.66
-33.58
-19.31
-4.10
9.74
20.53
27.51
30.90
31.41
29.89
27.03
23.26
18.89
14.21
9.54
5.22
1.46
-1.63
-4.10
-6.11
-7.81
-9.35
-10.86
-12.49
-14.46
-17.08
-20.66
-25.29
-30.61
-35.64
-38.94
-38.99
-34.69
-25.87
-13.46
0.65
14.23
25.31
32.73
36.24
36.39
34.17
30.49
26.06
21.25
16.24
11.18
6.31
1.97
-1.54
-4.18
-6.19
-7.98
-9.93
-12.22
-14.79
-17.55
-20.54
-24.14
-28.71
-34.21
-39.78
-43.72
-44.00
-39.09
-28.77
-14.46
1.27
15.61
26.50
33.21
36.27
36.76
35.74
33.58
30.26
25.64
19.91
13.75
8.10
3.80
1.16
-0.13
-0.78
-1.44
-2.43
-3.61
-4.66
-5.55
-6.70
-9.08
-13.55
-20.19
-27.87
-34.33
-37.03
-34.12
-25.32
-12.15
2.70
16.39
26.87
33.38
36.28
36.44
34.81
31.86
27.85
22.92
17.42
11.90
6.98
3.14
0.54
-1.06
-2.14
-3.17
-4.44
-6.00
-7.77
-9.73
-12.04
-15.12
-19.28
-24.45
-29.84
-34.03
-35.33
-32.40
-24.81
-13.36
0.17
13.54
24.74
32.58
36.74
37.64
36.09
32.82
28.43
23.29
17.70
12.00
6.62
2.03
-1.43
-3.64
-4.76
-5.15
-5.30
-5.64
-6.51
-8.17
-10.80
-14.57
-19.50
-25.22
-30.89
-35.13
-36.41
-33.52
-26.07
-14.77
-1.23
12.43
24.24
32.84
37.67
38.97
37.47
34.06
29.48
24.26
18.65
12.84
7.05
1.67
-2.76
-5.80
-7.31
-7.55
-7.15
-6.88
-7.31
-8.80
-11.41
-15.13
-19.89
-25.38
-30.88
-35.10
-36.46
-33.58
-25.91
-14.19
-0.24
13.52
24.91
32.62
36.42
36.93
35.15
31.94
27.82
23.04
17.69
12.04
6.52
1.66
-2.08
-4.52
-5.87
-6.59
-7.26
-8.31
-9.96
-12.28
-15.35
-19.29
-24.07
-29.23
-33.72
-35.99
-34.55
-28.56
-18.35
-5.41
8.07
19.95
28.76
33.99
35.93
35.33
32.98
29.43
24.96
19.73
13.95
7.98
2.37
-2.25
-5.49
-7.24
-7.83
-7.82
-7.85
-8.45
-10.03
-12.86
-17.07
-22.52
-28.52
-33.82
-36.81
-36.03
-30.79
-21.49
-9.57
2.95
14.10
22.53
27.68
29.67
29.03
26.42
22.40
17.48
12.05
6.53
1.34
-3.07
-6.33
-8.18
-8.66
-8.08
-6.97
-5.97
-5.65
-6.44
-8.63
-12.22
-16.83
-21.58
-25.09
-25.82
-22.59
-15.12
-4.18
8.51
20.88
31.16
38.26
41.96
42.58
40.67
36.79
31.42
25.09
18.40
12.01
6.49
2.20
-0.81
-2.73
-3.89
-4.61
-5.16
-5.83
-6.91
-8.83
-12.06
-16.80
-22.73
-28.81
-33.41
-34.78
-31.67
-23.90
-12.51
0.55
13.15
23.51
30.74
34.71
35.81
34.53
31.35
26.73
21.23
15.54
10.37
6.22
3.25
1.28
-0.04
-1.02
-1.86
-2.76
-3.98
-5.86
-8.77
-12.87
-18.03
-23.72
-29.04
-32.92
-34.28
-32.25
-26.44
-17.10
-5.23
7.56
19.43
28.73
34.46
36.44
35.25
31.83
27.24
22.28
17.48
12.93
8.63
4.57
0.94
-1.95
-3.78
-4.53
-4.48
-4.46
-5.31
-7.69
-11.73
-17.08
-22.98
-28.49
-32.69
-34.79
-34.17
-30.39
-23.39
-13.61
-2.04
9.84
20.42
28.25
32.46
32.97
30.44
25.99
20.81
15.78
11.35
7.49
3.99
0.76
-2.04
-4.13
-5.27
-5.58
-5.46
-5.56
-6.52
-8.75
-12.42
-17.42
-23.38
-29.47
-34.44
-36.82
-35.30
-29.25
-19.12
-6.46
6.58
17.91
26.15
30.87
32.43
31.62
29.23
25.81
21.69
17.16
12.57
8.38
5.00
2.66
1.29
0.53
-0.12
-1.07
-2.53
-4.49
-6.88
-9.77
-13.43
-18.21
-24.08
-30.32
-35.39
-37.32
-34.48
-26.31
-13.82
0.73
14.57
25.46
32.28
35.19
35.13
33.17
30.02
26.00
21.21
15.91
10.64
6.03
2.61
0.49
-0.68
-1.51
-2.56
-4.10
-6.05
-8.13
-10.14
-12.25
-14.95
-18.80
-23.98
-29.88
-35.05
-37.61
-35.95
-29.41
-18.66
-5.52
7.70
18.94
26.97
31.55
33.08
32.22
29.57
25.56
20.61
15.29
10.29
6.24
3.49
1.90
1.01
0.21
-0.90
-2.39
-4.04
-5.60
-7.01
-8.54
-10.74
-14.22
-19.31
-25.78
-32.70
-38.53
-41.52
-40.22
-34.05
-23.55
-10.22
3.85
16.68
26.84
33.64
37.05
37.41
35.22
31.02
25.48
19.43
13.74
9.17
6.11
4.46
3.74
3.33
2.74
1.80
0.65
-0.53
-1.69
-3.08
-5.13
-8.26
-12.77
-18.58
-25.22
-31.76
-36.94
-39.38
-37.96
-32.19
-22.43
-9.88
3.58
16.02
25.92
32.41
35.41
35.41
33.12
29.28
24.48
19.19
13.93
9.24
5.57
3.19
2.02
1.61
1.30
0.56
-0.80
-2.60
-4.41
-5.88
-7.05
-8.36
-10.65
-14.71
-20.79
-28.27
-35.57
-40.56
-41.22
-36.44
-26.57
-13.29
1.02
14.15
24.67
32.19
36.94
39.40
39.74
37.95
34.05
28.42
21.94
15.79
10.98
8.06
6.82
6.52
6.26
5.37
3.65
1.37
-0.99
-3.03
-4.76
-6.59
-9.16
-13.06
-18.52
-25.22
-32.20
-38.00
-41.04
-40.04
-34.49
-24.86
-12.51
0.70
12.94
22.93
30.06
34.30
35.90
35.15
32.31
27.70
21.89
15.73
10.11
5.68
2.61
0.57
-1.01
-2.66
-4.55
-6.52
-8.22
-9.46
-10.36
-11.38
-13.18
-16.35
-21.16
-27.37
-34.14
-40.11
-43.68
-43.45
-38.66
-29.56
-17.41
-4.02
8.74
19.44
27.34
32.24
34.29
33.74
30.93
26.35
20.74
14.91
9.64
5.35
2.08
-0.49
-2.71
-4.78
-6.69
-8.29
-9.48
-10.33
-11.15
-12.44
-14.74
-18.45
-23.68
-30.04
-36.55
-41.74
-44.00
-42.06
-35.49
-24.88
-11.74
1.99
14.39
24.10
30.41
33.26
33.02
30.34
26.02
20.83
15.52
10.61
6.44
3.08
0.49
-1.41
-2.71
-3.54
-4.08
-4.60
-5.46
-6.91
-9.16
-12.32
-16.50
-21.72
-27.73
-33.83
-38.79
-41.01
-39.08
-32.31
-21.20
-7.35
7.02
19.71
29.20
34.92
37.10
36.45
33.79
29.79
25.04
19.98
15.12
10.92
7.74
5.80
5.04
5.14
5.68
6.21
6.39
6.01
4.96
3.16
0.45
-3.46
-8.81
-15.58
-23.22
-30.49
-35.60
-36.78
-32.93
-24.10
-11.62
2.38
15.59
26.26
33.51
37.30
38.05
36.32
32.63
27.52
21.65
15.81
10.78
7.14
5.05
4.28
4.27
4.37
4.10
3.23
1.81
0.07
-1.78
-3.74
-6.11
-9.41
-14.07
-20.04
-26.48
-31.80
-34.15
-32.13
-25.36
-14.75
-2.12
10.39
21.06
28.90
33.64
35.44
34.60
31.45
26.43
20.21
13.69
7.85
3.45
0.82
-0.19
-0.11
0.38
0.74
0.70
0.30
-0.31
-1.02
-2.01
-3.70
-6.67
-11.28
-17.32
-23.82
-29.22
-31.80
-30.31
-24.46
-15.04
-3.59
8.08
18.49
26.66
32.11
34.65
34.24
31.05
25.54
18.67
11.57
5.40
0.85
-2.01
-3.56
-4.34
-4.79
-5.11
-5.42
-5.86
-6.67
-8.09
-10.22
-12.97
-16.20
-19.78
-23.79
-28.10
-32.19
-34.90
-34.73
-30.39
-21.56
-9.19
4.60
17.34
27.04
32.77
34.77
33.94
31.31
27.64
23.10
17.70
11.53
5.05
-0.88
-5.33
-7.69
-7.98
-7.00
-5.89
-5.63
-6.59
-8.44
-10.48
-12.24
-13.88
-16.20
-19.98
-25.27
-30.87
-34.62
-34.27
-28.57
-17.89
-4.26
9.60
21.24
29.33
33.77
35.23
34.53
32.21
28.44
23.28
17.03
10.36
4.16
-0.76
-3.96
-5.45
-5.68
-5.29
-4.82
-4.60
-4.72
-5.16
-5.99
-7.44
-9.90
-13.75
-19.03
-25.17
-30.98
-34.84
-35.18
-31.05
-22.45
-10.49
2.98
15.92
26.62
34.07
38.04
38.86
37.14
33.54
28.74
23.36
18.05
13.37
9.77
7.45
6.40
6.39
7.09
8.12
9.11
9.79
9.98
9.57
8.46
6.53
3.61
-0.28
-4.76
-8.91
-11.40
-10.85
-6.40
1.84
12.66
24.15
34.23
41.31
44.60
44.14
40.50
34.47
26.84
18.35
9.64
1.29
-6.23
-12.65
-17.96
-22.32
-26.09
-29.58
-32.95
-36.12
-38.81
-40.70
-41.69
-42.07
-42.52
-43.89
-46.73
-50.83
-55.07
-57.64
-56.77
-51.44
-41.86
-29.44
-16.18
-3.98
5.95
13.24
18.06
20.77
21.58
20.63
18.06
14.29
9.94
5.72
2.16
-0.54
-2.50
-3.96
-5.11
-6.02
-6.65
-7.00
-7.22
-7.74
-9.17
-12.16
-17.07
-23.64
-30.85
-37.05
-40.44
-39.68
-34.43
-25.47
-14.46
-3.29
6.49
14.04
19.15
21.96
22.71
21.58
18.74
14.51
9.41
4.13
-0.69
-4.53
-7.13
-8.52
-8.93
-8.82
-8.68
-8.96
-9.97
-11.82
-14.46
-17.74
-21.42
-25.09
-28.07
-29.27
-27.58
-22.07
-12.47
0.54
15.50
30.44
43.47
53.21
58.96
60.74
59.06
54.78
48.84
42.08
35.11
28.31
21.75
15.43
9.37
3.71
-1.33
-5.58
-9.00
-11.78
-14.38
-17.42
-21.50
-27.07
-34.22
-42.41
-50.52
-56.89
-59.77
-57.83
-50.63
-38.79
-23.88
-7.94
7.08
19.80
29.47
35.91
39.27
39.85
38.04
34.38
29.54
24.30
19.34
15.09
11.68
8.93
6.56
4.37
2.28
0.35
-1.42
-3.16
-5.26
-8.22
-12.51
-18.30
-25.14
-31.89
-36.92
-38.51
-35.46
-27.54
-15.68
-1.65
12.47
24.95
34.81
41.84
46.30
48.57
48.87
47.24
43.80
38.89
33.14
27.32
22.06
17.66
14.03
10.88
7.94
5.16
2.63
0.44
-1.64
-4.18
-8.02
-13.82
-21.58
-30.42
-38.58
-43.94
-44.80
-40.46
-31.54
-19.71
-7.08
4.53
14.02
21.06
25.82
28.56
29.48
28.69
26.40
23.06
19.28
15.59
12.26
9.24
6.25
3.09
-0.24
-3.37
-5.80
-7.07
-7.00
-5.85
-4.20
-2.85
-2.58
-3.82
-6.49
-9.76
-12.28
-12.50
-9.23
-2.08
8.32
20.55
32.89
43.84
52.45
58.40
61.76
62.77
61.69
58.84
54.64
49.71
44.71
40.17
36.31
33.01
29.91
26.59
22.80
18.51
13.93
9.31
4.87
0.64
-3.50
-7.80
-12.62
-18.30
-25.10
-32.88
-40.97
-48.08
-52.59
-53.02
-48.65
-39.85
-28.01
-15.08
-2.90
7.28
14.97
20.27
23.50
24.88
24.47
22.34
18.74
14.20
9.48
5.31
2.17
0.03
-1.55
-3.23
-5.57
-8.71
-12.39
-16.03
-19.09
-21.39
-23.17
-25.09
-27.90
-32.19
-38.11
-45.16
-52.24
-57.84
-60.43
-58.87
-52.83
-42.87
-30.27
-16.63
-3.38
8.43
18.20
25.62
30.52
32.83
32.72
30.70
27.61
24.41
21.85
20.24
19.35
18.62
17.46
15.56
12.97
10.03
7.12
4.45
1.96
-0.64
-3.64
-7.29
-11.66
-16.65
-21.97
-27.05
-30.98
-32.67
-31.09
-25.69
-16.69
-5.17
7.29
18.96
28.56
35.38
39.31
40.66
39.82
37.22
33.27
28.47
23.39
18.65
14.73
11.84
9.82
8.24
6.56
4.43
1.78
-1.18
-4.13
-6.91
-9.65
-12.74
-16.74
-22.02
-28.52
-35.53
-41.78
-45.71
-45.95
-41.88
-33.82
-23.03
-11.21
0.11
9.99
18.10
24.54
29.39
32.47
33.51
32.42
29.54
25.66
21.64
18.05
15.03
12.35
9.73
7.11
4.62
2.48
0.63
-1.22
-3.46
-6.31
-9.72
-13.39
-17.14
-21.07
-25.52
-30.65
-35.97
-40.21
-41.63
-38.73
-31.04
-19.42
-5.93
7.07
17.76
25.44
30.45
33.63
35.64
36.60
36.09
33.69
29.49
24.25
19.17
15.35
13.28
12.66
12.50
11.78
9.88
6.88
3.41
0.26
-2.06
-3.54
-4.72
-6.36
-9.19
-13.60
-19.53
-26.34
-32.89
-37.73
-39.54
-37.46
-31.49
-22.44
-11.74
-0.95
8.72
16.53
22.21
25.74
27.10
26.31
23.53
19.22
14.16
9.30
5.47
3.07
1.97
1.58
1.12
-0.00
-2.00
-4.60
-7.27
-9.50
-11.09
-12.23
-13.48
-15.41
-18.37
-22.33
-26.83
-31.09
-34.13
-34.94
-32.79
-27.36
-18.92
-8.39
2.91
13.61
22.64
29.44
33.98
36.43
37.01
35.83
32.99
28.79
23.82
18.80
14.37
10.81
7.92
5.20
2.15
-1.49
-5.55
-9.54
-12.92
-15.31
-16.70
-17.41
-17.99
-18.98
-20.82
-23.69
-27.48
-31.74
-35.68
-38.30
-38.61
-35.86
-29.87
-21.11
-10.60
0.42
10.82
19.81
27.02
32.29
35.54
36.71
35.82
33.12
29.19
24.81
20.72
17.35
14.71
12.48
10.27
7.86
5.26
2.75
0.59
-1.10
-2.44
-3.74
-5.42
-7.91
-11.55
-16.44
-22.32
-28.44
-33.61
-36.47
-35.87
-31.37
-23.35
-12.98
-1.81
8.68
17.46
24.02
28.34
30.62
31.19
30.36
28.39
25.60
22.36
19.06
16.09
13.71
11.97
10.64
9.33
7.67
5.50
2.95
0.42
-1.69
-3.26
-4.53
-6.18
-8.95
-13.31
-19.14
-25.55
-31.08
-34.10
-33.44
-28.88
-21.20
-11.88
-2.56
5.53
11.82
16.29
19.16
20.42
19.92
17.48
13.22
7.77
2.10
-2.85
-6.54
-9.10
-11.17
-13.43
-16.27
-19.53
-22.66
-25.06
-26.43
-27.03
-27.53
-28.78
-31.40
-35.58
-40.98
-46.72
-51.56
-54.23
-53.67
-49.33
-41.45
-30.92
-19.08
-7.35
3.19
11.85
18.32
22.52
24.49
24.38
22.55
19.58
16.24
13.24
11.03
9.68
8.91
8.31
7.53
6.47
5.26
4.14
3.31
2.79
2.37
1.71
0.35
-2.04
-5.52
-9.79
-14.08
-17.30
-18.34
-16.38
-11.20
-3.37
6.03
15.64
24.25
31.04
35.62
37.93
38.10
36.36
32.99
28.41
23.17
17.84
12.88
8.57
4.92
1.81
-0.98
-3.58
-6.07
-8.46
-10.80
-13.16
-15.65
-18.36
-21.37
-24.74
-28.60
-32.99
-37.74
-42.24
-45.44
-46.06
-42.99
-35.82
-25.07
-12.11
1.27
13.42
23.24
30.32
34.81
37.06
37.37
35.97
33.08
29.07
24.52
20.10
16.40
13.61
11.59
9.87
8.03
5.83
3.38
0.99
-1.04
-2.67
-4.20
-6.19
-9.29
-13.91
-20.00
-26.84
-33.08
-37.07
-37.33
-33.14
-24.81
-13.67
-1.56
9.76
19.12
26.11
30.83
33.52
34.30
33.17
30.20
25.80
20.74
15.94
12.10
9.44
7.69
6.30
4.79
3.04
1.32
-0.01
-0.67
-0.79
-0.79
-1.29
-2.81
-5.63
-9.63
-14.30
-18.80
-22.08
-23.07
-21.00
-15.61
-7.33
2.80
13.48
23.43
31.68
37.57
40.77
41.12
38.68
33.76
27.03
19.45
11.98
5.37
-0.06
-4.44
-8.21
-11.87
-15.80
-20.07
-24.53
-28.90
-32.94
-36.54
-39.75
-42.83
-46.12
-49.92
-54.36
-59.17
-63.67
-66.82
-67.51
-64.89
-58.72
-49.48
-38.33
-26.73
-16.11
-7.48
-1.24
2.73
4.90
5.85
6.02
5.65
4.83
3.60
2.01
0.27
-1.36
-2.68
-3.56
-4.02
-4.13
-4.03
-3.85
-3.76
-4.07
-5.20
-7.66
-11.72
-17.19
-23.19
-28.26
-30.73
-29.25
-23.36
-13.67
-1.70
10.62
21.52
29.88
35.36
38.17
38.82
37.74
35.30
31.79
27.60
23.26
19.28
15.97
13.29
10.90
8.32
5.27
1.82
-1.66
-4.81
-7.44
-9.79
-12.42
-15.97
-20.79
-26.74
-33.03
-38.47
-41.67
-41.43
-37.11
-28.79
-17.33
-4.14
9.09
20.82
29.87
35.62
38.05
37.64
35.11
31.32
27.00
22.54
18.11
13.70
9.35
5.22
1.62
-1.20
-3.15
-4.52
-5.81
-7.51
-9.94
-13.10
-16.75
-20.54
-24.00
-26.77
-28.33
-28.08
-25.38
-19.81
-11.43
-0.92
10.43
21.04
29.54
35.11
37.69
37.82
36.29
33.79
30.68
26.96
22.49
17.29
11.65
6.11
1.22
-2.64
-5.35
-7.12
-8.27
-9.19
-10.23
-11.76
-14.14
-17.67
-22.29
-27.45
-32.03
-34.51
-33.51
-28.24
-18.88
-6.54
7.12
20.32
31.66
40.29
45.89
48.48
48.27
45.66
41.17
35.50
29.37
23.42
18.00
13.17
8.74
4.46
0.22
-3.86
-7.53
-10.65
-13.31
-16.04
-19.60
-24.75
-31.82
-40.38
-49.21
-56.54
-60.54
-59.84
-54.00
-43.64
-30.22
-15.62
-1.63
10.36
19.56
25.72
28.92
29.51
28.00
25.04
21.32
17.48
13.95
10.91
8.35
6.15
4.20
2.49
0.94
-0.56
-2.25
-4.43
-7.40
-11.35
-16.40
-22.43
-29.01
-35.25
-39.84
-41.29
-38.42
-30.82
-19.10
-4.77
10.20
23.96
35.19
43.28
48.15
50.09
49.61
47.37
44.13
40.65
37.49
34.84
32.56
30.26
27.59
24.43
20.95
17.51
14.41
11.76
9.34
6.74
3.40
-1.20
-7.41
-15.17
-23.86
-32.17
-38.28
-40.26
-36.67
-27.17
-12.79
4.32
21.45
36.13
46.77
52.93
55.22
54.86
53.24
51.47
50.24
49.65
49.49
49.32
48.76
47.48
45.28
42.02
37.69
32.37
26.36
20.06
13.94
8.13
2.39
-4.00
-11.94
-21.94
-33.59
-45.38
-54.99
-60.12
-59.28
-52.39
-40.81
-26.68
-12.25
0.85
11.76
20.18
26.07
29.43
30.31
29.01
26.20
22.82
19.75
17.41
15.72
14.24
12.50
10.32
7.97
5.95
4.69
4.13
3.73
2.67
0.15
-4.28
-10.70
-18.72
-27.62
-36.35
-43.51
-47.54
-47.03
-41.21
-30.34
-15.84
0.09
15.05
27.09
35.20
39.29
39.93
37.93
34.05
28.96
23.14
17.07
11.14
5.71
0.92
-3.28
-7.10
-10.70
-14.12
-17.24
-19.85
-21.89
-23.58
-25.46
-28.31
-32.79
-39.16
-47.02
-55.17
-61.77
-64.83
-62.76
-54.95
-41.99
-25.55
-7.88
8.83
22.89
33.42
40.17
43.38
43.59
41.49
37.90
33.61
29.34
25.51
22.21
19.29
16.48
13.55
10.43
7.18
3.94
0.87
-2.00
-4.72
-7.55
-10.93
-15.33
-21.04
-27.84
-34.77
-40.26
-42.50
-40.04
-32.38
-20.23
-5.27
10.32
24.57
36.18
44.64
50.03
52.69
52.98
51.23
47.89
43.56
38.99
34.91
31.76
29.58
28.02
26.57
24.83
22.69
20.32
18.07
16.15
14.52
12.75
10.13
5.81
-0.77
-9.53
-19.45
-28.65
-34.80
-35.94
-31.18
-21.20
-7.98
5.80
17.69
26.21
30.98
32.41
31.22
27.92
22.82
16.17
8.42
0.38
-7.00
-12.98
-17.30
-20.33
-22.79
-25.34
-28.25
-31.18
-33.48
-34.59
-34.35
-33.17
-31.81
-31.08
-31.55
-33.41
-36.45
-40.15
-43.58
-45.55
-44.71
-39.97
-30.92
-18.10
-2.93
12.70
27.02
38.77
47.42
52.93
55.52
55.49
53.17
48.99
43.62
37.86
32.54
28.25
25.20
23.17
21.65
20.08
18.09
15.60
12.77
9.81
6.87
3.94
0.80
-2.84
-7.33
-12.98
-19.91
-27.79
-35.70
-42.06
-45.07
-43.33
-36.43
-25.26
-11.71
2.00
14.13
23.76
30.77
35.37
37.66
37.53
34.86
29.91
23.52
17.00
11.64
8.23
6.76
6.51
6.46
5.79
4.18
1.86
-0.65
-2.96
-5.00
-7.09
-9.74
-13.42
-18.35
-24.51
-31.63
-39.13
-46.12
-51.39
-53.64
-51.81
-45.56
-35.42
-22.77
-9.42
2.98
13.30
21.04
26.20
29.00
29.63
28.32
25.34
21.21
16.67
12.50
9.35
7.48
6.72
6.50
6.16
5.20
3.46
1.12
-1.45
-3.92
-6.17
-8.35
-10.84
-14.05
-18.37
-23.98
-30.64
-37.55
-43.38
-46.55
-45.80
-40.66
-31.68
-20.27
-8.15
3.21
12.81
20.23
25.29
27.88
27.98
25.81
21.94
17.27
12.66
8.70
5.58
3.18
1.27
-0.28
-1.47
-2.28
-2.84
-3.38
-4.21
-5.51
-7.25
-9.29
-11.55
-14.18
-17.65
-22.36
-28.21
-34.23
-38.67
-39.55
-35.55
-26.65
-14.35
-1.04
10.92
20.05
26.10
29.70
31.69
32.56
32.20
30.20
26.44
21.33
15.87
11.19
8.00
6.36
5.57
4.68
3.00
0.45
-2.50
-5.19
-7.21
-8.66
-10.20
-12.73
-16.89
-22.74
-29.54
-35.91
-40.13
-40.77
-37.12
-29.47
-19.02
-7.44
3.60
12.94
19.93
24.44
26.59
26.57
24.67
21.36
17.29
13.15
9.51
6.61
4.41
2.62
0.95
-0.77
-2.56
-4.33
-5.99
-7.50
-8.90
-10.36
-12.19
-14.87
-18.82
-24.20
-30.57
-36.76
-41.11
-41.94
-38.25
-30.17
-18.95
-6.55
5.05
14.48
21.19
25.29
27.20
27.26
25.70
22.70
18.69
14.28
10.23
7.12
5.15
4.04
3.24
2.19
0.65
-1.19
-2.93
-4.20
-4.95
-5.59
-6.87
-9.49
-13.90
-19.87
-26.55
-32.58
-36.46
-36.96
-33.52
-26.43
-16.69
-5.73
5.05
14.55
22.13
27.50
30.59
31.43
30.21
27.32
23.38
19.12
15.16
11.88
9.26
7.14
5.25
3.51
1.93
0.60
-0.44
-1.28
-2.14
-3.29
-5.03
-7.65
-11.37
-16.28
-22.12
-28.20
-33.36
-36.21
-35.56
-30.83
-22.33
-11.24
0.75
11.94
21.10
27.62
31.43
32.78
31.98
29.30
25.10
19.98
14.75
10.25
7.11
5.49
4.93
4.67
3.97
2.43
0.19
-2.26
-4.35
-5.79
-6.71
-7.64
-9.29
-12.26
-16.76
-22.44
-28.35
-33.06
-35.14
-33.51
-27.90
-18.93
-7.91
3.57
14.10
22.71
28.85
32.29
32.98
31.06
26.94
21.38
15.41
10.04
5.93
3.19
1.47
0.18
-1.20
-2.84
-4.63
-6.26
-7.53
-8.46
-9.29
-10.37
-12.03
-14.50
-17.90
-22.16
-27.10
-32.19
-36.52
-38.92
-38.25
-33.85
-25.88
-15.34
-3.86
6.87
15.57
21.62
25.03
26.18
25.57
23.67
20.84
17.42
13.82
10.44
7.62
5.53
4.08
3.03
2.07
0.98
-0.28
-1.61
-2.89
-4.07
-5.29
-6.85
-9.16
-12.53
-17.07
-22.45
-27.86
-32.09
-33.80
-31.93
-26.10
-16.87
-5.53
6.25
16.88
25.27
30.96
34.01
34.73
33.48
30.64
26.58
21.80
16.91
12.49
9.02
6.65
5.26
4.51
4.01
3.46
2.75
1.89
0.95
-0.11
-1.45
-3.40
-6.40
-10.71
-16.16
-21.97
-26.73
-28.84
-27.05
-21.04
-11.57
-0.28
10.94
20.53
27.65
32.15
34.25
34.24
32.36
28.81
23.92
18.25
12.51
7.44
3.58
1.15
0.10
0.12
0.83
1.83
2.87
3.84
4.64
5.14
5.00
3.87
1.48
-1.90
-5.44
-7.76
-7.48
-3.71
3.47
13.05
23.40
32.92
40.53
45.78
48.73
49.59
48.53
45.65
41.11
35.33
28.91
22.54
16.67
11.49
6.85
2.51
-1.66
-5.64
-9.23
-12.24
-14.64
-16.64
-18.65
-21.25
-24.93
-29.98
-36.20
-42.86
-48.71
-52.28
-52.33
-48.21
-40.19
-29.39
-17.36
-5.72
4.30
11.96
17.00
19.45
19.52
17.60
14.29
10.33
6.49
3.38
1.22
-0.11
-0.98
-1.74
-2.63
-3.58
-4.47
-5.19
-5.82
-6.62
-7.97
-10.19
-13.49
-17.87
-23.00
-28.19
-32.43
-34.48
-33.31
-28.44
-20.19
-9.67
1.52
11.75
19.80
25.02
27.34
27.08
24.75
20.95
16.33
11.53
7.06
3.29
0.31
-1.96
-3.68
-5.00
-5.99
-6.70
-7.25
-7.81
-8.60
-9.84
-11.71
-14.32
-17.78
-22.14
-27.20
-32.37
-36.58
-38.49
-36.91
-31.33
-22.20
-10.93
0.64
10.80
18.54
23.57
26.24
27.02
26.24
24.02
20.39
15.58
10.11
4.76
0.27
-2.91
-4.78
-5.78
-6.49
-7.36
-8.56
-9.95
-11.33
-12.65
-14.10
-16.15
-19.32
-23.85
-29.50
-35.42
-40.30
-42.81
-42.05
-37.88
-31.00
-22.70
-14.32
-6.90
-0.97
3.33
6.02
7.05
6.35
3.95
0.23
-4.00
-7.81
-10.43
-11.57
-11.52
-10.89
-10.28
-10.01
-10.03
-10.16
-10.31
-10.60
-11.38
-12.98
-15.60
-19.08
-22.89
-26.30
-28.37
-28.18
-25.04
-18.66
-9.36
1.84
13.47
23.88
31.76
36.51
38.26
37.72
35.82
33.26
30.43
27.26
23.59
19.40
15.06
11.14
8.25
6.59
5.92
5.45
4.31
1.92
-1.87
-6.81
-12.53
-18.68
-24.96
-30.93
-35.74
-38.23
-37.12
-31.69
-22.10
-9.63
3.74
15.91
25.29
31.15
33.62
33.37
31.28
28.15
24.66
21.20
18.05
15.33
13.03
11.05
9.30
7.69
6.24
4.99
3.90
2.80
1.36
-0.89
-4.41
-9.42
-15.62
-22.10
-27.42
-30.04
-28.73
-23.20
-14.11
-2.97
8.45
18.62
26.60
32.04
34.97
35.57
34.04
30.68
26.00
20.73
15.64
11.34
8.12
5.93
4.46
3.39
2.45
1.47
0.40
-0.89
-2.59
-5.02
-8.57
-13.48
-19.61
-26.23
-32.05
-35.51
-35.25
-30.65
-22.15
-11.13
0.56
11.16
19.50
25.07
27.95
28.44
26.95
23.86
19.63
14.86
10.19
6.23
3.36
1.67
0.97
0.97
1.36
1.91
2.45
2.83
2.79
1.99
0.01
-3.50
-8.49
-14.38
-19.99
-23.74
-24.23
-20.63
-13.11
-2.78
8.67
19.49
28.31
34.39
37.55
37.97
36.03
32.24
27.21
21.70
16.42
11.91
8.36
5.64
3.44
1.46
-0.38
-2.01
-3.30
-4.27
-5.21
-6.64
-9.10
-12.90
-17.86
-23.26
-27.96
-30.63
-30.22
-26.21
-18.78
-8.84
2.33
13.22
22.58
29.55
33.76
35.26
34.41
31.71
27.64
22.64
17.03
11.16
5.38
0.17
-4.01
-6.84
-8.24
-8.48
-8.08
-7.69
-7.90
-9.19
-11.83
-15.84
-20.87
-26.23
-30.78
-33.17
-32.19
-27.17
-18.25
-6.53
6.29
18.25
27.71
33.72
36.17
35.59
32.88
28.92
24.37
19.53
14.56
9.63
5.09
1.37
-1.15
-2.39
-2.62
-2.45
-2.60
-3.65
-5.94
-9.51
-14.24
-19.71
-25.22
-29.80
-32.27
-31.53
-26.96
-18.72
-7.80
4.19
15.50
24.62
30.70
33.53
33.42
30.96
26.79
21.53
15.79
10.11
5.03
0.94
-1.98
-3.80
-4.76
-5.23
-5.52
-5.86
-6.51
-7.80
-10.16
-13.88
-18.92
-24.54
-29.34
-31.61
-29.90
-23.70
-13.66
-1.45
10.88
21.52
29.38
34.17
36.10
35.60
32.97
28.53
22.67
16.01
9.39
3.61
-0.73
-3.47
-4.83
-5.34
-5.55
-5.86
-6.47
-7.47
-9.02
-11.45
-15.14
-20.14
-25.91
-31.20
-34.30
-33.71
-28.68
-19.67
-8.17
3.81
14.39
22.31
27.15
29.12
28.74
26.55
22.99
18.40
13.18
7.78
2.72
-1.49
-4.60
-6.57
-7.71
-8.40
-9.07
-9.98
-11.36
-13.42
-16.45
-20.69
-26.07
-31.94
-37.04
-39.75
-38.59
-32.91
-23.14
-10.75
2.19
13.74
22.58
28.22
30.87
31.11
29.48
26.46
22.35
17.49
12.31
7.31
3.01
-0.19
-2.19
-3.17
-3.57
-3.96
-4.82
-6.50
-9.14
-12.74
-17.22
-22.30
-27.39
-31.51
-33.43
-31.95
-26.42
-17.11
-5.26
7.27
18.55
27.18
32.56
34.86
34.70
32.78
29.62
25.52
20.69
15.45
10.28
5.79
2.49
0.58
-0.16
-0.31
-0.62
-1.68
-3.81
-7.04
-11.23
-16.10
-21.18
-25.69
-28.52
-28.51
-24.76
-17.14
-6.43
5.79
17.59
27.31
33.94
37.22
37.59
35.74
32.39
28.10
23.25
18.12
13.03
8.39
4.59
1.90
0.33
-0.44
-0.93
-1.73
-3.31
-6.03
-10.08
-15.43
-21.71
-28.10
-33.34
-35.97
-34.80
-29.36
-20.15
-8.54
3.67
14.74
23.49
29.38
32.45
33.04
31.59
28.57
24.44
19.71
14.93
10.62
7.14
4.66
3.05
2.03
1.23
0.33
-0.87
-2.57
-4.96
-8.33
-12.90
-18.55
-24.59
-29.74
-32.43
-31.30
-25.82
-16.48
-4.77
7.41
18.31
26.78
32.39
35.22
35.61
33.95
30.66
26.22
21.18
16.13
11.57
7.85
5.09
3.23
2.09
1.39
0.81
-0.04
-1.49
-3.83
-7.25
-11.81
-17.38
-23.55
-29.51
-34.13
-36.14
-34.47
-28.74
-19.39
-7.70
4.68
16.04
25.17
31.43
34.69
35.21
33.48
30.12
25.85
21.28
16.93
13.06
9.77
7.06
4.94
3.39
2.38
1.64
0.78
-0.59
-2.73
-5.61
-9.12
-13.16
-17.78
-23.03
-28.61
-33.63
-36.59
-35.91
-30.62
-20.91
-8.22
5.12
16.79
25.24
30.01
31.59
30.96
29.04
26.44
23.37
19.95
16.35
12.91
9.98
7.82
6.42
5.54
4.74
3.64
2.07
0.05
-2.28
-4.81
-7.59
-10.88
-15.05
-20.25
-26.18
-31.91
-36.00
-36.98
-33.83
-26.50
-15.91
-3.74
8.19
18.42
26.11
30.99
33.18
32.99
30.83
27.24
22.92
18.63
14.98
12.25
10.37
9.05
7.94
6.78
5.49
4.10
2.63
1.10
-0.57
-2.50
-4.88
-7.98
-12.10
-17.36
-23.53
-29.79
-34.85
-37.21
-35.68
-29.90
-20.48
-8.88
3.07
13.69
21.84
27.04
29.32
29.04
26.69
22.83
18.07
13.06
8.41
4.58
1.77
-0.11
-1.36
-2.38
-3.53
-4.96
-6.63
-8.33
-9.85
-11.12
-12.39
-14.16
-17.03
-21.34
-26.94
-32.96
-38.03
-40.65
-39.70
-34.82
-26.57
-16.18
-5.18
5.08
13.61
19.89
23.70
25.08
24.19
21.42
17.36
12.78
8.45
4.93
2.42
0.80
-0.26
-1.13
-2.00
-2.89
-3.70
-4.36
-4.92
-5.55
-6.57
-8.24
-10.82
-14.34
-18.58
-22.94
-26.50
-28.17
-26.98
-22.50
-15.01
-5.48
4.67
14.03
21.50
26.50
28.88
28.87
26.89
23.57
19.56
15.53
11.96
9.02
6.60
4.44
2.36
0.36
-1.44
-2.88
-3.96
-4.87
-5.89
-7.27
-9.21
-11.83
-15.32
-19.73
-24.77
-29.66
-33.09
-33.64
-30.30
-23.04
-12.93
-1.80
8.40
16.29
21.37
23.94
24.64
24.10
22.51
19.89
16.23
11.81
7.22
3.24
0.44
-1.02
-1.51
-1.73
-2.30
-3.48
-5.11
-6.77
-8.16
-9.27
-10.59
-12.78
-16.32
-21.09
-26.26
-30.40
-32.02
-30.06
-24.39
-15.81
-5.77
4.19
12.87
19.67
24.45
27.33
28.37
27.56
24.96
20.92
16.13
11.49
7.75
5.30
3.97
3.26
2.58
1.57
0.19
-1.30
-2.63
-3.68
-4.60
-5.77
-7.71
-10.83
-15.25
-20.64
-26.18
-30.63
-32.70
-31.45
-26.64
-18.88
-9.37
0.40
9.19
16.21
21.16
24.08
25.12
24.43
22.20
18.76
14.59
10.34
6.61
3.80
1.98
0.89
0.04
-1.03
-2.52
-4.34
-6.13
-7.52
-8.36
-8.92
-9.79
-11.70
-15.10
-19.85
-25.17
-29.77
-32.32
-31.86
-28.14
-21.62
-13.23
-4.09
4.80
12.68
18.99
23.33
25.44
25.30
23.09
19.37
14.89
10.44
6.64
3.77
1.81
0.49
-0.45
-1.20
-1.81
-2.23
-2.50
-2.78
-3.30
-4.32
-6.03
-8.51
-11.78
-15.74
-20.09
-24.23
-27.19
-27.90
-25.54
-19.82
-11.26
-0.96
9.72
19.54
27.56
33.21
36.16
36.28
33.66
28.72
22.24
15.19
8.51
2.85
-1.50
-4.63
-6.80
-8.28
-9.25
-9.85
-10.20
-10.47
-10.85
-11.54
-12.73
-14.62
-17.37
-21.04
-25.44
-29.92
-33.43
-34.67
-32.59
-26.79
-17.82
-7.03
3.88
13.36
20.49
25.04
27.22
27.46
26.04
23.22
19.26
14.59
9.85
5.70
2.61
0.66
-0.39
-1.07
-1.83
-2.90
-4.20
-5.44
-6.37
-6.97
-7.61
-8.90
-11.48
-15.65
-21.13
-26.95
-31.73
-34.08
-33.06
-28.53
-21.15
-12.09
-2.66
6.07
13.40
19.00
22.71
24.47
24.25
22.17
18.61
14.18
9.62
5.56
2.31
-0.19
-2.21
-4.06
-5.83
-7.36
-8.39
-8.72
-8.50
-8.15
-8.27
-9.39
-11.82
-15.55
-20.18
-25.03
-29.16
-31.59
-31.47
-28.36
-22.33
-14.01
-4.44
5.18
13.70
20.26
24.38
25.97
25.29
22.84
19.23
15.04
10.74
6.70
3.13
0.18
-2.07
-3.61
-4.56
-5.05
-5.31
-5.54
-5.95
-6.69
-7.90
-9.69
-12.19
-15.52
-19.72
-24.52
-29.15
-32.40
-32.91
-29.78
-22.94
-13.31
-2.47
7.94
16.78
23.60
28.43
31.35
32.33
31.28
28.33
24.07
19.43
15.38
12.47
10.57
9.12
7.51
5.53
3.43
1.74
0.85
0.73
0.79
0.21
-1.76
-5.45
-10.61
-16.46
-21.88
-25.64
-26.82
-24.90
-19.94
-12.42
-3.23
6.65
16.15
24.33
30.23
33.24
33.10
30.18
25.35
19.82
14.68
10.60
7.65
5.45
3.50
1.53
-0.48
-2.28
-3.66
-4.57
-5.24
-6.05
-7.42
-9.72
-13.17
-17.82
-23.40
-29.22
-34.23
-37.16
-36.87
-32.77
-25.08
-14.76
-3.27
7.90
17.56
24.98
29.84
32.10
31.91
29.62
25.75
21.02
16.23
12.03
8.80
6.56
5.02
3.77
2.46
0.96
-0.62
-2.08
-3.29
-4.40
-5.83
-8.14
-11.83
-17.00
-23.15
-29.23
-33.84
-35.64
-33.73
-27.97
-18.98
-8.04
3.35
13.78
22.24
28.22
31.61
32.59
31.49
28.76
24.90
20.53
16.27
12.60
9.72
7.57
5.85
4.24
2.60
0.94
-0.56
-1.78
-2.77
-3.78
-5.27
-7.73
-11.58
-16.92
-23.32
-29.85
-35.11
-37.59
-36.06
-30.06
-20.05
-7.37
6.21
18.85
29.10
36.06
39.45
39.50
36.81
32.23
26.70
21.07
15.99
11.83
8.68
6.41
4.77
3.51
2.43
1.42
0.39
-0.72
-1.98
-3.49
-5.48
-8.27
-12.25
-17.63
-24.20
-31.03
-36.60
-39.15
-37.32
-30.72
-20.09
-7.10
6.25
18.28
27.92
34.74
38.64
39.64
37.85
33.63
27.75
21.33
15.56
11.37
9.02
8.21
8.18
8.16
7.61
6.38
4.66
2.73
0.79
-1.19
-3.49
-6.60
-10.96
-16.73
-23.60
-30.56
-36.26
-39.22
-38.36
-33.33
-24.62
-13.42
-1.19
10.59
20.70
28.29
32.88
34.35
32.98
29.40
24.52
19.37
14.75
11.12
8.58
6.93
5.91
5.29
4.91
4.65
4.24
3.46
2.11
0.16
-2.29
-5.13
-8.44
-12.40
-17.24
-22.79
-28.23
-32.18
-33.07
-29.85
-22.43
-11.84
0.07
11.39
20.62
27.07
30.75
32.04
31.43
29.29
25.91
21.61
16.86
12.19
8.17
5.16
3.23
2.23
1.76
1.41
0.88
-0.02
-1.30
-2.93
-4.97
-7.56
-10.96
-15.38
-20.70
-26.37
-31.30
-34.12
-33.54
-28.91
-20.49
-9.43
2.53
13.61
22.50
28.61
31.95
32.91
31.94
29.39
25.56
20.81
15.65
10.71
6.55
3.54
1.66
0.64
0.05
-0.52
-1.33
-2.46
-3.95
-5.87
-8.49
-12.17
-17.15
-23.28
-29.74
-35.16
-37.98
-36.90
-31.45
-22.16
-10.42
1.97
13.28
22.30
28.43
31.66
32.30
30.88
27.97
24.14
19.88
15.62
11.67
8.22
5.39
3.22
1.66
0.55
-0.32
-1.20
-2.34
-3.92
-6.11
-9.11
-13.16
-18.43
-24.74
-31.32
-36.80
-39.49
-37.96
-31.65
-21.18
-8.22
5.13
16.95
26.04
32.04
35.15
35.81
34.41
31.27
26.75
21.40
15.92
11.02
7.22
4.67
3.16
2.23
1.42
0.41
-0.86
-2.35
-4.00
-5.95
-8.52
-12.12
-17.01
-22.97
-29.15
-34.16
-36.41
-34.65
-28.46
-18.49
-6.27
6.30
17.52
26.31
32.30
35.59
36.49
35.29
32.29
27.93
22.89
17.99
14.00
11.31
9.83
9.09
8.47
7.53
6.13
4.45
2.72
1.05
-0.77
-3.19
-6.78
-11.88
-18.37
-25.47
-31.84
-35.89
-36.30
-32.39
-24.45
-13.59
-1.41
10.50
20.89
29.00
34.45
37.11
36.98
34.31
29.64
23.87
18.08
13.22
9.80
7.81
6.74
5.97
5.02
3.79
2.49
1.35
0.45
-0.46
-1.91
-4.50
-8.66
-14.48
-21.54
-28.90
-35.26
-39.16
-39.40
-35.38
-27.33
-16.25
-3.69
8.65
19.29
27.21
31.85
33.21
31.65
27.93
22.99
17.78
13.08
9.33
6.59
4.66
3.23
2.03
0.93
-0.14
-1.14
-2.06
-2.96
-3.98
-5.38
-7.55
-10.94
-15.84
-22.20
-29.36
-36.08
-40.78
-41.93
-38.65
-30.99
-20.03
-7.53
4.58
14.73
22.00
26.21
27.62
26.70
23.93
19.71
14.51
8.89
3.50
-1.04
-4.41
-6.64
-8.14
-9.45
-10.95
-12.72
-14.58
-16.30
-17.97
-20.01
-23.07
-27.75
-34.13
-41.59
-48.91
-54.50
-56.98
-55.43
-49.60
-39.86
-27.10
-12.48
2.65
16.94
29.11
38.25
43.98
46.49
46.47
44.89
42.63
40.28
37.92
35.39
32.50
29.25
25.90
22.88
20.50
18.75
17.21
15.28
12.39
8.30
3.05
-3.05
-9.65
-16.29
-22.40
-27.13
-29.41
-28.25
-23.18
-14.53
-3.53
8.07
18.48
26.36
31.10
32.73
31.75
28.84
24.71
20.09
15.57
11.61
8.43
6.02
4.19
2.73
1.47
0.40
-0.44
-1.07
-1.60
-2.36
-3.77
-6.28
-10.16
-15.36
-21.37
-27.21
-31.59
-33.23
-31.24
-25.43
-16.39
-5.36
6.10
16.51
24.75
30.22
32.79
32.73
30.56
26.92
22.51
17.96
13.75
10.23
7.46
5.39
3.79
2.44
1.13
-0.21
-1.59
-2.99
-4.48
-6.25
-8.66
-12.08
-16.77
-22.58
-28.86
-34.51
-38.19
-38.66
-35.24
-27.98
-17.76
-6.04
5.57
15.63
23.17
27.72
29.34
28.43
25.61
21.64
17.23
12.96
9.23
6.25
4.04
2.53
1.58
1.00
0.57
0.10
-0.60
-1.61
-3.03
-4.93
-7.53
-11.13
-15.90
-21.69
-27.79
-32.96
-35.73
-34.85
-29.86
-21.25
-10.39
0.94
11.13
19.10
24.41
27.20
27.82
26.64
23.95
20.06
15.39
10.52
6.11
2.69
0.47
-0.74
-1.39
-2.01
-2.89
-4.05
-5.27
-6.31
-7.21
-8.29
-10.18
-13.47
-18.42
-24.62
-30.97
-35.86
-37.74
-35.60
-29.31
-19.76
-8.44
2.97
13.09
21.01
26.27
28.71
28.45
25.86
21.61
16.62
11.81
7.87
5.02
3.12
1.80
0.73
-0.26
-1.23
-2.13
-2.93
-3.73
-4.65
-5.90
-7.76
-10.55
-14.48
-19.47
-24.97
-30.00
-33.30
-33.67
-30.35
-23.33
-13.31
-1.62
10.14
20.38
27.88
32.05
32.93
31.15
27.63
23.29
18.83
14.56
10.55
6.81
3.47
0.78
-1.03
-1.92
-2.06
-1.94
-2.05
-2.78
-4.27
-6.50
-9.45
-13.13
-17.51
-22.40
-27.21
-30.94
-32.41
-30.65
-25.28
-16.72
-6.10
5.03
15.14
23.06
28.18
30.43
30.15
27.96
24.54
20.53
16.42
12.52
8.98
5.82
3.09
0.82
-0.91
-2.02
-2.55
-2.63
-2.53
-2.66
-3.43
-5.26
-8.41
-12.87
-18.27
-23.78
-28.27
-30.49
-29.51
-24.95
-17.22
-7.39
3.07
12.70
20.35
25.39
27.67
27.41
25.09
21.26
16.51
11.41
6.47
2.08
-1.50
-4.20
-6.08
-7.28
-7.97
-8.30
-8.43
-8.50
-8.70
-9.33
-10.75
-13.33
-17.24
-22.21
-27.46
-31.70
-33.55
-31.93
-26.51
-17.87
-7.35
3.40
12.91
20.17
24.74
26.66
26.25
23.93
20.18
15.53
10.51
5.67
1.45
-1.80
-3.92
-4.96
-5.14
-4.82
-4.41
-4.28
-4.69
-5.76
-7.59
-10.23
-13.74
-17.92
-22.27
-25.82
-27.39
-25.90
-20.86
-12.64
-2.44
8.08
17.29
24.04
27.90
29.04
28.02
25.50
22.02
17.99
13.69
9.43
5.49
2.20
-0.16
-1.50
-1.94
-1.81
-1.56
-1.60
-2.30
-3.87
-6.49
-10.21
-14.92
-20.12
-24.93
-28.10
-28.40
-25.06
-18.09
-8.42
2.38
12.55
20.66
25.99
28.48
28.58
26.87
23.90
20.08
15.72
11.13
6.68
2.75
-0.36
-2.56
-3.96
-4.84
-5.47
-6.08
-6.82
-7.90
-9.58
-12.19
-15.98
-20.81
-26.00
-30.36
-32.54
-31.43
-26.70
-18.84
-9.09
0.99
9.98
16.89
21.29
23.17
22.89
20.97
18.01
14.56
11.05
7.74
4.78
2.24
0.22
-1.15
-1.78
-1.76
-1.42
-1.27
-1.84
-3.59
-6.73
-11.15
-16.44
-21.85
-26.40
-28.97
-28.62
-24.84
-17.81
-8.47
1.80
11.45
19.26
24.52
27.11
27.37
25.85
23.10
19.63
15.83
12.01
8.46
5.45
3.17
1.74
1.12
1.09
1.33
1.40
0.88
-0.59
-3.28
-7.27
-12.41
-18.19
-23.67
-27.59
-28.62
-25.81
-19.00
-9.05
2.34
13.12
21.60
26.84
28.88
28.40
26.36
23.52
20.34
16.98
13.54
10.15
7.01
4.34
2.26
0.84
-0.08
-0.67
-1.17
-1.89
-3.20
-5.49
-9.02
-13.75
-19.29
-24.74
-28.81
-30.12
-27.65
-21.13
-11.25
0.48
12.00
21.47
27.67
30.34
30.08
27.91
24.85
21.55
18.14
14.50
10.55
6.51
2.94
0.42
-0.77
-0.85
-0.60
-0.88
-2.32
-5.03
-8.72
-12.92
-17.27
-21.54
-25.47
-28.50
-29.70
-28.02
-22.79
-14.13
-3.12
8.54
18.98
26.79
31.36
32.84
31.86
29.17
25.45
21.20
16.81
12.64
9.00
6.14
4.13
2.82
1.97
1.29
0.57
-0.31
-1.48
-3.15
-5.67
-9.37
-14.35
-20.19
-25.85
-29.87
-30.80
-27.72
-20.63
-10.51
0.99
12.05
21.21
27.61
31.05
31.79
30.32
27.19
23.00
18.31
13.69
9.62
6.41
4.12
2.64
1.65
0.83
-0.07
-1.16
-2.48
-4.03
-5.95
-8.55
-12.19
-17.07
-22.86
-28.62
-32.91
-34.20
-31.47
-24.64
-14.68
-3.21
7.95
17.40
24.34
28.56
30.23
29.67
27.31
23.69
19.44
15.30
11.82
9.29
7.60
6.43
5.34
4.09
2.63
1.13
-0.26
-1.56
-3.06
-5.27
-8.70
-13.66
-19.94
-26.74
-32.74
-36.45
-36.65
-32.77
-25.09
-14.71
-3.15
7.98
17.38
24.25
28.31
29.71
28.91
26.50
23.11
19.34
15.66
12.40
9.70
7.57
5.94
4.65
3.53
2.41
1.18
-0.23
-1.86
-3.76
-6.03
-8.91
-12.69
-17.53
-23.29
-29.32
-34.45
-37.28
-36.58
-31.78
-23.20
-12.10
-0.24
10.58
18.98
24.31
26.56
26.24
24.05
20.63
16.53
12.19
8.01
4.40
1.68
-0.01
-0.80
-1.16
-1.64
-2.68
-4.37
-6.45
-8.49
-10.19
-11.67
-13.54
-16.60
-21.39
-27.67
-34.28
-39.35
-40.97
-37.88
-30.17
-19.12
-6.77
4.85
14.36
21.26
25.65
27.89
28.10
26.35
22.77
17.88
12.63
8.06
4.93
3.41
3.00
2.88
2.37
1.20
-0.40
-1.93
-3.01
-3.61
-4.20
-5.57
-8.48
-13.27
-19.58
-26.28
-31.76
-34.33
-32.88
-27.20
-18.06
-6.96
4.39
14.55
22.64
28.32
31.61
32.69
31.77
29.14
25.29
20.85
16.56
13.03
10.55
9.03
8.07
7.16
5.90
4.14
1.99
-0.28
-2.46
-4.55
-6.85
-9.87
-14.05
-19.42
-25.35
-30.58
-33.54
-32.92
-28.16
-19.70
-8.82
2.76
13.44
22.12
28.20
31.59
32.43
31.03
27.83
23.41
18.46
13.64
9.48
6.23
3.94
2.41
1.39
0.61
-0.15
-1.06
-2.20
-3.66
-5.56
-8.16
-11.74
-16.54
-22.38
-28.50
-33.59
-36.13
-34.90
-29.54
-20.65
-9.69
1.55
11.52
19.22
24.29
26.81
27.11
25.55
22.54
18.56
14.15
9.89
6.23
3.41
1.42
0.10
-0.83
-1.56
-2.21
-2.82
-3.47
-4.33
-5.63
-7.73
-10.93
-15.38
-20.80
-26.50
-31.33
-33.97
-33.35
-29.01
-21.32
-11.29
-0.32
10.27
19.40
26.38
30.82
32.57
31.76
28.83
24.55
19.84
15.51
12.01
9.40
7.42
5.76
4.21
2.76
1.51
0.47
-0.45
-1.49
-2.97
-5.14
-8.19
-12.20
-17.10
-22.55
-27.90
-32.18
-34.28
-33.28
-28.80
-21.17
-11.35
-0.73
9.32
17.65
23.51
26.61
26.97
25.00
21.28
16.59
11.71
7.30
3.75
1.14
-0.72
-2.10
-3.27
-4.42
-5.58
-6.77
-7.97
-9.26
-10.74
-12.56
-14.93
-18.07
-22.15
-27.12
-32.48
-37.22
-39.98
-39.48
-34.99
-26.74
-15.85
-4.07
6.81
15.47
21.27
24.23
24.83
23.64
21.20
17.96
14.29
10.56
7.15
4.36
2.40
1.25
0.73
0.49
0.20
-0.35
-1.19
-2.23
-3.35
-4.61
-6.33
-9.02
-13.05
-18.31
-24.02
-28.77
-30.92
-29.27
-23.48
-14.31
-3.33
7.66
17.18
24.41
29.19
31.71
32.24
31.00
28.19
24.17
19.53
14.99
11.17
8.36
6.43
5.00
3.65
2.17
0.66
-0.64
-1.54
-2.17
-3.01
-4.73
-7.92
-12.70
-18.55
-24.36
-28.73
-30.37
-28.50
-23.08
-14.73
-4.62
5.88
15.37
22.73
27.30
28.93
28.03
25.38
21.89
18.26
14.84
11.65
8.53
5.44
2.57
0.24
-1.28
-1.97
-2.24
-2.65
-3.74
-5.78
-8.77
-12.49
-16.74
-21.30
-25.94
-30.16
-33.03
-33.37
-30.15
-22.93
-12.29
0.26
12.57
22.64
29.22
32.08
31.91
29.80
26.76
23.40
19.78
15.78
11.34
6.73
2.52
-0.64
-2.39
-2.76
-2.30
-1.80
-1.93
-3.07
-5.22
-8.21
-11.90
-16.22
-21.04
-25.87
-29.77
-31.46
-29.76
-24.17
-15.13
-3.98
7.47
17.51
24.99
29.45
31.03
30.23
27.64
23.86
19.46
14.91
10.63
6.93
4.00
1.88
0.46
-0.47
-1.16
-1.81
-2.60
-3.61
-4.97
-6.86
-9.54
-13.22
-17.86
-22.93
-27.46
-30.18
-29.99
-26.30
-19.27
-9.83
0.66
10.74
19.21
25.27
28.57
29.11
27.21
23.44
18.55
13.36
8.57
4.65
1.77
-0.18
-1.42
-2.17
-2.57
-2.74
-2.76
-2.83
-3.24
-4.37
-6.58
-10.08
-14.81
-20.25
-25.47
-29.25
-30.37
-28.01
-22.06
-13.23
-2.83
7.55
16.52
23.13
26.98
28.13
26.96
23.99
19.79
14.97
10.11
5.71
2.14
-0.42
-2.02
-2.85
-3.19
-3.30
-3.39
-3.65
-4.28
-5.57
-7.84
-11.32
-15.92
-21.07
-25.75
-28.67
-28.71
-25.25
-18.46
-9.17
1.26
11.39
19.96
26.16
29.64
30.51
29.16
26.13
21.94
17.07
11.96
7.00
2.60
-0.85
-3.16
-4.30
-4.52
-4.26
-4.04
-4.31
-5.44
-7.68
-11.17
-15.83
-21.22
-26.51
-30.51
-31.99
-30.07
-24.50
-15.84
-5.31
5.53
15.25
22.81
27.70
29.90
29.74
27.71
24.36
20.16
15.52
10.79
6.33
2.53
-0.27
-1.93
-2.52
-2.48
-2.40
-2.87
-4.30
-6.81
-10.32
-14.60
-19.28
-23.87
-27.59
-29.44
-28.42
-23.92
-16.00
-5.60
5.76
16.22
24.29
29.12
30.68
29.60
26.76
23.00
18.91
14.71
10.49
6.32
2.46
-0.73
-2.89
-3.89
-3.94
-3.60
-3.64
-4.75
-7.36
-11.51
-16.89
-22.79
-28.23
-32.13
-33.44
-31.41
-25.87
-17.28
-6.77
4.22
14.25
22.20
27.40
29.73
29.39
26.91
22.94
18.21
13.45
9.19
5.78
3.27
1.54
0.34
-0.57
-1.38
-2.22
-3.22
-4.57
-6.60
-9.72
-14.21
-19.95
-26.23
-31.74
-34.88
-34.34
-29.57
-21.05
-10.15
1.30
11.60
19.59
24.76
27.12
26.99
24.81
21.10
16.48
11.60
7.10
3.47
0.89
-0.72
-1.68
-2.37
-3.16
-4.21
-5.57
-7.21
-9.19
-11.69
-15.05
-19.53
-24.98
-30.66
-35.23
-37.09
-34.98
-28.45
-18.19
-5.79
6.69
17.42
25.21
29.70
31.18
30.23
27.53
23.66
19.19
14.64
10.55
7.37
5.35
4.43
4.25
4.31
4.15
3.52
2.39
0.85
-1.12
-3.74
-7.36
-12.25
-18.18
-24.26
-28.97
-30.65
-28.11
-21.12
-10.60
1.64
13.55
23.44
30.39
34.31
35.63
34.97
32.85
29.62
25.61
21.20
16.92
13.33
10.80
9.39
8.82
8.53
8.01
6.90
5.13
2.77
-0.18
-3.91
-8.72
-14.72
-21.49
-27.89
-32.26
-32.94
-29.00
-20.61
-9.11
3.46
15.06
24.24
30.40
33.62
34.38
33.19
30.47
26.60
22.01
17.28
13.04
9.79
7.69
6.55
5.90
5.16
3.89
1.87
-0.84
-4.09
-7.77
-11.98
-16.96
-22.81
-29.17
-35.02
-38.81
-38.95
-34.43
-25.40
-13.22
-0.03
12.01
21.35
27.46
30.59
31.42
30.60
28.55
25.56
21.96
18.19
14.77
12.06
10.18
8.91
7.89
6.75
5.33
3.67
1.92
0.19
-1.67
-4.04
-7.50
-12.54
-19.16
-26.65
-33.54
-38.01
-38.46
-34.14
-25.47
-13.94
-1.53
9.93
19.27
26.04
30.28
32.23
32.11
30.14
26.73
22.58
18.57
15.44
13.51
12.55
11.91
10.90
9.16
6.82
4.32
2.12
0.38
-1.12
-2.95
-5.72
-9.88
-15.52
-22.25
-29.24
-35.27
-38.99
-39.22
-35.35
-27.55
-16.74
-4.45
7.69
18.24
26.23
31.23
33.29
32.82
30.42
26.75
22.44
18.09
14.18
11.15
9.27
8.52
8.58
8.77
8.41
7.06
4.75
1.93
-0.80
-3.10
-5.14
-7.60
-11.29
-16.73
-23.73
-31.32
-37.85
-41.58
-41.18
-36.30
-27.59
-16.52
-4.76
6.29
15.81
23.48
29.21
32.72
33.63
31.76
27.47
21.80
16.27
12.26
10.54
10.80
12.03
12.97
12.74
11.17
8.75
6.20
4.09
2.46
0.91
-1.13
-4.12
-8.30
-13.58
-19.69
-26.13
-32.20
-36.93
-39.22
-38.17
-33.42
-25.37
-15.13
-4.14
6.12
14.58
20.64
24.09
24.99
23.57
20.25
15.66
10.64
6.07
2.66
0.75
0.20
0.46
0.81
0.67
-0.24
-1.79
-3.64
-5.43
-7.04
-8.58
-10.39
-12.84
-16.21
-20.60
-25.87
-31.55
-36.83
-40.60
-41.74
-39.40
-33.39
-24.32
-13.51
-2.55
7.11
14.54
19.45
21.98
22.53
21.51
19.34
16.44
13.29
10.43
8.29
7.10
6.76
6.88
6.99
6.63
5.59
3.92
1.89
-0.16
-2.00
-3.64
-5.38
-7.76
-11.26
-16.08
-21.76
-27.21
-30.92
-31.49
-28.13
-21.06
-11.37
-0.68
9.40
17.75
23.84
27.65
29.34
29.16
27.31
24.09
20.05
15.87
12.27
9.66
8.11
7.27
6.64
5.80
4.65
3.36
2.18
1.24
0.38
-0.82
-2.86
-6.13
-10.67
-16.04
-21.40
-25.60
-27.51
-26.35
-21.88
-14.59
-5.48
4.21
13.24
20.73
26.13
29.24
30.13
29.03
26.36
22.59
18.20
13.59
9.08
4.85
1.12
-1.90
-4.03
-5.22
-5.67
-5.78
-6.01
-6.67
-7.91
-9.74
-12.22
-15.42
-19.40
-23.87
-28.11
-30.97
-31.25
-28.15
-21.66
-12.56
-2.35
7.38
15.33
20.75
23.56
24.11
22.98
20.80
18.02
14.93
11.73
8.57
5.58
2.92
0.71
-1.04
-2.48
-3.79
-5.09
-6.47
-7.87
-9.25
-10.67
-12.42
-15.00
-18.80
-23.80
-29.26
-33.81
-35.82
-34.03
-28.14
-19.00
-8.28
2.15
10.87
17.20
21.17
23.15
23.51
22.44
20.07
16.62
12.55
8.46
4.94
2.36
0.78
-0.07
-0.61
-1.22
-2.13
-3.32
-4.64
-5.91
-7.08
-8.43
-10.42
-13.52
-17.88
-23.05
-28.01
-31.36
-31.82
-28.69
-22.14
-13.11
-3.00
6.79
15.14
21.40
25.33
26.98
26.58
24.47
21.12
17.09
12.95
9.20
6.16
3.92
2.38
1.26
0.29
-0.77
-2.00
-3.36
-4.74
-6.11
-7.56
-9.41
-12.11
-15.96
-20.96
-26.54
-31.56
-34.69
-34.74
-31.13
-24.11
-14.65
-4.13
6.05
14.84
21.62
26.14
28.41
28.51
26.61
23.03
18.31
13.20
8.51
4.86
2.47
1.08
0.11
-0.99
-2.52
-4.33
-6.02
-7.23
-7.96
-8.59
-9.83
-12.36
-16.51
-22.02
-28.04
-33.30
-36.48
-36.56
-33.10
-26.37
-17.19
-6.72
3.88
13.57
21.62
27.47
30.82
31.55
29.86
26.26
21.50
16.37
11.54
7.37
3.93
1.12
-1.19
-3.06
-4.48
-5.43
-5.96
-6.25
-6.61
-7.46
-9.16
-12.01
-16.14
-21.38
-27.19
-32.69
-36.69
-38.03
-35.88
-30.02
-21.00
-9.95
1.67
12.44
21.26
27.51
31.03
31.98
30.75
27.85
23.84
19.26
14.58
10.20
6.37
3.28
0.94
-0.70
-1.83
-2.74
-3.70
-4.93
-6.45
-8.12
-9.83
-11.66
-13.97
-17.27
-21.92
-27.64
-33.40
-37.57
-38.53
-35.27
-27.87
-17.46
-5.79
5.38
14.83
22.00
26.87
29.57
30.22
28.82
25.49
20.63
14.94
9.32
4.56
1.08
-1.15
-2.52
-3.49
-4.42
-5.40
-6.32
-7.00
-7.44
-7.86
-8.74
-10.64
-14.00
-18.87
-24.73
-30.51
-34.82
-36.34
-34.25
-28.50
-19.79
-9.31
1.61
11.81
20.46
27.06
31.33
33.15
32.56
29.83
25.48
20.28
15.04
10.42
6.83
4.32
2.64
1.45
0.48
-0.41
-1.22
-1.93
-2.59
-3.39
-4.60
-6.52
-9.38
-13.28
-18.03
-23.16
-27.75
-30.65
-30.70
-27.12
-19.84
-9.65
1.96
13.26
22.78
29.66
33.75
35.45
35.27
33.72
31.04
27.39
22.95
18.09
13.31
9.22
6.18
4.24
3.11
2.31
1.42
0.31
-0.95
-2.22
-3.63
-5.61
-8.80
-13.57
-19.60
-25.74
-30.30
-31.63
-28.82
-22.04
-12.42
-1.53
9.18
18.77
26.76
32.94
36.93
38.34
36.89
32.79
26.85
20.31
14.34
9.68
6.30
3.71
1.33
-1.10
-3.39
-5.12
-6.03
-6.21
-6.35
-7.29
-9.77
-14.04
-19.69
-25.76
-30.89
-33.72
-33.23
-29.01
-21.31
-11.02
0.59
12.15
22.46
30.68
36.25
38.98
38.91
36.34
31.81
26.07
19.95
14.22
9.40
5.70
3.07
1.24
-0.03
-0.95
-1.60
-2.03
-2.38
-2.96
-4.32
-7.06
-11.56
-17.67
-24.49
-30.47
-33.82
-33.10
-27.79
-18.44
-6.54
6.02
17.55
26.91
33.61
37.60
39.00
37.97
34.71
29.62
23.35
16.80
10.80
5.94
2.36
-0.21
-2.24
-4.12
-5.97
-7.64
-8.93
-9.80
-10.56
-11.84
-14.35
-18.52
-24.17
-30.37
-35.60
-38.17
-36.82
-31.06
-21.43
-9.28
3.64
15.63
25.42
32.28
35.98
36.69
34.78
30.84
25.57
19.76
14.09
9.13
5.16
2.19
0.04
-1.56
-2.82
-3.81
-4.52
-4.92
-5.12
-5.47
-6.56
-9.02
-13.30
-19.21
-25.84
-31.61
-34.77
-33.92
-28.56
-19.20
-7.19
5.81
18.23
28.90
37.02
42.10
43.94
42.66
38.77
33.19
26.97
21.06
16.01
11.95
8.67
5.91
3.53
1.52
-0.03
-1.15
-2.01
-3.01
-4.59
-7.18
-11.05
-16.18
-22.27
-28.61
-34.14
-37.64
-37.96
-34.34
-26.75
-15.89
-3.25
9.44
20.50
28.75
33.69
35.45
34.55
31.69
27.44
22.29
16.66
10.96
5.71
1.37
-1.76
-3.66
-4.67
-5.21
-5.70
-6.39
-7.33
-8.52
-10.03
-12.12
-15.26
-19.79
-25.60
-31.91
-37.26
-39.89
-38.43
-32.35
-22.37
-10.11
2.48
13.71
22.64
29.02
33.01
34.83
34.53
32.16
27.93
22.41
16.47
11.02
6.73
3.86
2.14
1.07
0.17
-0.86
-2.00
-3.11
-4.10
-5.10
-6.54
-8.99
-12.93
-18.38
-24.69
-30.59
-34.47
-34.82
-30.84
-22.71
-11.53
0.94
12.90
22.93
30.29
34.87
36.89
36.74
34.77
31.34
26.85
21.81
16.78
12.26
8.55
5.73
3.66
2.03
0.59
-0.84
-2.32
-3.84
-5.51
-7.57
-10.48
-14.66
-20.18
-26.47
-32.30
-36.04
-36.15
-31.85
-23.38
-11.98
0.50
12.15
21.53
27.92
31.26
31.93
30.53
27.62
23.66
19.03
14.09
9.26
4.89
1.28
-1.49
-3.51
-5.01
-6.24
-7.36
-8.45
-9.58
-10.97
-13.00
-16.13
-20.64
-26.27
-32.07
-36.50
-37.92
-35.15
-27.96
-17.25
-4.66
7.90
18.85
27.29
32.92
35.85
36.35
34.68
31.21
26.42
20.96
15.55
10.82
7.11
4.45
2.56
1.09
-0.26
-1.63
-2.94
-4.09
-5.11
-6.34
-8.38
-11.85
-16.99
-23.29
-29.40
-33.50
-33.88
-29.69
-21.24
-9.91
2.35
13.73
22.96
29.46
33.22
34.48
33.53
30.73
26.51
21.41
16.06
11.05
6.72
3.20
0.35
-2.08
-4.36
-6.60
-8.76
-10.70
-12.33
-13.76
-15.39
-17.90
-21.85
-27.36
-33.76
-39.63
-43.15
-42.69
-37.46
-27.80
-15.13
-1.43
11.34
21.74
29.04
33.11
34.25
32.90
29.60
24.95
19.61
14.23
9.32
5.14
1.64
-1.43
-4.35
-7.26
-10.08
-12.57
-14.59
-16.22
-17.92
-20.38
-24.21
-29.65
-36.15
-42.43
-46.70
-47.29
-43.21
-34.56
-22.51
-8.86
4.51
16.15
25.27
31.55
35.05
35.96
34.68
31.81
28.13
24.39
21.05
18.21
15.58
12.76
9.50
5.84
2.10
-1.37
-4.32
-6.77
-9.05
-11.64
-15.11
-19.85
-25.85
-32.46
-38.43
-42.10
-41.95
-37.10
-27.70
-14.94
-0.73
12.86
24.10
31.98
36.27
37.32
35.88
32.79
28.86
24.67
20.53
16.54
12.59
8.54
4.33
0.06
-4.06
-7.78
-11.01
-13.83
-16.58
-19.72
-23.78
-29.12
-35.84
-43.59
-51.42
-57.88
-61.18
-59.76
-52.78
-40.54
-24.57
-7.09
9.57
23.70
34.54
42.17
47.17
50.19
51.64
51.73
50.54
48.23
45.07
41.41
37.54
33.68
29.85
26.00
22.05
18.00
13.93
9.96
6.12
2.18
-2.44
-8.33
-15.73
-24.03
-31.69
-36.54
-36.62
-31.00
-20.34
-6.66
7.47
19.83
29.25
35.67
39.65
41.75
42.12
40.59
37.07
31.90
25.93
20.27
15.77
12.71
10.59
8.59
6.00
2.62
-1.15
-4.63
-7.29
-9.14
-10.83
-13.42
-17.79
-24.17
-31.90
-39.45
-44.92
-46.56
-43.41
-35.55
-24.08
-10.71
2.70
14.65
24.24
31.16
35.46
37.29
36.83
34.32
30.24
25.32
20.53
16.75
14.38
13.21
12.49
11.26
8.83
5.14
0.71
-3.62
-7.12
-9.58
-11.36
-13.27
-16.26
-20.97
-27.46
-35.02
-42.20
-47.19
-48.28
-44.46
-35.76
-23.33
-9.05
5.10
17.55
27.47
34.60
39.04
40.94
40.40
37.68
33.34
28.22
23.32
19.42
16.84
15.31
14.21
12.83
10.75
7.98
4.85
1.84
-0.75
-2.93
-5.00
-7.44
-10.71
-15.13
-20.84
-27.69
-35.18
-42.36
-47.89
-50.30
-48.42
-41.88
-31.30
-18.21
-4.52
8.04
18.32
25.86
30.73
33.17
33.46
31.87
28.79
24.78
20.55
16.79
14.02
12.38
11.64
11.29
10.73
9.49
7.43
4.73
1.80
-0.93
-3.23
-5.23
-7.30
-10.06
-14.06
-19.58
-26.35
-33.54
-39.77
-43.48
-43.36
-38.78
-30.06
-18.36
-5.32
7.46
18.78
27.94
34.64
38.76
40.24
39.17
35.94
31.21
25.90
20.84
16.61
13.36
10.85
8.62
6.29
3.61
0.61
-2.51
-5.50
-8.09
-10.15
-11.74
-13.12
-14.85
-17.56
-21.78
-27.61
-34.50
-41.23
-46.22
-47.93
-45.47
-38.84
-28.92
-17.10
-4.84
6.71
16.81
25.06
31.13
34.74
35.70
34.09
30.40
25.49
20.32
15.76
12.14
9.36
6.98
4.52
1.71
-1.34
-4.30
-6.76
-8.60
-10.00
-11.36
-13.15
-15.68
-19.08
-23.37
-28.42
-34.00
-39.55
-44.10
-46.41
-45.25
-39.97
-30.76
-18.66
-5.34
7.55
18.73
27.48
33.55
36.93
37.72
36.16
32.70
28.02
22.97
18.36
14.72
12.22
10.62
9.55
8.56
7.38
5.92
4.28
2.63
1.13
-0.22
-1.59
-3.37
-6.05
-10.05
-15.49
-21.93
-28.32
-33.20
-35.04
-32.88
-26.56
-16.89
-5.34
6.47
17.13
25.75
31.93
35.60
36.82
35.78
32.74
28.15
22.64
16.92
11.63
7.20
3.70
0.91
-1.55
-4.01
-6.56
-9.03
-11.11
-12.56
-13.45
-14.20
-15.48
-17.98
-22.12
-27.83
-34.44
-40.74
-45.25
-46.61
-44.02
-37.43
-27.61
-15.87
-3.63
7.88
17.87
25.87
31.62
34.91
35.65
33.95
30.27
25.39
20.21
15.49
11.65
8.66
6.18
3.80
1.27
-1.35
-3.78
-5.68
-6.95
-7.76
-8.61
-10.09
-12.65
-16.52
-21.61
-27.51
-33.52
-38.65
-41.72
-41.63
-37.66
-29.81
-18.90
-6.38
6.14
17.31
26.35
32.99
37.26
39.19
38.77
36.01
31.19
25.02
18.46
12.53
7.95
4.88
2.98
1.61
0.16
-1.65
-3.68
-5.56
-6.89
-7.58
-7.91
-8.47
-9.98
-13.02
-17.78
-23.93
-30.54
-36.27
-39.67
-39.60
-35.56
-27.89
-17.59
-6.05
5.47
15.97
24.82
31.60
35.95
37.64
36.57
33.04
27.73
21.62
15.71
10.77
7.12
4.67
3.00
1.61
0.17
-1.42
-3.03
-4.44
-5.51
-6.36
-7.30
-8.77
-11.13
-14.60
-19.17
-24.58
-30.27
-35.38
-38.82
-39.44
-36.42
-29.58
-19.46
-7.30
5.35
17.05
26.74
33.86
38.29
40.08
39.42
36.57
31.93
26.12
19.92
14.15
9.45
6.09
3.93
2.46
1.08
-0.61
-2.71
-5.02
-7.19
-8.95
-10.28
-11.45
-12.94
-15.26
-18.80
-23.63
-29.38
-35.18
-39.82
-42.00
-40.68
-35.45
-26.67
-15.36
-2.93
9.25
20.06
28.77
34.94
38.36
38.95
36.92
32.76
27.26
21.32
15.75
11.01
7.21
4.15
1.55
-0.80
-2.89
-4.66
-6.01
-6.96
-7.59
-8.13
-8.83
-10.09
-12.31
-15.86
-20.91
-27.11
-33.56
-38.91
-41.69
-40.91
-36.29
-28.35
-18.15
-6.91
4.34
14.82
23.91
31.06
35.76
37.65
36.74
33.46
28.57
23.02
17.67
12.97
9.03
5.68
2.63
-0.29
-2.97
-5.19
-6.68
-7.51
-8.03
-8.77
-10.18
-12.39
-15.23
-18.48
-22.03
-26.02
-30.53
-35.19
-38.94
-40.27
-37.80
-30.94
-20.32
-7.66
4.91
15.57
23.43
28.49
31.26
32.30
31.88
29.90
26.28
21.23
15.41
9.80
5.28
2.28
0.69
-0.14
-0.91
-2.06
-3.58
-5.14
-6.31
-6.93
-7.22
-7.76
-9.26
-12.24
-16.77
-22.38
-28.08
-32.57
-34.51
-32.96
-27.60
-18.92
-8.05
3.55
14.45
23.63
30.55
35.09
37.36
37.56
35.90
32.65
28.19
23.00
17.65
12.68
8.46
5.10
2.51
0.42
-1.42
-3.13
-4.70
-6.02
-7.09
-8.06
-9.37
-11.60
-15.20
-20.25
-26.13
-31.64
-35.24
-35.62
-32.08
-24.81
-14.82
-3.50
7.70
17.71
25.83
31.71
35.21
36.27
35.00
31.72
27.01
21.61
16.28
11.55
7.68
4.59
2.01
-0.33
-2.56
-4.61
-6.28
-7.45
-8.17
-8.79
-9.86
-11.96
-15.46
-20.34
-26.01
-31.44
-35.36
-36.53
-34.17
-28.14
-19.05
-8.04
3.46
14.10
22.86
29.15
32.72
33.65
32.20
28.83
24.15
18.84
13.57
8.82
4.87
1.74
-0.70
-2.63
-4.16
-5.32
-6.09
-6.53
-6.77
-7.07
-7.71
-9.04
-11.37
-14.94
-19.71
-25.22
-30.47
-34.08
-34.61
-31.11
-23.55
-12.89
-0.75
11.09
21.31
29.23
34.71
37.87
38.82
37.59
34.37
29.61
24.13
18.82
14.45
11.25
9.01
7.21
5.34
3.20
0.99
-0.93
-2.23
-2.95
-3.55
-4.73
-7.15
-11.18
-16.63
-22.80
-28.60
-32.87
-34.57
-33.02
-28.04
-19.97
-9.60
1.94
13.38
23.44
31.10
35.69
37.03
35.48
31.75
26.79
21.52
16.58
12.31
8.81
6.01
3.85
2.31
1.29
0.70
0.28
-0.25
-1.12
-2.44
-4.21
-6.39
-9.09
-12.52
-16.95
-22.32
-28.09
-33.08
-35.80
-34.90
-29.76
-20.72
-9.01
3.64
15.57
25.50
32.74
37.04
38.43
37.22
33.83
28.88
23.14
17.32
12.00
7.53
4.00
1.34
-0.64
-2.11
-3.23
-4.15
-4.97
-5.83
-6.90
-8.36
-10.44
-13.38
-17.38
-22.45
-28.21
-33.82
-38.01
-39.43
-37.06
-30.70
-21.07
-9.63
1.91
12.12
20.15
25.78
29.11
30.35
29.64
27.14
23.13
18.15
12.89
8.05
4.13
1.25
-0.76
-2.30
-3.71
-5.19
-6.68
-8.00
-9.02
-9.80
-10.72
-12.33
-15.14
-19.36
-24.68
-30.20
-34.63
-36.63
-35.26
-30.24
-22.10
-11.94
-1.10
9.22
18.20
25.37
30.52
33.48
34.21
32.82
29.69
25.51
21.08
17.01
13.58
10.73
8.22
5.84
3.60
1.70
0.37
-0.30
-0.47
-0.53
-1.03
-2.52
-5.40
-9.73
-15.14
-20.76
-25.31
-27.46
-26.17
-21.07
-12.65
-2.12
8.94
19.01
26.98
32.28
34.89
35.09
33.38
30.27
26.25
21.77
17.19
12.78
8.69
4.98
1.69
-1.16
-3.53
-5.41
-6.85
-7.98
-9.09
-10.55
-12.76
-16.00
-20.34
-25.45
-30.56
-34.52
-36.06
-34.18
-28.42
-19.17
-7.55
4.86
16.43
25.85
32.35
35.68
36.09
34.11
30.47
25.89
21.02
16.27
11.83
7.74
4.01
0.76
-1.84
-3.58
-4.45
-4.65
-4.60
-4.81
-5.80
-7.95
-11.44
-16.16
-21.59
-26.79
-30.51
-31.45
-28.72
-22.13
-12.34
-0.73
10.97
21.17
28.80
33.36
34.96
34.05
31.21
27.07
22.18
17.02
12.01
7.51
3.76
0.91
-1.07
-2.33
-3.13
-3.73
-4.37
-5.25
-6.51
-8.35
-11.00
-14.67
-19.39
-24.77
-29.96
-33.64
-34.47
-31.49
-24.54
-14.41
-2.64
8.98
18.89
26.12
30.39
31.89
31.09
28.52
24.67
20.08
15.32
10.97
7.50
5.15
3.84
3.23
2.86
2.31
1.39
0.07
-1.51
-3.24
-5.15
-7.56
-10.93
-15.63
-21.60
-28.11
-33.72
-36.76
-35.83
-30.40
-21.05
-9.30
3.00
14.14
23.02
29.08
32.21
32.57
30.48
26.52
21.51
16.36
11.87
8.36
5.66
3.35
1.02
-1.37
-3.51
-4.99
-5.57
-5.53
-5.44
-5.98
-7.58
-10.33
-14.03
-18.40
-23.11
-27.78
-31.72
-33.92
-33.24
-28.84
-20.60
-9.39
3.14
14.89
24.06
29.62
31.47
30.34
27.35
23.58
19.77
16.13
12.57
8.96
5.32
1.93
-0.86
-2.81
-3.96
-4.63
-5.26
-6.17
-7.42
-8.91
-10.58
-12.55
-15.17
-18.81
-23.45
-28.48
-32.65
-34.50
-32.85
-27.30
-18.38
-7.42
3.92
14.13
22.16
27.46
30.01
30.03
28.02
24.52
20.18
15.59
11.28
7.58
4.65
2.48
0.94
-0.13
-0.93
-1.65
-2.45
-3.48
-4.82
-6.55
-8.77
-11.65
-15.35
-19.91
-25.01
-29.82
-33.10
-33.56
-30.28
-23.13
-12.94
-1.23
10.24
19.96
26.98
31.06
32.43
31.63
29.24
25.77
21.63
17.18
12.76
8.71
5.33
2.81
1.18
0.25
-0.28
-0.77
-1.48
-2.57
-4.09
-6.16
-8.97
-12.77
-17.62
-23.12
-28.32
-31.86
-32.32
-28.85
-21.49
-11.28
0.07
10.76
19.43
25.47
28.91
30.17
29.70
27.85
24.87
20.98
16.51
11.88
7.53
3.77
0.79
-1.41
-2.98
-4.12
-5.01
-5.84
-6.74
-7.89
-9.58
-12.19
-16.10
-21.36
-27.48
-33.24
-36.97
-37.06
-32.60
-23.82
-12.06
0.64
12.29
21.46
27.59
30.82
31.68
30.67
28.22
24.60
20.18
15.46
11.02
7.36
4.67
2.80
1.36
-0.08
-1.75
-3.55
-5.26
-6.75
-8.15
-9.94
-12.72
-16.86
-22.24
-28.14
-33.31
-36.40
-36.30
-32.52
-25.28
-15.46
-4.37
6.60
16.30
23.87
28.84
31.12
30.87
28.54
24.76
20.28
15.86
11.96
8.75
6.13
3.88
1.87
0.16
-1.16
-2.01
-2.60
-3.32
-4.62
-6.87
-10.19
-14.50
-19.53
-24.85
-29.84
-33.59
-35.05
-33.25
-27.68
-18.58
-7.05
5.28
16.59
25.43
31.00
33.25
32.69
30.14
26.40
22.13
17.76
13.53
9.61
6.12
3.18
0.87
-0.86
-2.04
-2.86
-3.46
-4.03
-4.77
-5.89
-7.71
-10.53
-14.51
-19.49
-24.83
-29.44
-31.98
-31.33
-26.89
-18.91
-8.42
3.10
14.06
23.20
29.76
33.47
34.43
32.99
29.68
25.12
20.00
14.91
10.33
6.50
3.47
1.14
-0.63
-1.92
-2.80
-3.34
-3.70
-4.12
-4.98
-6.67
-9.53
-13.75
-19.18
-25.28
-31.04
-35.15
-36.37
-33.85
-27.43
-17.71
-5.95
6.34
17.68
26.91
33.31
36.58
36.86
34.60
30.49
25.39
20.09
15.17
10.94
7.44
4.55
2.13
0.08
-1.63
-3.00
-4.09
-5.02
-6.01
-7.27
-9.10
-11.80
-15.60
-20.55
-26.28
-31.91
-36.09
-37.35
-34.65
-27.76
-17.47
-5.38
6.62
16.93
24.58
29.35
31.47
31.37
29.44
26.00
21.42
16.23
11.05
6.49
2.92
0.39
-1.40
-2.88
-4.41
-6.08
-7.73
-9.12
-10.12
-10.92
-12.04
-14.21
-17.98
-23.44
-29.98
-36.31
-40.74
-41.75
-38.46
-30.95
-20.22
-7.88
4.37
15.17
23.69
29.54
32.65
33.10
31.15
27.24
22.06
16.46
11.26
7.01
3.89
1.71
0.07
-1.42
-2.95
-4.48
-5.83
-6.84
-7.52
-8.17
-9.32
-11.58
-15.36
-20.57
-26.54
-32.03
-35.56
-35.82
-32.17
-24.77
-14.59
-3.04
8.39
18.49
26.44
31.81
34.45
34.47
32.17
28.09
22.97
17.58
12.61
8.45
5.19
2.69
0.69
-0.96
-2.26
-3.15
-3.61
-3.81
-4.14
-5.19
-7.46
-11.25
-16.42
-22.45
-28.36
-32.98
-35.12
-33.78
-28.56
-19.71
-8.27
4.21
16.03
25.74
32.47
36.02
36.74
35.24
32.18
28.09
23.39
18.42
13.57
9.19
5.59
2.92
1.10
-0.15
-1.18
-2.29
-3.65
-5.33
-7.35
-9.91
-13.30
-17.78
-23.31
-29.31
-34.60
-37.67
-37.16
-32.40
-23.66
-12.12
0.55
12.66
22.90
30.48
35.11
36.81
35.84
32.65
27.86
22.21
16.45
11.18
6.74
3.29
0.75
-1.03
-2.27
-3.20
-4.08
-5.08
-6.29
-7.83
-9.85
-12.66
-16.60
-21.80
-27.78
-33.42
-37.05
-37.14
-32.80
-24.23
-12.66
0.12
12.35
22.76
30.65
35.73
37.91
37.29
34.19
29.31
23.69
18.38
14.13
11.08
8.84
6.80
4.51
1.98
-0.36
-2.02
-2.79
-3.08
-3.68
-5.49
-9.05
-14.30
-20.56
-26.84
-31.99
-35.15
-35.60
-32.94
-27.01
-18.03
-6.67
5.91
18.21
28.69
36.10
39.84
40.00
37.27
32.68
27.26
21.91
17.14
13.16
9.98
7.47
5.45
3.77
2.33
1.06
-0.08
-1.13
-2.17
-3.35
-4.94
-7.35
-10.98
-16.08
-22.39
-29.09
-34.76
-37.76
-36.80
-31.42
-22.14
-10.32
2.33
14.25
24.33
31.96
36.83
38.86
38.10
34.85
29.80
23.89
18.16
13.42
10.03
7.87
6.50
5.44
4.33
3.08
1.76
0.49
-0.73
-2.04
-3.72
-6.12
-9.51
-14.09
-19.80
-26.24
-32.61
-37.69
-40.15
-38.86
-33.29
-23.79
-11.54
1.74
14.28
24.69
32.21
36.64
38.18
37.19
34.09
29.34
23.55
17.47
11.91
7.53
4.65
3.15
2.53
2.19
1.65
0.69
-0.56
-1.88
-3.08
-4.23
-5.71
-8.03
-11.72
-16.94
-23.38
-30.07
-35.62
-38.54
-37.67
-32.55
-23.66
-12.19
0.26
12.15
22.32
30.09
35.18
37.52
37.19
34.38
29.58
23.60
17.43
12.02
7.97
5.34
3.76
2.63
1.46
0.06
-1.43
-2.74
-3.73
-4.52
-5.53
-7.25
-10.14
-14.31
-19.62
-25.53
-31.27
-35.83
-38.10
-37.13
-32.35
-23.86
-12.55
0.08
12.33
22.69
30.29
34.88
36.69
36.13
33.53
29.20
23.51
17.10
10.83
5.64
2.14
0.48
0.20
0.49
0.60
0.07
-1.10
-2.56
-3.94
-5.12
-6.42
-8.49
-12.01
-17.27
-23.90
-30.81
-36.44
-39.23
-38.25
-33.36
-25.22
-14.97
-3.82
7.21
17.36
25.99
32.41
35.96
36.23
33.33
28.02
21.51
15.15
9.92
6.16
3.68
1.93
0.45
-1.01
-2.42
-3.66
-4.62
-5.38
-6.14
-7.18
-8.79
-11.27
-14.82
-19.55
-25.22
-31.21
-36.48
-39.81
-40.07
-36.67
-29.68
-19.88
-8.51
3.04
13.51
21.98
27.89
31.03
31.45
29.44
25.55
20.46
14.94
9.72
5.26
1.76
-0.86
-2.84
-4.40
-5.67
-6.69
-7.47
-8.05
-8.57
-9.22
-10.25
-11.98
-14.73
-18.75
-24.00
-29.94
-35.44
-39.06
-39.43
-35.77
-28.25
-17.88
-6.19
5.31
15.48
23.64
29.50
32.98
34.06
32.87
29.75
25.30
20.31
15.50
11.39
8.15
5.73
3.92
2.55
1.45
0.55
-0.27
-1.16
-2.23
-3.63
-5.48
-7.96
-11.29
-15.64
-20.90
-26.45
-31.17
-33.62
-32.60
-27.56
-18.89
-7.81
4.05
15.14
24.35
31.13
35.36
37.12
36.63
34.16
30.15
25.18
19.93
15.05
10.95
7.77
5.37
3.46
1.79
0.20
-1.28
-2.55
-3.59
-4.55
-5.85
-8.03
-11.55
-16.51
-22.42
-28.21
-32.48
-33.93
-31.76
-25.91
-17.07
-6.42
4.72
15.16
23.96
30.50
34.41
35.60
34.25
30.86
26.16
20.99
16.05
11.79
8.32
5.47
2.99
0.70
-1.42
-3.22
-4.59
-5.54
-6.28
-7.25
-8.98
-11.92
-16.30
-21.91
-28.06
-33.63
-37.29
-37.84
-34.63
-27.73
-17.94
-6.56
4.96
15.35
23.68
29.39
32.24
32.32
30.01
26.02
21.20
16.39
12.23
8.95
6.48
4.50
2.70
0.94
-0.74
-2.19
-3.30
-4.11
-4.86
-5.93
-7.77
-10.74
-15.04
-20.55
-26.74
-32.59
-36.72
-37.77
-34.74
-27.52
-16.97
-4.68
7.46
17.86
25.55
30.28
32.31
32.11
30.14
26.83
22.61
17.96
13.41
9.45
6.38
4.22
2.78
1.70
0.66
-0.50
-1.79
-3.08
-4.26
-5.40
-6.84
-9.09
-12.69
-17.78
-23.95
-30.11
-34.72
-36.33
-33.99
-27.65
-18.13
-6.85
4.67
15.17
23.84
30.27
34.29
35.86
35.01
31.99
27.36
21.96
16.67
12.21
8.90
6.64
5.05
3.74
2.49
1.31
0.30
-0.50
-1.20
-2.15
-3.75
-6.34
-10.14
-15.10
-20.96
-27.06
-32.43
-35.87
-36.20
-32.69
-25.30
-14.83
-2.79
9.13
19.41
27.10
31.90
34.00
33.83
31.87
28.40
23.73
18.28
12.65
7.62
3.91
1.87
1.32
1.50
1.52
0.72
-0.99
-3.14
-4.98
-6.06
-6.52
-7.23
-9.36
-13.73
-20.27
-27.80
-34.34
-37.87
-36.97
-31.48
-22.37
-11.32
-0.03
10.25
18.89
25.68
30.54
33.22
33.46
31.18
26.78
21.13
15.36
10.44
6.89
4.62
3.16
1.94
0.60
-0.89
-2.32
-3.42
-4.07
-4.44
-4.96
-6.18
-8.60
-12.49
-17.76
-23.88
-29.89
-34.55
-36.65
-35.29
-30.24
-22.01
-11.79
-1.01
8.97
17.22
23.28
27.07
28.62
28.06
25.57
21.57
16.73
11.91
7.81
4.80
2.78
1.32
-0.08
-1.69
-3.45
-5.05
-6.22
-6.95
-7.51
-8.39
-10.09
-12.93
-16.97
-21.94
-27.32
-32.31
-35.90
-37.06
-35.01
-29.48
-20.93
-10.44
0.55
10.65
18.85
24.67
28.03
29.11
28.19
25.64
21.94
17.64
13.31
9.41
6.17
3.57
1.45
-0.36
-1.98
-3.40
-4.54
-5.32
-5.80
-6.18
-6.81
-8.12
-10.50
-14.16
-18.95
-24.30
-29.19
-32.41
-32.80
-29.69
-23.04
-13.55
-2.53
8.50
18.14
25.37
29.79
31.49
30.92
28.68
25.33
21.29
16.93
12.57
8.53
5.14
2.58
0.83
-0.29
-1.06
-1.72
-2.34
-2.93
-3.49
-4.20
-5.43
-7.70
-11.38
-16.42
-22.17
-27.37
-30.49
-30.23
-26.00
-18.17
-7.94
3.08
13.36
21.88
28.13
32.07
33.80
33.46
31.20
27.37
22.54
17.47
12.76
8.77
5.45
2.54
-0.21
-2.85
-5.23
-7.13
-8.54
-9.73
-11.21
-13.50
-16.98
-21.69
-27.26
-32.98
-37.86
-40.82
-40.84
-37.27
-30.03
-19.78
-7.74
4.51
15.40
23.76
29.01
31.19
30.85
28.76
25.68
22.17
18.43
14.50
10.41
6.32
2.56
-0.46
-2.46
-3.44
-3.74
-3.86
-4.31
-5.43
-7.40
-10.29
-14.18
-19.03
-24.60
-30.21
-34.71
-36.76
-35.20
-29.57
-20.30
-8.65
3.69
15.03
24.11
30.26
33.36
33.73
31.93
28.65
24.54
20.18
15.96
12.12
8.77
5.99
3.83
2.33
1.41
0.87
0.39
-0.36
-1.63
-3.51
-6.07
-9.36
-13.46
-18.35
-23.68
-28.63
-31.98
-32.44
-29.09
-21.83
-11.48
0.43
12.11
22.06
29.32
33.58
35.00
34.01
31.13
26.91
21.92
16.80
12.15
8.39
5.73
4.06
3.05
2.34
1.63
0.78
-0.23
-1.36
-2.67
-4.32
-6.62
-9.94
-14.50
-20.21
-26.40
-31.94
-35.38
-35.43
-31.40
-23.44
-12.64
-0.59
11.04
20.89
28.17
32.63
34.38
33.70
31.02
26.82
21.74
16.48
11.74
8.06
5.59
4.15
3.23
2.29
0.97
-0.77
-2.67
-4.37
-5.68
-6.78
-8.18
-10.58
-14.54
-20.09
-26.57
-32.68
-36.76
-37.40
-33.84
-26.30
-15.92
-4.31
6.88
16.40
23.56
28.11
30.05
29.58
26.98
22.75
17.59
12.30
7.55
3.72
0.82
-1.36
-3.17
-4.80
-6.25
-7.41
-8.12
-8.43
-8.59
-9.08
-10.48
-13.28
-17.65
-23.25
-29.17
-34.10
-36.65
-35.72
-30.91
-22.60
-11.88
-0.10
11.39
21.52
29.54
35.00
37.68
37.56
34.94
30.48
25.06
19.57
14.68
10.67
7.43
4.73
2.32
0.19
-1.53
-2.69
-3.32
-3.70
-4.29
-5.61
-8.02
-11.63
-16.28
-21.54
-26.76
-31.09
-33.55
-33.24
-29.58
-22.53
-12.80
-1.66
9.36
18.84
25.84
30.01
31.52
30.84
28.55
25.22
21.31
17.17
13.09
9.28
5.92
3.16
1.02
-0.56
-1.75
-2.81
-3.93
-5.28
-6.99
-9.27
-12.38
-16.54
-21.65
-27.03
-31.50
-33.58
-32.04
-26.44
-17.37
-6.24
5.15
15.18
22.82
27.70
29.98
30.03
28.32
25.22
21.10
16.32
11.31
6.52
2.39
-0.76
-2.85
-4.07
-4.77
-5.37
-6.22
-7.44
-9.00
-10.93
-13.37
-16.57
-20.72
-25.55
-30.17
-33.17
-33.06
-28.90
-20.77
-9.76
2.34
13.72
23.07
29.81
33.92
35.64
35.19
32.77
28.66
23.39
17.68
12.30
7.81
4.36
1.75
-0.39
-2.44
-4.56
-6.72
-8.80
-10.77
-12.91
-15.73
-19.74
-25.12
-31.42
-37.44
-41.50
-41.98
-38.03
-29.83
-18.57
-5.97
6.32
17.15
25.92
32.37
36.25
37.31
35.51
31.24
25.45
19.39
14.12
10.16
7.28
4.81
2.11
-1.08
-4.45
-7.48
-9.76
-11.32
-12.71
-14.79
-18.34
-23.70
-30.54
-37.80
-43.92
-47.17
-46.21
-40.39
-30.07
-16.50
-1.55
12.79
24.92
33.90
39.47
41.89
41.71
39.52
35.86
31.24
26.18
21.15
16.52
12.49
9.06
6.05
3.24
0.50
-2.17
-4.72
-7.15
-9.62
-12.53
-16.41
-21.63
-28.11
-35.08
-41.10
-44.43
-43.56
-37.76
-27.47
-14.13
0.22
13.55
24.40
32.03
36.41
37.89
37.02
34.35
30.50
26.12
21.87
18.25
15.49
13.48
11.87
10.25
8.40
6.37
4.40
2.71
1.32
-0.06
-1.99
-5.12
-9.89
-16.34
-23.84
-31.09
-36.35
-37.88
-34.51
-26.12
-13.72
0.84
15.41
28.19
38.09
44.77
48.38
49.25
47.72
44.20
39.25
33.60
28.05
23.24
19.37
16.23
13.38
10.35
6.97
3.36
-0.17
-3.40
-6.33
-9.26
-12.67
-17.09
-22.84
-29.87
-37.61
-44.99
-50.48
-52.53
-50.05
-42.75
-31.35
-17.41
-2.88
10.46
21.30
28.96
33.33
34.65
33.43
30.31
26.03
21.28
16.58
12.24
8.33
4.86
1.78
-0.90
-3.20
-5.18
-6.96
-8.69
-10.45
-12.30
-14.35
-16.91
-20.41
-25.28
-31.49
-38.30
-44.14
-47.04
-45.32
-38.33
-26.77
-12.52
2.05
14.92
25.00
32.14
36.80
39.40
40.10
38.86
35.70
31.10
25.93
21.17
17.48
14.85
12.74
10.43
7.51
4.12
0.86
-1.69
-3.33
-4.50
-6.05
-8.94
-13.66
-20.01
-27.00
-33.13
-36.78
-36.75
-32.50
-24.31
-13.10
-0.21
12.91
24.89
34.66
41.44
44.90
45.19
42.87
38.79
33.91
29.00
24.56
20.68
17.26
14.10
11.06
8.09
5.26
2.66
0.37
-1.66
-3.62
-5.83
-8.78
-12.94
-18.53
-25.28
-32.24
-37.91
-40.61
-39.02
-32.72
-22.39
-9.63
3.57
15.45
24.86
31.32
34.88
35.87
34.72
31.89
27.96
23.55
19.18
15.18
11.59
8.27
5.02
1.78
-1.36
-4.20
-6.59
-8.52
-10.18
-11.93
-14.28
-17.68
-22.43
-28.35
-34.67
-40.02
-42.74
-41.44
-35.54
-25.56
-13.00
0.20
12.27
22.03
29.03
33.35
35.29
35.18
33.32
30.03
25.79
21.15
16.62
12.55
9.06
6.02
3.29
0.76
-1.55
-3.54
-5.17
-6.53
-7.95
-9.90
-12.89
-17.16
-22.59
-28.45
-33.59
-36.65
-36.42
-32.27
-24.28
-13.29
-0.69
11.90
22.94
31.29
36.35
38.12
37.10
34.12
30.12
25.87
21.83
18.16
14.76
11.51
8.35
5.34
2.60
0.19
-1.87
-3.67
-5.34
-7.01
-8.85
-11.10
-14.07
-18.03
-22.96
-28.33
-33.06
-35.73
-35.05
-30.37
-21.96
-10.99
0.88
11.98
21.05
27.43
31.03
32.07
30.95
28.15
24.15
19.46
14.60
10.01
6.01
2.78
0.30
-1.54
-2.95
-4.10
-5.14
-6.17
-7.28
-8.55
-10.20
-12.52
-15.87
-20.48
-26.17
-32.18
-37.19
-39.60
-38.13
-32.29
-22.62
-10.59
1.95
13.29
22.35
28.71
32.46
33.89
33.28
30.93
27.18
22.51
17.50
12.72
8.54
5.06
2.11
-0.58
-3.22
-5.83
-8.24
-10.16
-11.47
-12.24
-12.87
-14.00
-16.24
-19.98
-25.05
-30.65
-35.48
-38.11
-37.42
-33.00
-25.23
-15.16
-4.15
6.55
15.95
23.42
28.58
31.25
31.41
29.26
25.29
20.19
14.76
9.61
5.11
1.33
-1.87
-4.67
-7.18
-9.36
-11.12
-12.39
-13.20
-13.75
-14.32
-15.28
-16.99
-19.68
-23.37
-27.72
-31.98
-35.07
-35.81
-33.37
-27.49
-18.71
-8.14
2.80
12.81
20.91
26.62
29.82
30.67
29.54
26.90
23.35
19.43
15.61
12.10
8.99
6.24
3.76
1.52
-0.51
-2.37
-4.16
-5.91
-7.63
-9.25
-10.84
-12.62
-15.00
-18.34
-22.56
-26.90
-30.05
-30.53
-27.45
-20.79
-11.50
-1.06
9.11
18.08
25.48
31.22
35.23
37.32
37.37
35.54
32.41
28.78
25.37
22.45
19.63
16.28
11.85
6.35
0.40
-5.03
-9.13
-11.61
-12.95
-14.09
-15.92
-18.94
-23.07
-27.71
-32.07
-35.33
-36.88
-36.21
-32.98
-27.01
-18.52
-8.19
2.78
12.95
20.90
25.70
27.11
25.58
21.99
17.37
12.53
8.05
4.08
0.61
-2.49
-5.38
-8.19
-10.98
-13.72
-16.26
-18.46
-20.22
-21.65
-23.10
-25.13
-28.30
-32.91
-38.71
-44.82
-49.84
-52.25
-50.83
-45.08
-35.40
-22.88
-8.97
4.91
17.62
28.42
36.83
42.56
45.52
45.81
43.81
40.11
35.42
30.29
25.08
19.96
14.97
10.22
5.88
2.13
-0.92
-3.39
-5.60
-8.04
-11.22
-15.52
-20.98
-27.16
-33.13
-37.57
-39.18
-37.03
-30.97
-21.67
-10.48
0.98
11.26
19.40
24.96
27.98
28.81
27.90
25.76
22.85
19.58
16.17
12.74
9.32
5.91
2.60
-0.45
-3.03
-4.99
-6.35
-7.34
-8.38
-9.97
-12.59
-16.50
-21.63
-27.47
-33.02
-36.95
-37.93
-35.00
-27.97
-17.53
-5.14
7.44
18.59
27.23
32.95
35.91
36.59
35.55
33.28
30.16
26.48
22.44
18.19
13.87
9.64
5.73
2.37
-0.25
-2.10
-3.32
-4.22
-5.17
-6.60
-8.86
-12.29
-17.02
-22.85
-29.05
-34.37
-37.27
-36.42
-31.17
-22.01
-10.41
1.65
12.27
20.25
25.21
27.47
27.63
26.16
23.30
19.13
13.80
7.68
1.39
-4.42
-9.25
-13.02
-15.94
-18.41
-20.74
-23.05
-25.24
-27.17
-28.90
-30.89
-33.86
-38.44
-44.74
-51.96
-58.47
-62.24
-61.58
-55.87
-45.77
-32.98
-19.52
-7.11
3.28
11.34
17.11
20.60
21.73
20.53
17.39
13.13
8.73
5.04
2.42
0.56
-1.09
-3.09
-5.55
-8.13
-10.32
-11.74
-12.44
-13.09
-14.61
-17.89
-23.32
-30.49
-38.21
-44.75
-48.26
-47.44
-41.82
-31.93
-19.12
-5.16
8.19
19.61
28.39
34.35
37.68
38.72
37.87
35.54
32.17
28.25
24.28
20.64
17.54
14.97
12.77
10.74
8.81
7.04
5.54
4.35
3.20
1.55
-1.30
-5.84
-11.97
-18.76
-24.55
-27.44
-25.93
-19.55
-9.06
3.80
16.98
28.72
38.05
44.74
49.01
51.18
51.44
49.88
46.69
42.23
37.06
31.77
26.82
22.43
18.62
15.36
12.57
10.25
8.40
6.90
5.44
3.40
0.06
-5.14
-12.14
-20.02
-27.06
-31.12
-30.50
-24.50
-13.80
-0.18
14.08
26.93
37.09
44.12
48.16
49.62
48.91
46.34
42.28
37.13
31.44
25.76
20.52
15.97
12.09
8.73
5.71
2.91
0.31
-2.08
-4.37
-6.89
-10.22
-14.84
-20.85
-27.60
-33.68
-37.24
-36.63
-31.02
-20.79
-7.44
6.88
20.10
30.69
37.97
41.98
43.16
42.02
39.06
34.70
29.39
23.67
18.09
13.06
8.81
5.28
2.27
-0.42
-2.89
-5.14
-7.16
-9.10
-11.40
-14.66
-19.45
-25.86
-33.27
-40.27
-44.99
-45.69
-41.35
-32.12
-19.23
-4.66
9.51
21.59
30.56
36.08
38.29
37.61
34.63
30.06
24.65
19.08
13.82
9.11
4.95
1.27
-2.01
-4.86
-7.20
-8.99
-10.28
-11.34
-12.57
-14.55
-17.84
-22.77
-29.17
-36.10
-41.91
-44.63
-42.54
-34.90
-22.26
-6.40
10.25
25.36
37.30
45.40
49.76
50.94
49.58
46.26
41.53
35.98
30.28
25.05
20.66
17.10
14.03
10.99
7.69
4.24
1.06
-1.36
-2.87
-3.79
-4.93
-7.25
-11.42
-17.48
-24.66
-31.52
-36.30
-37.47
-34.11
-26.21
-14.64
-0.97
12.93
25.31
34.86
40.90
43.32
42.50
39.11
33.92
27.69
21.08
14.58
8.51
3.10
-1.57
-5.51
-8.79
-11.51
-13.81
-15.78
-17.54
-19.24
-21.06
-23.31
-26.35
-30.49
-35.74
-41.62
-47.09
-50.66
-50.92
-46.98
-38.88
-27.68
-15.05
-2.80
7.64
15.47
20.44
22.72
22.65
20.65
17.20
12.81
7.95
3.03
-1.69
-5.99
-9.78
-12.96
-15.51
-17.48
-18.97
-20.13
-21.19
-22.41
-24.30
-27.40
-32.10
-38.33
-45.23
-51.17
-54.21
-52.75
-46.29
-35.60
-22.53
-9.31
2.21
11.03
17.03
20.57
22.07
21.76
19.73
16.20
11.72
7.19
3.56
1.53
1.17
2.07
3.59
5.19
6.71
8.29
10.03
11.82
13.02
12.79
10.55
6.46
1.64
-2.06
-2.62
1.32
9.96
22.22
36.21
49.81
61.33
69.82
74.97
76.92
75.89
72.14
66.01
58.05
49.03
39.86
31.28
23.79
17.50
12.31
8.08
4.75
2.31
0.75
-0.08
-0.49
-0.94
-1.95
-4.05
-7.64
-12.83
-19.11
-25.29
-29.61
-30.27
-26.12
-17.26
-5.06
8.26
20.43
29.90
36.09
39.32
40.24
39.42
37.18
33.67
29.10
23.89
18.62
13.84
9.88
6.73
4.16
1.84
-0.43
-2.66
-4.67
-6.28
-7.54
-8.81
-10.66
-13.70
-18.10
-23.42
-28.48
-31.75
-31.80
-27.89
-20.27
-10.05
1.13
11.70
20.52
27.04
31.13
32.93
32.61
30.38
26.54
21.57
16.17
11.00
6.58
3.12
0.55
-1.41
-3.05
-4.53
-5.88
-7.02
-7.97
-8.88
-10.10
-12.06
-15.07
-19.07
-23.45
-27.19
-29.06
-28.10
-23.97
-17.09
-8.48
0.54
8.81
15.53
20.30
23.00
23.64
22.32
19.26
14.89
9.83
4.76
0.22
-3.53
-6.52
-8.96
-11.09
-13.02
-14.62
-15.72
-16.24
-16.38
-16.61
-17.58
-19.80
-23.31
-27.45
-31.09
-32.93
-31.99
-28.01
-21.42
-13.16
-4.33
4.09
11.33
16.79
20.08
21.05
19.87
17.09
13.39
9.37
5.28
1.07
-3.42
-8.09
-12.53
-16.10
-18.27
-18.92
-18.46
-17.63
-17.15
-17.55
-19.05
-21.51
-24.63
-27.82
-30.38
-31.45
-30.24
-26.29
-19.65
-10.98
-1.43
7.73
15.29
20.50
23.09
23.30
21.65
18.80
15.33
11.60
7.70
3.59
-0.73
-5.08
-9.05
-12.17
-14.10
-14.80
-14.62
-14.23
-14.35
-15.56
-18.11
-21.80
-25.95
-29.50
-31.29
-30.33
-26.12
-18.90
-9.55
0.59
10.17
18.13
23.89
27.29
28.49
27.70
25.20
21.31
16.46
11.18
6.05
1.50
-2.22
-5.14
-7.42
-9.20
-10.54
-11.42
-11.84
-12.10
-12.72
-14.35
-17.36
-21.52
-25.90
-29.04
-29.52
-26.52
-20.08
-11.16
-1.20
8.29
16.20
21.95
25.43
26.83
26.41
24.45
21.19
16.93
12.05
7.00
2.26
-1.77
-4.87
-7.03
-8.45
-9.40
-10.13
-10.84
-11.74
-13.11
-15.26
-18.40
-22.41
-26.61
-29.85
-30.80
-28.40
-22.38
-13.38
-2.80
7.72
16.75
23.43
27.54
29.26
28.96
27.00
23.65
19.20
13.99
8.50
3.29
-1.11
-4.36
-6.39
-7.47
-8.06
-8.65
-9.57
-10.97
-12.92
-15.52
-18.89
-23.06
-27.66
-31.82
-34.26
-33.71
-29.46
-21.75
-11.77
-1.30
7.88
14.53
18.20
19.17
18.11
15.76
12.66
9.08
5.09
0.79
-3.60
-7.68
-10.97
-13.18
-14.32
-14.77
-15.07
-15.72
-16.97
-18.83
-21.23
-24.13
-27.57
-31.43
-35.22
-37.95
-38.42
-35.62
-29.21
-19.81
-8.83
1.98
11.11
17.63
21.33
22.60
22.01
20.11
17.26
13.68
9.56
5.13
0.75
-3.17
-6.35
-8.71
-10.41
-11.76
-13.10
-14.63
-16.42
-18.45
-20.74
-23.39
-26.39
-29.52
-32.18
-33.49
-32.50
-28.56
-21.68
-12.59
-2.53
7.07
15.03
20.66
23.81
24.77
24.05
22.19
19.67
16.80
13.78
10.75
7.82
5.07
2.63
0.59
-1.03
-2.28
-3.33
-4.39
-5.71
-7.50
-9.89
-12.86
-16.09
-18.96
-20.61
-20.15
-16.94
-10.94
-2.76
6.46
15.35
22.77
28.01
30.91
31.68
30.73
28.46
25.24
21.39
17.26
13.28
9.88
7.38
5.95
5.51
5.74
6.23
6.52
6.28
5.26
3.31
0.49
-2.94
-6.40
-8.97
-9.64
-7.58
-2.49
5.26
14.69
24.50
33.51
40.83
45.99
48.88
49.54
48.15
44.86
39.98
34.00
27.51
21.22
15.72
11.41
8.31
6.10
4.25
2.17
-0.64
-4.47
-9.38
-15.22
-21.56
-27.67
-32.49
-34.87
-33.89
-29.14
-21.03
-10.70
0.36
10.60
18.93
24.81
28.23
29.52
29.16
27.56
25.12
22.02
18.44
14.59
10.69
7.10
4.17
2.14
1.01
0.40
-0.32
-1.87
-4.82
-9.36
-15.19
-21.53
-27.22
-30.97
-31.62
-28.38
-21.12
-10.45
2.39
15.73
27.88
37.42
43.51
45.99
45.32
42.36
38.11
33.39
28.75
24.35
20.19
16.24
12.58
9.38
6.79
4.77
3.10
1.38
-0.89
-4.20
-8.91
-15.12
-22.41
-29.73
-35.47
-37.85
-35.47
-27.91
-15.96
-1.45
13.36
26.39
36.29
42.55
45.38
45.35
43.16
39.44
34.74
29.54
24.28
19.37
15.07
11.49
8.53
5.96
3.53
1.09
-1.39
-3.83
-6.25
-8.87
-12.10
-16.45
-22.10
-28.58
-34.67
-38.56
-38.51
-33.49
-23.68
-10.47
4.01
17.53
28.42
35.87
39.78
40.56
38.79
35.08
30.14
24.68
19.41
14.86
11.24
8.43
6.07
3.80
1.42
-1.05
-3.38
-5.37
-6.96
-8.33
-9.88
-12.16
-15.72
-20.80
-27.13
-33.78
-39.22
-41.76
-40.06
-33.65
-23.17
-10.18
3.36
15.68
25.56
32.49
36.38
37.38
35.78
31.99
26.68
20.74
15.11
10.52
7.22
4.99
3.28
1.52
-0.63
-3.11
-5.59
-7.74
-9.38
-10.68
-12.07
-14.11
-17.27
-21.70
-27.16
-32.91
-37.78
-40.46
-39.81
-35.25
-27.00
-16.05
-3.90
7.84
17.85
25.24
29.67
31.21
30.29
27.50
23.58
19.23
14.98
11.17
7.88
5.09
2.69
0.62
-1.14
-2.65
-3.93
-5.00
-5.90
-6.64
-7.38
-8.49
-10.52
-13.99
-19.04
-25.17
-31.14
-35.30
-36.12
-32.88
-25.90
-16.38
-5.95
3.96
12.44
19.13
23.94
26.72
27.26
25.45
21.58
16.42
11.11
6.68
3.71
2.04
1.04
-0.03
-1.58
-3.50
-5.30
-6.50
-6.93
-6.94
-7.17
-8.28
-10.70
-14.42
-19.08
-24.08
-28.58
-31.75
-32.79
-31.12
-26.56
-19.42
-10.53
-0.97
8.15
15.90
21.66
25.13
26.24
25.16
22.25
18.14
13.61
9.40
6.04
3.64
2.00
0.73
-0.56
-2.01
-3.50
-4.79
-5.69
-6.18
-6.52
-7.07
-8.25
-10.35
-13.48
-17.50
-22.00
-26.25
-29.35
-30.40
-28.71
-24.11
-16.98
-8.20
1.05
9.61
16.53
21.23
23.49
23.43
21.43
18.08
14.05
9.98
6.39
3.53
1.40
-0.20
-1.52
-2.78
-4.11
-5.45
-6.70
-7.73
-8.52
-9.12
-9.72
-10.59
-12.01
-14.21
-17.27
-20.98
-24.70
-27.47
-28.21
-26.08
-20.90
-13.25
-4.36
4.36
11.72
17.12
20.55
22.31
22.71
21.92
19.99
17.05
13.45
9.70
6.34
3.72
1.82
0.38
-0.95
-2.43
-4.10
-5.77
-7.19
-8.21
-8.83
-9.34
-10.13
-11.66
-14.24
-17.87
-22.15
-26.32
-29.36
-30.32
-28.62
-24.23
-17.67
-9.87
-1.79
5.76
12.20
17.11
20.17
21.16
20.04
17.10
12.98
8.57
4.66
1.71
-0.31
-1.72
-2.92
-4.18
-5.48
-6.61
-7.40
-7.77
-7.84
-7.86
-8.13
-8.88
-10.33
-12.58
-15.63
-19.22
-22.81
-25.60
-26.69
-25.38
-21.40
-15.06
-7.22
1.01
8.49
14.43
18.40
20.37
20.55
19.25
16.85
13.74
10.29
6.84
3.64
0.80
-1.66
-3.77
-5.54
-6.95
-7.96
-8.58
-8.88
-8.95
-8.95
-9.04
-9.48
-10.60
-12.73
-16.07
-20.44
-25.12
-28.96
-30.72
-29.49
-25.11
-18.19
-9.92
-1.57
5.88
11.91
16.41
19.36
20.72
20.33
18.15
14.46
9.89
5.33
1.56
-1.01
-2.51
-3.44
-4.39
-5.71
-7.35
-8.96
-10.08
-10.47
-10.26
-9.85
-9.84
-10.75
-12.88
-16.15
-20.15
-24.13
-27.15
-28.28
-26.83
-22.57
-15.80
-7.33
1.79
10.46
17.78
23.16
26.35
27.34
26.32
23.65
19.82
15.40
10.94
6.85
3.34
0.39
-2.11
-4.29
-6.17
-7.67
-8.72
-9.33
-9.64
-9.89
-10.32
-11.18
-12.72
-15.17
-18.66
-23.08
-27.85
-31.89
-33.84
-32.60
-27.71
-19.63
-9.55
1.03
10.82
19.03
25.33
29.56
31.56
31.18
28.45
23.86
18.33
13.00
8.74
5.76
3.71
1.89
-0.26
-2.76
-5.16
-6.77
-7.18
-6.59
-5.76
-5.64
-6.98
-10.01
-14.38
-19.49
-24.55
-28.94
-32.00
-33.00
-31.18
-25.95
-17.22
-5.73
7.05
19.12
28.70
34.72
37.07
36.44
33.88
30.31
26.27
21.89
17.17
12.27
7.61
3.73
1.02
-0.49
-1.14
-1.48
-1.96
-2.75
-3.79
-4.96
-6.29
-8.10
-10.81
-14.75
-19.83
-25.31
-29.93
-32.26
-31.13
-26.10
-17.51
-6.51
5.43
16.85
26.64
34.12
38.99
41.19
40.87
38.29
33.95
28.49
22.60
16.88
11.73
7.32
3.68
0.77
-1.43
-2.95
-3.84
-4.25
-4.40
-4.62
-5.22
-6.52
-8.86
-12.48
-17.42
-23.32
-29.28
-33.92
-35.69
-33.44
-26.79
-16.41
-3.78
9.26
21.10
30.66
37.52
41.64
43.12
42.07
38.66
33.25
26.52
19.34
12.62
7.02
2.85
0.01
-1.84
-3.11
-4.12
-5.03
-5.82
-6.45
-6.96
-7.58
-8.72
-10.92
-14.60
-19.73
-25.69
-31.19
-34.62
-34.56
-30.29
-22.02
-10.87
1.63
13.96
24.94
33.82
40.16
43.65
44.12
41.63
36.63
29.98
22.75
15.94
10.23
5.86
2.65
0.29
-1.53
-2.94
-3.93
-4.46
-4.61
-4.65
-5.03
-6.29
-8.85
-12.89
-18.21
-24.22
-29.90
-33.97
-35.20
-32.64
-26.04
-15.89
-3.37
9.91
22.33
32.63
40.02
44.23
45.37
43.77
39.88
34.27
27.59
20.62
14.13
8.76
4.86
2.40
1.00
0.18
-0.47
-1.15
-1.82
-2.39
-2.87
-3.51
-4.85
-7.46
-11.79
-17.82
-24.91
-31.72
-36.57
-37.81
-34.53
-26.78
-15.61
-2.69
10.26
21.93
31.54
38.71
43.17
44.70
43.18
38.85
32.50
25.32
18.54
13.02
8.88
5.72
2.89
-0.02
-2.93
-5.33
-6.65
-6.63
-5.68
-4.69
-4.73
-6.61
-10.56
-16.22
-22.75
-29.04
-33.91
-36.27
-35.26
-30.45
-22.00
-10.71
2.12
15.01
26.51
35.54
41.45
43.99
43.31
39.88
34.44
27.93
21.28
15.16
9.98
5.77
2.37
-0.40
-2.64
-4.30
-5.30
-5.61
-5.43
-5.11
-5.20
-6.25
-8.70
-12.74
-18.16
-24.31
-30.10
-34.15
-35.12
-32.07
-24.83
-14.10
-1.35
11.61
23.11
31.95
37.62
40.11
39.77
37.12
32.72
27.22
21.26
15.48
10.32
6.02
2.61
-0.01
-1.97
-3.35
-4.23
-4.73
-5.01
-5.31
-5.89
-6.97
-8.82
-11.67
-15.66
-20.67
-26.11
-30.91
-33.69
-33.15
-28.52
-19.96
-8.54
4.08
16.12
26.22
33.58
38.02
39.70
38.88
35.88
31.07
24.98
18.34
11.94
6.49
2.37
-0.46
-2.33
-3.70
-4.86
-5.93
-6.79
-7.32
-7.58
-7.89
-8.80
-10.91
-14.64
-19.91
-26.04
-31.73
-35.40
-35.65
-31.75
-23.89
-13.12
-0.99
10.91
21.32
29.50
35.10
38.05
38.36
36.19
31.87
26.06
19.64
13.50
8.35
4.54
1.94
0.17
-1.26
-2.71
-4.20
-5.55
-6.53
-7.05
-7.35
-7.93
-9.42
-12.33
-16.83
-22.53
-28.49
-33.38
-35.80
-34.66
-29.60
-21.06
-10.13
1.71
13.02
22.65
29.87
34.28
35.81
34.58
31.04
25.87
19.93
14.06
8.88
4.74
1.66
-0.57
-2.17
-3.35
-4.27
-4.99
-5.59
-6.12
-6.66
-7.37
-8.46
-10.25
-13.11
-17.26
-22.51
-28.16
-32.94
-35.37
-34.20
-28.94
-20.07
-8.93
2.77
13.43
21.96
27.86
31.10
31.88
30.46
27.16
22.40
16.76
10.91
5.53
1.14
-2.05
-4.11
-5.34
-6.14
-6.79
-7.43
-8.01
-8.42
-8.64
-8.82
-9.36
-10.76
-13.44
-17.53
-22.59
-27.60
-31.17
-31.94
-29.05
-22.52
-13.23
-2.61
7.82
16.89
23.96
28.80
31.42
31.86
30.19
26.64
21.76
16.30
11.11
6.81
3.63
1.45
-0.08
-1.34
-2.49
-3.55
-4.41
-5.03
-5.52
-6.17
-7.36
-9.41
-12.49
-16.43
-20.76
-24.69
-27.24
-27.49
-24.84
-19.17
-10.92
-1.02
9.36
19.00
26.85
32.20
34.76
34.66
32.35
28.41
23.45
18.01
12.52
7.41
3.08
-0.15
-2.15
-3.16
-3.67
-4.22
-5.16
-6.45
-7.77
-8.83
-9.73
-11.07
-13.69
-18.09
-23.96
-29.93
-34.03
-34.49
-30.46
-22.54
-12.37
-1.93
7.29
14.70
20.46
24.90
28.07
29.49
28.53
24.99
19.42
13.08
7.45
3.54
1.56
0.84
0.40
-0.56
-2.19
-4.06
-5.47
-6.00
-5.73
-5.38
-5.87
-7.92
-11.79
-17.06
-22.77
-27.65
-30.38
-29.99
-26.09
-18.96
-9.49
1.05
11.38
20.43
27.54
32.35
34.72
34.66
32.30
28.03
22.54
16.75
11.58
7.68
5.24
3.95
3.26
2.60
1.70
0.62
-0.40
-1.13
-1.59
-2.07
-3.06
-5.06
-8.42
-13.17
-18.90
-24.79
-29.67
-32.29
-31.65
-27.37
-19.81
-10.01
0.67
10.89
19.69
26.48
30.98
33.09
32.79
30.24
25.86
20.39
14.76
9.81
6.06
3.52
1.81
0.38
-1.16
-2.89
-4.58
-5.92
-6.74
-7.15
-7.55
-8.43
-10.26
-13.28
-17.47
-22.51
-27.75
-32.27
-34.99
-34.92
-31.45
-24.56
-14.99
-3.99
6.96
16.53
23.83
28.47
30.52
30.29
28.22
24.76
20.39
15.59
10.87
6.64
3.20
0.65
-1.14
-2.46
-3.63
-4.84
-6.11
-7.30
-8.23
-8.86
-9.41
-10.38
-12.34
-15.73
-20.64
-26.54
-32.42
-36.88
-38.66
-36.89
-31.50
-23.20
-13.23
-2.99
6.42
14.23
20.15
24.01
25.75
25.35
22.97
19.09
14.46
9.87
5.93
2.89
0.64
-1.14
-2.70
-4.15
-5.38
-6.26
-6.73
-6.85
-6.82
-6.92
-7.45
-8.67
-10.82
-14.01
-18.09
-22.55
-26.43
-28.55
-27.81
-23.61
-16.07
-6.22
4.43
14.29
22.18
27.56
30.53
31.50
30.94
29.10
26.13
22.21
17.68
13.12
9.14
6.15
4.22
2.99
1.97
0.81
-0.59
-1.97
-2.98
-3.41
-3.41
-3.63
-4.89
-7.86
-12.60
-18.35
-23.66
-26.84
-26.59
-22.56
-15.38
-6.44
2.77
11.04
17.78
22.83
26.32
28.26
28.61
27.30
24.46
20.54
16.17
12.01
8.51
5.79
3.67
1.86
0.15
-1.46
-2.84
-3.81
-4.35
-4.69
-5.27
-6.61
-9.17
-13.09
-18.06
-23.30
-27.61
-29.72
-28.67
-24.15
-16.66
-7.36
2.32
11.08
18.11
23.05
25.93
26.91
26.17
23.91
20.43
16.17
11.67
7.47
3.97
1.32
-0.60
-2.07
-3.37
-4.66
-5.89
-6.85
-7.39
-7.55
-7.72
-8.49
-10.47
-13.89
-18.38
-22.98
-26.34
-27.25
-24.99
-19.61
-11.83
-2.81
6.24
14.36
20.86
25.35
27.64
27.71
25.73
22.14
17.61
12.89
8.59
5.02
2.13
-0.27
-2.40
-4.31
-5.84
-6.82
-7.23
-7.29
-7.41
-8.04
-9.54
-12.08
-15.59
-19.75
-23.98
-27.43
-29.19
-28.47
-24.86
-18.52
-10.11
-0.70
8.57
16.66
22.81
26.56
27.83
26.80
23.97
20.00
15.57
11.26
7.35
3.94
0.95
-1.65
-3.84
-5.48
-6.44
-6.74
-6.59
-6.33
-6.36
-7.02
-8.53
-11.01
-14.49
-18.75
-23.26
-27.09
-29.12
-28.28
-23.99
-16.50
-6.80
3.58
13.10
20.61
25.51
27.74
27.62
25.63
22.28
18.07
13.45
8.86
4.61
0.92
-2.11
-4.52
-6.38
-7.85
-9.03
-10.02
-10.85
-11.54
-12.14
-12.86
-14.10
-16.33
-19.88
-24.60
-29.73
-33.95
-35.82
-34.25
-28.97
-20.63
-10.58
-0.34
8.79
16.03
21.09
23.98
24.82
23.76
21.01
16.95
12.15
7.28
2.93
-0.51
-2.99
-4.73
-6.03
-7.15
-8.14
-8.96
-9.48
-9.70
-9.82
-10.20
-11.34
-13.66
-17.29
-21.84
-26.40
-29.70
-30.48
-27.94
-22.07
-13.66
-3.99
5.55
13.92
20.45
24.89
27.22
27.52
25.99
22.99
19.06
14.82
10.80
7.30
4.34
1.78
-0.55
-2.69
-4.57
-6.00
-6.86
-7.18
-7.20
-7.32
-8.02
-9.71
-12.52
-16.31
-20.46
-24.04
-25.95
-25.20
-21.25
-14.21
-4.91
5.30
14.93
22.72
27.98
30.65
31.11
29.98
27.79
24.85
21.33
17.33
13.07
8.87
5.19
2.34
0.48
-0.57
-1.16
-1.67
-2.35
-3.25
-4.30
-5.53
-7.16
-9.69
-13.39
-18.03
-22.59
-25.45
-24.97
-20.26
-11.66
-0.82
10.05
19.03
25.16
28.60
30.15
30.61
30.23
28.65
25.34
20.16
13.68
7.07
1.63
-1.84
-3.31
-3.61
-3.82
-4.77
-6.63
-8.98
-11.16
-12.88
-14.38
-16.44
-19.71
-24.14
-28.73
-31.78
-31.57
-27.13
-18.71
-7.66
4.08
14.72
23.09
28.77
31.88
32.78
31.89
29.53
25.97
21.50
16.48
11.29
6.35
2.07
-1.21
-3.36
-4.48
-4.86
-4.93
-5.10
-5.69
-6.91
-8.95
-11.97
-16.07
-21.01
-26.09
-30.10
-31.58
-29.36
-23.03
-13.22
-1.44
10.37
20.46
27.75
31.86
33.08
31.95
29.16
25.24
20.66
15.82
11.07
6.72
3.05
0.24
-1.68
-2.82
-3.41
-3.81
-4.31
-5.16
-6.53
-8.57
-11.44
-15.21
-19.71
-24.38
-28.20
-29.97
-28.65
-23.72
-15.49
-5.02
6.21
16.63
25.03
30.72
33.59
33.91
32.19
28.94
24.64
19.69
14.47
9.42
5.02
1.69
-0.37
-1.27
-1.43
-1.38
-1.59
-2.33
-3.62
-5.47
-7.96
-11.34
-15.76
-21.03
-26.35
-30.37
-31.58
-28.86
-21.98
-11.78
0.08
11.70
21.47
28.47
32.50
33.85
32.99
30.34
26.24
21.05
15.23
9.39
4.16
0.08
-2.59
-3.95
-4.34
-4.23
-4.09
-4.20
-4.75
-5.78
-7.39
-9.75
-13.03
-17.23
-21.96
-26.31
-29.04
-28.83
-24.88
-17.17
-6.59
5.30
16.74
26.32
33.19
37.12
38.22
36.80
33.24
27.99
21.73
15.30
9.59
5.27
2.48
0.93
0.01
-0.85
-1.87
-2.94
-3.79
-4.28
-4.71
-5.73
-8.09
-12.23
-17.90
-24.07
-29.18
-31.52
-29.98
-24.35
-15.33
-4.31
7.15
17.78
26.73
33.61
38.14
40.13
39.55
36.68
32.30
27.45
23.16
20.02
17.91
16.28
14.53
12.41
10.19
8.41
7.47
7.34
7.38
6.68
4.39
0.11
-6.02
-13.33
-20.77
-27.07
-31.07
-31.85
-29.04
-22.98
-14.71
-5.73
2.37
8.37
11.61
12.07
10.26
6.94
2.94
-1.07
-4.59
-7.37
-9.35
-10.70
-11.69
-12.64
-13.81
-15.32
-17.03
-18.66
-19.87
-20.53
-20.87
-21.44
-22.96
-25.93
-30.20
-34.80
-38.19
-38.68
-35.11
-27.25
-15.98
-2.91
10.12
21.61
30.65
37.00
40.76
42.18
41.47
38.81
34.48
29.06
23.29
17.94
13.59
10.38
8.13
6.41
4.84
3.21
1.51
-0.23
-2.14
-4.63
-8.24
-13.35
-19.78
-26.57
-32.13
-34.73
-33.08
-26.89
-17.00
-5.13
6.69
16.82
24.28
28.88
30.88
30.72
28.78
25.28
20.48
14.76
8.67
2.86
-2.12
-6.00
-8.82
-10.91
-12.64
-14.32
-16.12
-18.14
-20.55
-23.72
-28.07
-33.75
-40.33
-46.63
-50.94
-51.55
-47.47
-38.86
-26.99
-13.84
-1.37
9.06
16.81
21.89
24.58
25.18
23.96
21.23
17.46
13.24
9.18
5.71
3.04
1.11
-0.24
-1.23
-2.00
-2.71
-3.47
-4.49
-6.08
-8.63
-12.50
-17.73
-23.90
-29.90
-34.20
-35.27
-32.12
-24.74
-14.08
-1.85
10.13
20.43
28.22
33.26
35.71
35.84
34.01
30.63
26.21
21.38
16.75
12.75
9.52
6.97
4.83
2.86
0.97
-0.73
-2.13
-3.23
-4.33
-6.02
-9.01
-13.77
-20.21
-27.43
-33.88
-37.77
-37.60
-32.76
-23.71
-11.82
1.05
13.14
23.16
30.41
34.74
36.29
35.38
32.50
28.31
23.59
19.10
15.35
12.51
10.34
8.46
6.53
4.47
2.43
0.64
-0.81
-2.03
-3.42
-5.53
-8.88
-13.77
-20.04
-26.98
-33.36
-37.57
-38.14
-34.15
-25.65
-13.67
0.02
13.51
25.14
33.89
39.38
41.72
41.29
38.68
34.57
29.67
24.61
19.87
15.68
12.07
8.94
6.18
3.76
1.67
-0.13
-1.75
-3.41
-5.38
-7.92
-11.26
-15.61
-21.03
-27.36
-33.99
-39.79
-43.30
-43.10
-38.40
-29.40
-17.34
-4.08
8.44
18.86
26.51
31.29
33.42
33.13
30.66
26.44
21.19
15.87
11.36
8.14
6.15
4.86
3.60
1.93
-0.25
-2.69
-5.03
-7.08
-8.82
-10.61
-12.99
-16.54
-21.60
-28.00
-34.84
-40.63
-43.62
-42.52
-36.88
-27.32
-15.25
-2.35
10.00
20.86
29.69
36.04
39.49
39.78
37.07
32.04
25.91
19.98
15.20
11.80
9.42
7.38
5.18
2.77
0.52
-1.08
-1.79
-1.91
-2.12
-3.24
-5.87
-10.15
-15.82
-22.25
-28.49
-33.52
-36.19
-35.51
-30.88
-22.38
-10.88
2.17
15.09
26.37
34.97
40.43
42.74
42.22
39.37
34.83
29.31
23.54
18.16
13.58
9.94
7.15
4.95
3.11
1.48
0.02
-1.24
-2.38
-3.62
-5.42
-8.32
-12.78
-18.93
-26.27
-33.66
-39.50
-42.13
-40.35
-33.94
-23.64
-10.99
2.21
14.38
24.45
31.84
36.35
37.97
36.91
33.60
28.78
23.36
18.19
13.81
10.30
7.46
4.94
2.53
0.24
-1.77
-3.32
-4.38
-5.20
-6.21
-7.90
-10.72
-14.91
-20.45
-26.95
-33.59
-39.11
-42.06
-41.16
-35.76
-26.13
-13.49
0.30
13.36
24.19
32.02
36.71
38.53
37.88
35.19
30.93
25.71
20.27
15.28
11.19
8.13
5.88
4.04
2.26
0.35
-1.69
-3.77
-5.81
-7.83
-9.96
-12.49
-15.81
-20.26
-25.95
-32.44
-38.61
-42.82
-43.40
-39.26
-30.37
-17.88
-3.69
10.15
22.03
31.10
37.14
40.31
40.79
38.80
34.64
28.92
22.59
16.69
12.03
8.93
7.10
5.85
4.49
2.65
0.42
-1.79
-3.58
-4.85
-5.93
-7.45
-10.14
-14.49
-20.52
-27.58
-34.48
-39.67
-41.63
-39.36
-32.69
-22.33
-9.67
3.64
15.99
26.10
33.20
36.95
37.49
35.31
31.22
26.14
20.82
15.79
11.29
7.40
4.18
1.64
-0.23
-1.58
-2.72
-3.95
-5.49
-7.34
-9.39
-11.54
-13.91
-16.88
-21.00
-26.51
-32.99
-39.15
-43.13
-43.11
-38.08
-28.29
-15.30
-1.35
11.48
21.87
29.40
34.30
36.91
37.39
35.72
31.91
26.35
19.85
13.43
7.94
3.88
1.25
-0.31
-1.28
-2.09
-2.99
-4.05
-5.27
-6.65
-8.26
-10.42
-13.59
-18.26
-24.51
-31.77
-38.68
-43.35
-43.99
-39.61
-30.43
-17.82
-3.83
9.53
20.81
29.30
34.88
37.69
37.91
35.75
31.57
25.98
19.86
14.11
9.40
6.04
3.85
2.42
1.26
0.10
-1.14
-2.37
-3.49
-4.58
-5.87
-7.77
-10.74
-15.10
-20.86
-27.51
-33.90
-38.45
-39.57
-36.24
-28.41
-17.15
-4.23
8.43
19.41
27.93
33.83
37.21
38.15
36.72
33.12
27.87
21.84
16.08
11.44
8.27
6.36
5.12
3.91
2.37
0.56
-1.17
-2.46
-3.26
-3.95
-5.23
-7.90
-12.41
-18.65
-25.82
-32.58
-37.39
-38.91
-36.41
-29.91
-20.21
-8.61
3.42
14.52
23.73
30.40
34.22
35.17
33.48
29.68
24.48
18.71
13.14
8.23
4.18
0.92
-1.73
-3.91
-5.65
-6.93
-7.75
-8.27
-8.81
-9.77
-11.53
-14.40
-18.51
-23.74
-29.66
-35.44
-39.87
-41.63
-39.64
-33.44
-23.46
-11.01
2.05
13.85
22.97
28.72
31.11
30.71
28.26
24.49
20.00
15.21
10.45
6.02
2.16
-0.91
-3.05
-4.31
-4.84
-4.92
-4.88
-4.98
-5.38
-6.18
-7.53
-9.68
-12.97
-17.56
-23.14
-28.74
-32.83
-33.69
-30.16
-22.10
-10.58
2.46
14.89
25.05
32.07
35.96
37.16
36.26
33.72
29.83
24.90
19.31
13.66
8.55
4.48
1.68
0.04
-0.81
-1.34
-1.98
-2.98
-4.42
-6.30
-8.71
-11.91
-16.22
-21.72
-27.92
-33.63
-37.14
-36.86
-31.96
-22.79
-10.87
1.75
13.13
22.07
28.20
31.75
33.08
32.47
30.03
25.94
20.63
14.79
9.20
4.50
1.01
-1.37
-2.92
-4.01
-4.94
-5.90
-6.98
-8.26
-9.95
-12.35
-15.85
-20.69
-26.71
-33.12
-38.51
-41.20
-39.80
-33.79
-23.78
-11.37
1.40
12.75
21.62
27.71
31.20
32.37
31.38
28.36
23.63
17.94
12.29
7.70
4.77
3.47
3.18
3.07
2.49
1.21
-0.66
-2.83
-5.15
-7.77
-11.04
-15.32
-20.70
-26.75
-32.58
-36.93
-38.52
-36.40
-30.26
-20.59
-8.61
4.02
15.52
24.50
30.14
32.37
31.65
28.85
24.85
20.44
16.08
12.03
8.40
5.30
2.87
1.23
0.35
0.04
-0.24
-1.04
-2.77
-5.58
-9.29
-13.56
-18.14
-22.84
-27.54
-31.84
-34.88
-35.44
-32.35
-25.07
-14.17
-1.25
11.42
21.77
28.54
31.55
31.46
29.37
26.25
22.79
19.22
15.65
12.13
8.86
6.04
3.90
2.47
1.69
1.28
0.94
0.37
-0.69
-2.52
-5.35
-9.45
-14.87
-21.32
-27.91
-33.26
-35.81
-34.31
-28.36
-18.58
-6.47
6.07
17.25
25.84
31.29
33.62
33.26
30.85
27.13
22.82
18.53
14.68
11.42
8.74
6.53
4.69
3.22
2.12
1.32
0.65
-0.17
-1.48
-3.58
-6.76
-11.15
-16.69
-22.97
-29.06
-33.65
-35.24
-32.73
-25.81
-15.20
-2.55
10.09
20.88
28.66
33.05
34.34
33.15
30.17
26.04
21.36
16.70
12.57
9.33
7.06
5.58
4.56
3.62
2.51
1.14
-0.48
-2.31
-4.40
-6.94
-10.21
-14.46
-19.75
-25.69
-31.33
-35.29
-36.14
-32.90
-25.47
-14.74
-2.40
9.58
19.51
26.38
29.93
30.54
28.93
25.84
21.97
17.82
13.75
10.01
6.79
4.23
2.44
1.36
0.82
0.51
0.08
-0.74
-2.11
-4.08
-6.67
-10.03
-14.30
-19.48
-25.11
-30.10
-32.96
-32.21
-27.00
-17.57
-5.32
7.66
19.22
27.84
32.92
34.75
34.11
31.84
28.57
24.68
20.42
16.08
12.04
8.73
6.51
5.43
5.24
5.41
5.34
4.61
3.04
0.64
-2.49
-6.46
-11.46
-17.50
-24.14
-30.22
-34.10
-34.22
-29.75
-21.10
-9.81
2.03
12.49
20.38
25.40
27.85
28.26
26.97
24.16
20.03
14.96
9.58
4.67
0.86
-1.52
-2.70
-3.21
-3.69
-4.63
-6.18
-8.19
-10.49
-13.10
-16.39
-20.86
-26.58
-32.92
-38.32
-40.81
-38.75
-31.58
-20.21
-6.71
6.47
17.38
25.08
29.65
31.72
32.04
30.99
28.72
25.28
20.89
16.09
11.55
7.91
5.53
4.31
3.88
3.67
3.16
2.06
0.27
-2.25
-5.57
-9.86
-15.22
-21.35
-27.40
-31.96
-33.49
-30.85
-23.83
-13.35
-1.18
10.61
20.32
26.99
30.52
31.39
30.32
27.97
24.75
20.96
16.82
12.63
8.72
5.44
3.01
1.47
0.64
0.23
-0.18
-0.95
-2.43
-4.91
-8.56
-13.40
-19.09
-24.88
-29.59
-31.88
-30.61
-25.31
-16.41
-5.19
6.53
16.96
24.76
29.38
30.97
30.14
27.67
24.22
20.23
15.99
11.71
7.70
4.23
1.58
-0.17
-1.17
-1.76
-2.35
-3.31
-4.85
-7.16
-10.34
-14.45
-19.32
-24.32
-28.42
-30.30
-28.87
-23.71
-15.30
-4.93
5.76
15.29
22.68
27.56
29.98
30.16
28.37
24.96
20.41
15.33
10.41
6.18
2.93
0.66
-0.91
-2.07
-3.09
-4.07
-5.14
-6.48
-8.46
-11.55
-15.99
-21.53
-27.23
-31.62
-33.13
-30.71
-24.25
-14.66
-3.54
7.40
16.78
23.86
28.40
30.44
30.15
27.75
23.61
18.31
12.62
7.31
2.92
-0.35
-2.62
-4.20
-5.40
-6.44
-7.45
-8.51
-9.83
-11.76
-14.73
-18.96
-24.23
-29.69
-33.96
-35.56
-33.44
-27.46
-18.47
-8.04
2.09
10.61
16.87
20.88
22.94
23.31
22.09
19.28
15.05
9.87
4.47
-0.34
-3.97
-6.28
-7.52
-8.23
-8.89
-9.81
-11.11
-12.87
-15.29
-18.69
-23.29
-28.83
-34.37
-38.35
-39.10
-35.54
-27.73
-16.94
-5.26
5.19
12.97
17.68
19.76
20.02
19.10
17.25
14.42
10.64
6.23
1.87
-1.65
-3.84
-4.65
-4.53
-4.15
-4.05
-4.50
-5.51
-7.10
-9.43
-12.80
-17.27
-22.38
-26.97
-29.41
-28.24
-22.83
-13.71
-2.47
8.80
18.30
24.94
28.57
29.64
28.83
26.71
23.61
19.72
15.27
10.64
6.33
2.79
0.28
-1.24
-2.07
-2.64
-3.34
-4.48
-6.25
-8.84
-12.39
-16.83
-21.73
-26.16
-28.89
-28.70
-24.83
-17.39
-7.31
3.83
14.27
22.61
28.05
30.46
30.24
27.93
24.11
19.25
13.81
8.34
3.50
-0.06
-1.94
-2.26
-1.60
-0.84
-0.80
-1.96
-4.33
-7.71
-11.86
-16.60
-21.69
-26.54
-30.09
-30.94
-27.93
-20.66
-9.88
2.49
14.11
23.01
28.29
30.21
29.88
28.43
26.52
24.04
20.59
15.97
10.59
5.42
1.54
-0.42
-0.64
-0.06
0.15
-0.87
-3.39
-7.20
-11.83
-16.93
-22.16
-27.11
-31.03
-32.84
-31.47
-26.31
-17.62
-6.65
4.86
15.06
22.64
27.07
28.49
27.44
24.53
20.33
15.38
10.22
5.44
1.57
-1.06
-2.47
-3.02
-3.21
-3.54
-4.31
-5.68
-7.80
-10.92
-15.27
-20.82
-27.01
-32.62
-36.02
-35.74
-31.12
-22.55
-11.48
0.20
10.69
18.87
24.38
27.35
28.17
27.15
24.51
20.56
15.74
10.75
6.29
2.90
0.76
-0.41
-1.08
-1.80
-2.88
-4.40
-6.33
-8.72
-11.83
-16.01
-21.36
-27.38
-32.83
-36.00
-35.29
-29.93
-20.34
-8.07
4.73
16.08
24.66
30.00
32.32
32.12
29.98
26.33
21.66
16.47
11.39
7.02
3.81
1.91
1.14
1.07
1.19
1.06
0.38
-1.06
-3.41
-6.90
-11.68
-17.68
-24.37
-30.60
-34.79
-35.35
-31.26
-22.56
-10.44
3.09
15.78
25.85
32.40
35.46
35.68
33.91
30.84
26.94
22.44
17.60
12.76
8.32
4.69
2.02
0.19
-1.16
-2.48
-4.12
-6.25
-8.83
-11.87
-15.49
-19.95
-25.35
-31.30
-36.67
-39.80
-39.03
-33.48
-23.55
-10.84
2.38
14.01
22.83
28.51
31.41
31.99
30.55
27.25
22.38
16.60
10.87
6.13
2.95
1.32
0.73
0.52
0.18
-0.55
-1.67
-3.16
-5.11
-7.90
-11.93
-17.38
-23.91
-30.46
-35.40
-36.97
-33.91
-26.12
-14.69
-1.57
11.07
21.58
29.23
34.04
36.45
36.79
35.27
31.98
27.23
21.66
16.19
11.66
8.57
6.85
6.06
5.54
4.82
3.66
2.10
0.22
-2.08
-5.14
-9.40
-14.99
-21.38
-27.27
-30.88
-30.51
-25.24
-15.40
-2.57
10.98
22.99
31.89
37.09
38.85
37.93
35.13
31.07
26.20
20.93
15.65
10.81
6.79
3.75
1.61
0.09
-1.16
-2.44
-3.98
-5.95
-8.59
-12.14
-16.80
-22.47
-28.53
-33.84
-36.95
-36.50
-31.74
-22.84
-10.89
2.33
14.90
25.19
32.21
35.68
35.93
33.67
29.73
24.88
19.72
14.68
10.03
5.96
2.59
-0.00
-1.84
-3.05
-3.86
-4.61
-5.65
-7.37
-10.13
-14.13
-19.27
-25.05
-30.45
-34.11
-34.66
-31.16
-23.44
-12.30
0.73
13.77
25.05
33.33
38.04
39.28
37.63
33.89
28.90
23.38
17.88
12.76
8.26
4.56
1.74
-0.20
-1.42
-2.19
-2.93
-4.01
-5.77
-8.42
-12.11
-16.84
-22.38
-28.12
-33.00
-35.73
-35.08
-30.35
-21.72
-10.27
2.31
14.24
24.12
31.19
35.28
36.62
35.58
32.62
28.21
22.92
17.39
12.21
7.79
4.33
1.77
-0.06
-1.39
-2.43
-3.35
-4.39
-5.92
-8.39
-12.25
-17.66
-24.24
-31.00
-36.44
-38.95
-37.36
-31.31
-21.42
-9.13
3.78
15.67
25.29
31.93
35.34
35.63
33.24
28.86
23.35
17.56
12.15
7.45
3.57
0.44
-2.01
-3.79
-4.94
-5.55
-5.90
-6.41
-7.48
-9.49
-12.66
-17.02
-22.32
-27.97
-32.99
-36.09
-36.03
-32.01
-24.02
-12.94
-0.38
11.85
22.19
29.70
34.03
35.30
33.91
30.37
25.25
19.21
12.98
7.18
2.32
-1.38
-3.89
-5.37
-6.07
-6.29
-6.33
-6.51
-7.11
-8.43
-10.75
-14.27
-18.96
-24.40
-29.62
-33.26
-33.96
-30.81
-23.69
-13.44
-1.52
10.37
20.78
28.75
33.84
36.02
35.57
32.97
28.86
23.92
18.77
13.83
9.35
5.43
2.22
-0.11
-1.45
-1.87
-1.76
-1.70
-2.31
-4.06
-7.08
-11.30
-16.43
-22.03
-27.46
-31.79
-33.84
-32.54
-27.28
-18.33
-6.87
5.36
16.53
25.31
31.12
34.02
34.47
32.93
29.77
25.27
19.83
14.01
8.51
3.99
0.88
-0.71
-1.02
-0.51
0.25
0.76
0.61
-0.44
-2.54
-5.87
-10.60
-16.75
-23.97
-31.28
-37.13
-39.78
-37.91
-31.34
-21.09
-9.09
2.58
12.39
19.75
24.76
27.71
28.66
27.45
24.00
18.69
12.49
6.65
2.22
-0.43
-1.76
-2.62
-3.78
-5.47
-7.33
-8.73
-9.26
-9.05
-8.92
-10.02
-13.26
-18.86
-26.04
-33.15
-38.26
-39.67
-36.59
-29.31
-18.97
-7.14
4.65
15.23
23.85
30.08
33.67
34.52
32.77
28.88
23.60
17.80
12.31
7.72
4.24
1.73
-0.12
-1.68
-3.21
-4.77
-6.28
-7.59
-8.71
-9.90
-11.64
-14.54
-19.00
-24.82
-31.13
-36.42
-38.99
-37.55
-31.73
-22.26
-10.69
1.09
11.43
19.35
24.55
27.13
27.41
25.68
22.30
17.73
12.59
7.54
3.15
-0.32
-2.89
-4.79
-6.31
-7.63
-8.75
-9.61
-10.15
-10.47
-10.87
-11.87
-14.02
-17.73
-22.89
-28.76
-33.97
-36.86
-36.04
-30.87
-21.82
-10.27
1.86
12.80
21.36
27.14
30.26
31.13
30.09
27.41
23.38
18.46
13.31
8.64
4.98
2.51
1.03
0.10
-0.68
-1.52
-2.40
-3.21
-3.90
-4.76
-6.31
-9.13
-13.53
-19.19
-25.03
-29.49
-30.98
-28.49
-21.98
-12.34
-1.11
10.07
19.84
27.37
32.25
34.37
33.89
31.10
26.59
21.09
15.39
10.11
5.61
1.97
-0.88
-3.07
-4.71
-5.88
-6.67
-7.27
-7.93
-8.98
-10.77
-13.64
-17.73
-22.79
-28.02
-32.18
-33.83
-31.90
-26.05
-16.92
-5.90
5.35
15.35
23.19
28.55
31.41
31.91
30.22
26.58
21.44
15.42
9.24
3.50
-1.35
-5.11
-7.75
-9.33
-10.03
-10.18
-10.19
-10.50
-11.54
-13.55
-16.65
-20.72
-25.40
-30.04
-33.68
-35.14
-33.40
-27.87
-18.76
-7.12
5.42
17.01
26.11
31.85
34.11
33.44
30.77
27.05
23.06
19.15
15.35
11.59
7.89
4.50
1.82
0.19
-0.36
-0.25
-0.16
-0.73
-2.36
-5.14
-8.92
-13.51
-18.66
-23.94
-28.59
-31.45
-31.29
-27.26
-19.32
-8.44
3.70
15.17
24.37
30.33
32.85
32.32
29.49
25.20
20.31
15.45
11.07
7.38
4.46
2.30
0.84
-0.05
-0.56
-0.93
-1.42
-2.27
-3.71
-6.00
-9.45
-14.27
-20.30
-26.86
-32.62
-35.96
-35.49
-30.61
-21.81
-10.55
1.23
11.69
19.61
24.45
26.26
25.43
22.49
18.05
12.78
7.39
2.52
-1.43
-4.32
-6.26
-7.48
-8.24
-8.66
-8.85
-8.95
-9.25
-10.19
-12.25
-15.80
-20.91
-27.11
-33.40
-38.37
-40.51
-38.67
-32.46
-22.47
-10.13
2.73
14.35
23.47
29.54
32.56
32.92
31.16
27.87
23.64
19.08
14.66
10.70
7.28
4.39
1.98
0.01
-1.46
-2.43
-3.02
-3.50
-4.28
-5.85
-8.62
-12.86
-18.43
-24.66
-30.31
-33.85
-33.83
-29.47
-20.91
-9.28
3.67
16.14
26.68
34.42
39.05
40.63
39.49
36.15
31.30
25.74
20.24
15.40
11.45
8.38
5.95
3.95
2.25
0.89
-0.04
-0.59
-0.97
-1.65
-3.24
-6.26
-10.93
-16.90
-23.23
-28.52
-31.26
-30.26
-25.03
-15.96
-4.21
8.53
20.53
30.31
36.96
40.14
40.08
37.43
33.04
27.78
22.42
17.46
13.17
9.62
6.80
4.65
3.15
2.19
1.62
1.14
0.42
-0.93
-3.23
-6.75
-11.62
-17.73
-24.56
-31.14
-36.10
-37.97
-35.68
-28.96
-18.54
-5.99
6.71
17.77
25.99
30.88
32.54
31.49
28.37
23.91
18.84
13.82
9.42
5.96
3.52
1.95
0.98
0.34
-0.18
-0.72
-1.41
-2.39
-3.89
-6.19
-9.58
-14.17
-19.80
-25.79
-31.00
-34.03
-33.58
-28.91
-20.16
-8.39
4.69
17.13
27.26
34.03
37.12
36.87
34.08
29.69
24.59
19.41
14.55
10.21
6.53
3.62
1.60
0.44
-0.05
-0.25
-0.64
-1.64
-3.52
-6.38
-10.26
-15.13
-20.87
-27.06
-32.79
-36.77
-37.51
-33.94
-25.87
-14.22
-0.80
12.20
22.90
30.22
33.95
34.59
32.93
29.73
25.62
21.11
16.66
12.71
9.65
7.65
6.56
5.95
5.28
4.16
2.45
0.28
-2.14
-4.81
-8.01
-12.25
-17.86
-24.58
-31.36
-36.49
-38.14
-34.99
-26.87
-14.76
-0.62
13.30
25.06
33.47
38.19
39.53
38.03
34.36
29.17
23.15
17.07
11.74
7.76
5.35
4.18
3.57
2.77
1.36
-0.59
-2.64
-4.34
-5.66
-7.21
-10.03
-14.98
-22.15
-30.44
-37.81
-41.93
-41.06
-34.86
-24.34
-11.48
1.57
13.18
22.43
29.06
33.12
34.68
33.84
30.86
26.31
21.03
15.93
11.72
8.70
6.70
5.27
3.94
2.36
0.49
-1.56
-3.65
-5.73
-8.00
-10.91
-14.93
-20.32
-26.84
-33.56
-39.03
-41.57
-39.89
-33.56
-23.22
-10.46
2.68
14.31
23.17
28.80
31.40
31.51
29.74
26.60
22.54
17.99
13.43
9.34
6.09
3.85
2.55
1.87
1.42
0.80
-0.25
-1.80
-3.78
-6.16
-9.06
-12.81
-17.72
-23.76
-30.23
-35.67
-38.30
-36.60
-30.06
-19.37
-6.33
6.85
18.25
26.75
32.09
34.57
34.70
32.91
29.59
25.15
20.20
15.45
11.56
8.90
7.48
6.92
6.69
6.35
5.64
4.55
3.16
1.47
-0.70
-3.79
-8.24
-14.18
-21.11
-27.81
-32.57
-33.70
-30.18
-22.11
-10.74
1.92
13.78
23.29
29.74
33.17
34.05
32.92
30.19
26.24
21.47
16.38
11.57
7.54
4.56
2.60
1.35
0.42
-0.51
-1.61
-2.95
-4.56
-6.56
-9.31
-13.22
-18.52
-24.96
-31.56
-36.78
-38.90
-36.67
-29.81
-19.19
-6.56
6.05
16.93
25.05
30.12
32.34
32.15
29.98
26.33
21.77
16.98
12.61
9.14
6.72
5.19
4.17
3.29
2.34
1.27
0.03
-1.44
-3.36
-6.05
-9.78
-14.65
-20.38
-26.24
-31.18
-33.98
-33.57
-29.36
-21.50
-10.83
1.20
12.93
22.79
29.71
33.26
33.60
31.45
27.72
23.32
18.94
14.93
11.35
8.14
5.31
2.96
1.26
0.25
-0.16
-0.40
-0.93
-2.14
-4.21
-7.12
-10.83
-15.27
-20.26
-25.40
-29.86
-32.47
-32.04
-27.87
-20.05
-9.59
1.93
12.83
21.76
27.95
31.15
31.57
29.66
26.09
21.66
17.13
13.08
9.76
7.09
4.80
2.71
0.77
-0.84
-2.00
-2.75
-3.36
-4.27
-5.88
-8.42
-12.01
-16.55
-21.81
-27.24
-31.96
-34.77
-34.50
-30.43
-22.68
-12.24
-0.70
10.19
19.07
25.16
28.30
28.72
26.88
23.38
18.87
14.06
9.59
5.93
3.27
1.49
0.28
-0.69
-1.65
-2.69
-3.74
-4.78
-5.89
-7.28
-9.30
-12.27
-16.38
-21.47
-26.99
-31.96
-35.14
-35.40
-32.03
-25.08
-15.41
-4.42
6.24
15.20
21.61
25.22
26.26
25.28
22.87
19.58
15.85
11.99
8.26
4.88
2.01
-0.17
-1.63
-2.48
-2.91
-3.23
-3.69
-4.48
-5.66
-7.26
-9.39
-12.25
-16.01
-20.58
-25.37
-29.24
-30.83
-28.97
-23.27
-14.28
-3.41
7.55
17.00
23.93
28.02
29.45
28.70
26.23
22.55
18.13
13.46
8.96
4.92
1.51
-1.29
-3.54
-5.29
-6.60
-7.53
-8.20
-8.77
-9.49
-10.60
-12.39
-15.18
-19.15
-24.23
-29.84
-34.89
-37.96
-37.80
-33.81
-26.33
-16.61
-6.36
2.82
9.89
14.51
16.89
17.43
16.48
14.29
11.03
7.01
2.73
-1.26
-4.49
-6.78
-8.23
-9.14
-9.78
-10.30
-10.67
-10.80
-10.72
-10.65
-11.01
-12.30
-14.88
-18.66
-23.02
-26.81
-28.72
-27.65
-23.16
-15.67
-6.33
3.39
12.14
19.04
23.73
26.30
27.02
26.21
24.15
21.09
17.33
13.20
9.07
5.29
2.14
-0.28
-2.03
-3.29
-4.23
-4.97
-5.55
-5.96
-6.37
-7.14
-8.77
-11.66
-15.75
-20.36
-24.21
-25.87
-24.23
-19.02
-10.91
-1.33
8.09
16.05
21.86
25.43
27.01
26.91
25.34
22.45
18.49
13.86
9.06
4.61
0.82
-2.15
-4.39
-6.02
-7.17
-7.95
-8.48
-9.01
-9.90
-11.63
-14.61
-18.93
-24.13
-29.20
-32.75
-33.52
-30.82
-24.82
-16.44
-6.99
2.27
10.42
16.95
21.60
24.23
24.84
23.56
20.73
16.89
12.51
7.94
3.40
-0.93
-4.77
-7.69
-9.38
-9.77
-9.30
-8.73
-8.84
-10.19
-12.85
-16.57
-20.92
-25.44
-29.72
-33.16
-34.92
-34.03
-29.72
-21.81
-11.11
0.86
12.00
20.56
25.56
27.07
26.04
23.72
21.09
18.54
15.76
12.26
7.86
2.96
-1.51
-4.55
-5.67
-5.15
-4.02
-3.49
-4.42
-7.01
-10.85
-15.32
-19.91
-24.31
-28.32
-31.43
-32.81
-31.40
-26.44
-17.91
-6.72
5.48
16.81
25.71
31.38
33.78
33.43
31.03
27.28
22.77
17.97
13.29
9.09
5.65
3.11
1.40
0.39
-0.15
-0.45
-0.76
-1.38
-2.68
-5.06
-8.82
-13.97
-20.04
-26.02
-30.51
-32.07
-29.72
-23.28
-13.53
-1.94
9.72
19.90
27.61
32.42
34.38
33.77
30.97
26.49
20.94
15.00
9.39
4.62
0.97
-1.55
-3.15
-4.11
-4.73
-5.19
-5.66
-6.27
-7.26
-9.05
-12.08
-16.65
-22.57
-28.91
-34.12
-36.42
-34.45
-27.78
-17.12
-4.10
9.28
21.20
30.43
36.39
39.08
38.83
36.21
31.90
26.69
21.29
16.32
12.16
8.96
6.64
5.00
3.76
2.73
1.74
0.68
-0.56
-2.20
-4.57
-8.08
-12.94
-18.97
-25.40
-30.91
-33.93
-33.12
-27.88
-18.58
-6.51
6.51
18.65
28.51
35.30
38.86
39.36
37.20
32.88
27.06
20.48
13.91
8.04
3.30
-0.20
-2.60
-4.16
-5.14
-5.80
-6.34
-6.99
-8.04
-9.84
-12.77
-17.08
-22.67
-28.92
-34.66
-38.33
-38.43
-34.08
-25.36
-13.45
-0.20
12.37
22.68
29.88
33.80
34.79
33.40
30.23
25.83
20.75
15.51
10.57
6.28
2.86
0.39
-1.19
-2.01
-2.36
-2.56
-2.94
-3.80
-5.40
-7.97
-11.64
-16.38
-21.85
-27.23
-31.27
-32.50
-29.73
-22.52
-11.50
1.72
14.97
26.28
34.28
38.57
39.49
37.81
34.36
29.80
24.56
18.99
13.51
8.58
4.67
2.07
0.77
0.49
0.61
0.53
-0.27
-2.06
-4.92
-8.85
-13.79
-19.49
-25.44
-30.64
-33.63
-32.98
-27.74
-18.04
-5.15
8.88
21.77
31.77
38.01
40.53
39.91
36.91
32.24
26.54
20.35
14.22
8.67
4.06
0.56
-1.88
-3.42
-4.27
-4.76
-5.23
-6.13
-7.97
-11.19
-16.00
-22.16
-28.83
-34.68
-38.10
-37.69
-32.73
