1552683516.00
64.000000
-0.00
-0.00
-0.00
-0.00
-0.00
-0.00
-0.00
-0.00
-0.00
-0.00
0.00
0.01
0.01
-0.00
-0.03
-0.05
-0.05
0.00
0.13
0.36
0.66
1.01
1.37
1.72
2.06
2.40
2.79
3.24
3.80
4.42
5.06
5.66
6.20
6.68
7.15
7.68
8.31
9.14
10.09
11.04
11.88
12.56
13.14
13.76
14.65
15.96
17.91
20.32
22.90
25.38
27.58
29.57
31.68
34.32
37.81
42.54
48.15
54.11
59.83
64.97
69.58
74.14
79.35
85.74
93.81
103.05
112.62
121.65
129.55
136.39
142.81
150.16
157.15
166.02
177.33
191.15
206.25
219.72
227.26
224.26
207.37
175.72
131.67
79.00
21.97
-36.23
-94.03
-151.11
-207.48
-262.77
-316.12
-366.13
-412.04
-453.31
-489.45
-519.54
-542.01
-554.85
-556.06
-544.52
-520.14
-484.49
-440.05
-389.68
-335.95
-280.75
-225.27
-170.33
-116.83
-65.90
-19.13
21.94
56.25
83.60
104.69
120.80
133.31
143.18
150.75
155.78
157.80
156.35
151.20
142.52
131.13
118.78
108.07
101.95
102.66
110.66
124.12
139.40
152.38
160.05
161.48
157.69
150.74
142.46
133.78
124.71
114.93
104.35
93.36
82.61
72.68
63.97
56.32
49.36
42.81
36.59
30.86
25.88
21.86
18.89
16.86
15.38
14.02
12.36
10.17
7.53
4.76
2.32
0.56
-0.43
-0.88
-1.14
-1.51
-2.17
-3.02
-3.90
-4.61
-5.08
-5.35
-5.54
-5.75
-5.99
-6.17
-6.14
-5.82
-5.20
-4.45
-3.80
-3.47
-3.57
-4.00
-4.51
-4.83
-4.78
-4.34
-3.65
-2.90
-2.23
-1.72
-1.36
-1.12
-0.99
-0.98
-1.06
-1.19
-1.29
-1.31
-1.21
-1.05
-0.89
-0.81
-0.84
-0.96
-1.13
-1.27
-1.33
-1.29
-1.16
-0.93
-0.63
-0.28
0.08
0.38
0.59
0.71
0.80
0.93
1.16
1.54
2.05
2.63
3.26
3.95
4.77
5.77
6.94
8.21
9.39
10.27
10.62
10.33
9.39
7.92
6.20
4.34
2.43
0.54
-1.35
-3.23
-5.02
-6.58
-7.78
-8.53
-8.87
-8.91
-8.84
-8.79
-8.81
-8.86
-8.83
-8.64
-8.27
-7.81
-7.39
-7.09
-6.91
-6.76
-6.53
-6.12
-5.59
-5.03
-4.59
-4.32
-4.17
-4.01
-3.68
-3.07
-2.19
-1.17
-0.20
0.54
0.95
1.10
1.09
1.06
1.08
1.09
0.97
0.66
0.16
-0.37
-0.78
-0.95
-0.91
-0.83
-0.89
-1.18
-1.59
-1.92
-1.93
-1.55
-0.90
-0.29
0.00
-0.20
-0.81
-1.59
-2.23
-2.53
-2.48
-2.28
-2.23
-2.53
-3.20
-4.10
-5.02
-5.79
-6.42
-6.92
-7.30
-7.43
-7.12
-6.16
-4.55
-2.51
-0.42
1.30
2.40
2.85
2.85
2.66
2.52
2.54
2.68
2.85
2.95
2.93
2.78
2.53
2.21
1.84
1.44
0.98
0.45
-0.18
-0.96
-1.87
-2.86
-3.88
-4.87
-5.79
-6.65
-7.48
-8.27
-8.98
-9.55
-9.94
-10.10
-9.98
-9.43
-8.29
-6.38
-3.63
-0.15
3.76
7.76
11.55
14.96
17.94
20.47
22.49
23.84
24.37
24.02
22.86
21.13
19.11
17.05
15.13
13.38
11.80
10.34
8.97
7.67
6.45
5.33
4.34
3.45
2.64
1.90
1.22
0.64
0.19
-0.14
-0.41
-0.73
-1.20
-1.87
-2.69
-3.59
-4.48
-5.37
-6.27
-7.24
-8.25
-9.16
-9.81
-10.04
-9.84
-9.28
-8.54
-7.77
-7.03
-6.31
-5.54
-4.68
-3.76
-2.86
-2.10
-1.55
-1.26
-1.17
-1.17
-1.15
-0.99
-0.65
-0.17
0.33
0.74
0.96
0.95
0.77
0.49
0.19
-0.11
-0.44
-0.85
-1.38
-1.99
-2.63
-3.25
-3.85
-4.41
-4.94
-5.41
-5.77
-5.91
-5.76
-5.23
-4.29
-2.94
-1.30
0.44
2.02
3.15
3.66
3.49
2.79
1.80
0.77
-0.12
-0.79
-1.27
-1.61
-1.86
-2.04
-2.14
-2.17
-2.16
-2.14
-2.14
-2.16
-2.19
-2.19
-2.16
-2.15
-2.23
-2.47
-2.86
-3.38
-3.92
-4.39
-4.78
-5.14
-5.55
-6.03
-6.50
-6.79
-6.67
-5.95
-4.58
-2.64
-0.32
2.14
4.50
6.54
8.09
9.04
9.40
9.25
8.77
8.16
7.59
7.18
6.92
6.76
6.59
6.34
6.00
5.59
5.13
4.65
4.14
3.59
2.99
2.35
1.69
1.02
0.34
-0.37
-1.10
-1.83
-2.49
-3.03
-3.44
-3.73
-3.90
-3.92
-3.72
-3.22
-2.39
-1.27
0.05
1.43
2.76
3.90
4.79
5.37
5.60
5.49
5.10
4.55
3.97
3.51
3.25
3.20
3.34
3.59
3.87
4.09
4.18
4.06
3.68
3.01
2.06
0.91
-0.34
-1.61
-2.83
-3.98
-5.04
-6.01
-6.92
-7.78
-8.55
-9.13
-9.37
-9.09
-8.19
-6.75
-5.01
-3.34
-2.04
-1.22
-0.79
-0.56
-0.35
-0.17
-0.19
-0.66
-1.72
-3.28
-5.03
-6.61
-7.71
-8.23
-8.30
-8.09
-7.71
-7.15
-6.23
-4.82
-2.96
-0.86
1.05
2.38
2.93
2.70
1.93
0.96
0.08
-0.57
-0.94
-1.11
-1.14
-1.05
-0.76
-0.18
0.74
1.98
3.41
4.86
6.11
7.01
7.41
7.29
6.67
5.68
4.48
3.28
2.25
1.48
0.95
0.51
-0.02
-0.74
-1.65
-2.58
-3.27
-3.50
-3.14
-2.24
-1.03
0.22
1.25
1.89
2.09
1.89
1.37
0.61
-0.26
-1.06
-1.59
-1.66
-1.19
-0.26
0.89
1.95
2.65
2.86
2.65
2.23
1.83
1.59
1.54
1.53
1.38
0.98
0.38
-0.19
-0.47
-0.26
0.41
1.32
2.13
2.56
2.47
1.95
1.23
0.52
-0.05
-0.54
-1.04
-1.66
-2.38
-3.10
-3.69
-4.09
-4.33
-4.50
-4.64
-4.67
-4.40
-3.64
-2.32
-0.59
1.20
2.66
3.52
3.76
3.57
3.27
3.12
3.20
3.40
3.50
3.36
2.97
2.50
2.15
2.04
2.15
2.28
2.24
1.93
1.42
0.87
0.47
0.32
0.35
0.42
0.32
-0.09
-0.83
-1.79
-2.79
-3.64
-4.21
-4.46
-4.38
-4.01
-3.36
-2.41
-1.18
0.25
1.71
3.00
3.90
4.36
4.44
4.31
4.16
4.09
4.11
4.12
4.03
3.79
3.44
3.10
2.87
2.83
2.95
3.14
3.22
3.07
2.66
2.05
1.42
0.88
0.48
0.17
-0.20
-0.75
-1.54
-2.53
-3.62
-4.67
-5.59
-6.25
-6.53
-6.30
-5.52
-4.26
-2.74
-1.28
-0.16
0.49
0.75
0.78
0.79
0.88
1.06
1.23
1.31
1.26
1.14
1.08
1.20
1.52
2.02
2.53
2.90
2.99
2.76
2.29
1.71
1.14
0.64
0.12
-0.49
-1.26
-2.14
-3.02
-3.74
-4.27
-4.59
-4.78
-4.85
-4.80
-4.58
-4.14
-3.48
-2.61
-1.56
-0.40
0.83
2.00
2.99
3.72
4.16
4.35
4.39
4.32
4.16
3.92
3.60
3.26
3.01
2.94
3.07
3.32
3.55
3.60
3.37
2.85
2.13
1.31
0.49
-0.28
-1.01
-1.75
-2.54
-3.37
-4.17
-4.86
-5.41
-5.78
-6.00
-6.04
-5.83
-5.30
-4.37
-3.09
-1.62
-0.20
0.95
1.74
2.20
2.43
2.56
2.63
2.63
2.54
2.35
2.15
2.04
2.04
2.13
2.21
2.21
2.15
2.10
2.11
2.16
2.17
1.98
1.53
0.85
0.05
-0.74
-1.44
-2.04
-2.59
-3.15
-3.76
-4.43
-5.16
-5.93
-6.73
-7.51
-8.14
-8.48
-8.39
-7.75
-6.53
-4.78
-2.68
-0.46
1.61
3.30
4.49
5.15
5.41
5.42
5.30
5.18
5.10
5.09
5.18
5.39
5.68
5.96
6.15
6.16
5.99
5.70
5.34
4.98
4.60
4.14
3.54
2.78
1.90
0.95
-0.04
-1.03
-2.04
-3.03
-3.95
-4.74
-5.33
-5.70
-5.82
-5.69
-5.28
-4.53
-3.44
-2.05
-0.49
1.07
2.42
3.44
4.07
4.30
4.18
3.76
3.14
2.49
1.97
1.71
1.74
1.99
2.32
2.60
2.75
2.78
2.70
2.55
2.31
1.97
1.50
0.88
0.11
-0.82
-1.87
-2.95
-3.95
-4.77
-5.39
-5.87
-6.33
-6.90
-7.59
-8.29
-8.76
-8.76
-8.11
-6.80
-4.93
-2.77
-0.62
1.25
2.62
3.45
3.78
3.80
3.64
3.45
3.25
3.02
2.69
2.26
1.77
1.35
1.11
1.09
1.26
1.52
1.75
1.89
1.90
1.76
1.48
1.06
0.53
-0.07
-0.67
-1.26
-1.85
-2.52
-3.32
-4.22
-5.13
-5.88
-6.30
-6.31
-5.93
-5.25
-4.35
-3.32
-2.17
-0.91
0.41
1.69
2.81
3.68
4.23
4.48
4.49
4.33
4.06
3.73
3.39
3.06
2.82
2.70
2.70
2.80
2.96
3.14
3.29
3.35
3.28
3.04
2.63
2.06
1.36
0.59
-0.20
-0.95
-1.65
-2.32
-2.99
-3.68
-4.34
-4.85
-5.02
-4.71
-3.86
-2.62
-1.23
0.08
1.18
2.09
2.89
3.67
4.41
4.93
5.03
4.57
3.55
2.16
0.69
-0.58
-1.47
-2.01
-2.33
-2.57
-2.86
-3.17
-3.40
-3.44
-3.25
-2.92
-2.60
-2.47
-2.60
-2.96
-3.40
-3.77
-4.00
-4.17
-4.47
-5.09
-6.06
-7.20
-8.18
-8.63
-8.35
-7.39
-6.01
-4.53
-3.15
-1.92
-0.75
0.43
1.57
2.52
3.09
3.24
3.05
2.75
2.59
2.70
3.09
3.70
4.44
5.24
6.02
6.73
7.27
7.56
7.56
7.25
6.69
5.93
5.05
4.12
3.18
2.26
1.38
0.57
-0.17
-0.84
-1.43
-1.96
-2.41
-2.79
-3.07
-3.17
-3.00
-2.47
-1.57
-0.35
1.02
2.37
3.54
4.41
4.90
4.97
4.61
3.90
2.98
2.08
1.40
1.08
1.12
1.34
1.54
1.52
1.22
0.68
0.06
-0.51
-0.94
-1.20
-1.34
-1.44
-1.57
-1.84
-2.30
-3.00
-3.96
-5.08
-6.22
-7.18
-7.78
-7.90
-7.54
-6.73
-5.60
-4.28
-2.92
-1.67
-0.61
0.18
0.72
1.04
1.18
1.19
1.10
0.93
0.74
0.57
0.45
0.35
0.22
0.00
-0.27
-0.53
-0.66
-0.66
-0.59
-0.58
-0.78
-1.27
-2.04
-3.02
-4.14
-5.37
-6.61
-7.75
-8.60
-9.02
-8.94
-8.41
-7.57
-6.57
-5.52
-4.46
-3.38
-2.27
-1.18
-0.16
0.74
1.49
2.07
2.45
2.60
2.54
2.36
2.22
2.36
2.88
3.78
4.83
5.72
6.14
5.90
5.05
3.79
2.39
1.11
0.07
-0.73
-1.34
-1.83
-2.29
-2.77
-3.32
-3.97
-4.72
-5.48
-6.06
-6.27
-6.01
-5.27
-4.17
-2.85
-1.48
-0.10
1.26
2.58
3.80
4.82
5.55
5.91
5.91
5.59
5.06
4.46
3.97
3.71
3.75
4.03
4.38
4.62
4.60
4.32
3.89
3.47
3.22
3.16
3.19
3.15
2.87
2.27
1.39
0.35
-0.71
-1.67
-2.47
-3.11
-3.55
-3.74
-3.57
-2.99
-2.02
-0.74
0.68
2.08
3.31
4.26
4.87
5.11
5.05
4.79
4.49
4.29
4.26
4.37
4.50
4.55
4.43
4.19
3.92
3.71
3.60
3.55
3.42
3.11
2.56
1.81
1.02
0.31
-0.27
-0.77
-1.30
-1.96
-2.78
-3.67
-4.49
-5.11
-5.43
-5.43
-5.11
-4.46
-3.50
-2.24
-0.77
0.77
2.22
3.38
4.12
4.36
4.13
3.56
2.80
2.01
1.30
0.69
0.18
-0.23
-0.50
-0.59
-0.49
-0.27
-0.05
0.02
-0.15
-0.51
-0.95
-1.31
-1.55
-1.74
-2.04
-2.60
-3.43
-4.41
-5.27
-5.78
-5.78
-5.29
-4.44
-3.39
-2.29
-1.21
-0.20
0.70
1.44
2.00
2.44
2.91
3.58
4.55
5.76
7.01
7.96
8.40
8.28
7.80
7.38
7.52
8.53
10.37
12.46
13.85
13.58
11.06
6.48
0.71
-5.11
-10.12
-14.28
-18.36
-23.54
-30.83
-40.55
-52.20
-64.60
-76.07
-84.57
-87.87
-83.92
-71.59
-51.35
-25.64
1.63
26.15
44.57
55.40
59.09
57.40
52.47
46.07
39.45
33.37
28.45
25.10
23.52
23.49
24.43
25.51
25.94
25.26
23.42
20.73
17.71
14.82
12.29
10.10
7.99
5.72
3.13
0.27
-2.67
-5.44
-7.85
-9.77
-11.19
-12.13
-12.64
-12.75
-12.51
-11.90
-10.92
-9.63
-8.11
-6.52
-5.09
-4.01
-3.42
-3.36
-3.72
-4.35
-5.05
-5.62
-5.94
-5.95
-5.72
-5.35
-5.02
-4.85
-4.95
-5.30
-5.81
-6.33
-6.72
-6.91
-6.94
-6.93
-7.05
-7.39
-8.02
-8.87
-9.86
-10.87
-11.81
-12.57
-13.08
-13.31
-13.28
-13.11
-12.91
-12.74
-12.54
-12.12
-11.28
-9.92
-8.14
-6.22
-4.53
-3.32
-2.66
-2.36
-2.11
-1.58
-0.59
0.88
2.73
4.78
6.86
8.84
10.61
12.09
13.22
13.96
14.29
14.25
13.91
13.37
12.71
11.97
11.20
10.38
9.53
8.70
7.99
7.55
7.49
7.89
8.77
10.10
11.81
13.84
16.14
18.65
21.23
23.72
25.95
27.80
29.29
30.50
31.59
32.74
34.04
35.47
36.81
37.71
37.67
36.26
33.24
28.66
22.88
16.43
9.82
3.46
-2.41
-7.63
-12.03
-15.48
-17.94
-19.59
-20.77
-21.89
-23.18
-24.62
-25.90
-26.70
-26.81
-26.30
-25.45
-24.61
-24.03
-23.78
-23.80
-23.88
-23.79
-23.35
-22.40
-20.91
-18.95
-16.67
-14.24
-11.81
-9.49
-7.37
-5.55
-4.10
-3.03
-2.19
-1.36
-0.27
1.23
3.08
5.10
7.06
8.81
10.34
11.68
12.85
13.85
14.59
15.05
15.28
15.46
15.82
16.57
17.86
19.67
21.85
24.11
26.09
27.46
27.93
27.41
25.93
23.67
20.90
17.91
15.01
12.42
10.22
8.38
6.73
5.09
3.31
1.33
-0.85
-3.12
-5.35
-7.39
-9.11
-10.44
-11.44
-12.27
-13.15
-14.27
-15.68
-17.29
-18.89
-20.29
-21.36
-22.06
-22.41
-22.42
-22.08
-21.35
-20.26
-18.89
-17.34
-15.72
-14.11
-12.57
-11.18
-10.04
-9.30
-9.02
-9.14
-9.46
-9.69
-9.60
-9.11
-8.32
-7.44
-6.64
-6.02
-5.53
-5.13
-4.78
-4.52
-4.41
-4.46
-4.58
-4.65
-4.60
-4.46
-4.38
-4.51
-4.89
-5.39
-5.82
-5.97
-5.76
-5.23
-4.47
-3.53
-2.37
-0.89
0.99
3.22
5.60
7.84
9.67
10.91
11.50
11.52
11.11
10.47
9.76
9.12
8.64
8.32
8.12
7.94
7.69
7.27
6.61
5.72
4.62
3.36
1.99
0.56
-0.88
-2.27
-3.57
-4.75
-5.81
-6.81
-7.82
-8.84
-9.76
-10.35
-10.33
-9.52
-7.88
-5.64
-3.16
-0.80
1.15
2.60
3.57
4.13
4.39
4.39
4.20
3.92
3.68
3.61
3.80
4.23
4.82
5.44
5.95
6.26
6.35
6.27
6.07
5.81
5.46
5.00
4.37
3.59
2.75
1.94
1.23
0.61
0.01
-0.63
-1.29
-1.83
-2.02
-1.66
-0.68
0.78
2.49
4.11
5.41
6.25
6.64
6.67
6.42
5.96
5.31
4.46
3.46
2.47
1.65
1.14
0.93
0.82
0.50
-0.33
-1.81
-3.82
-6.05
-8.12
-9.74
-10.77
-11.26
-11.34
-11.24
-11.15
-11.22
-11.52
-12.02
-12.60
-13.01
-13.03
-12.44
-11.17
-9.29
-6.92
-4.26
-1.46
1.32
3.93
6.24
8.18
9.72
10.94
11.95
12.77
13.32
13.42
12.87
11.62
9.82
7.76
5.72
3.86
2.09
0.22
-1.88
-4.20
-6.54
-8.66
-10.50
-12.14
-13.85
-15.81
-18.01
-20.19
-22.01
-23.22
-23.79
-23.86
-23.56
-22.93
-21.79
-19.91
-17.20
-13.80
-10.12
-6.68
-3.88
-1.89
-0.61
0.23
0.88
1.47
2.07
2.65
3.25
3.98
4.98
6.30
7.83
9.27
10.28
10.57
10.10
9.11
8.01
7.27
7.18
7.80
8.90
10.10
11.00
11.40
11.42
11.46
12.06
13.74
16.72
20.94
26.06
31.68
37.41
43.02
48.33
53.17
57.35
60.69
63.10
64.64
65.46
65.69
65.29
64.04
61.58
57.65
52.23
45.63
38.45
31.34
24.80
19.03
13.91
9.02
3.87
-1.98
-8.82
-16.63
-25.15
-33.84
-42.09
-49.32
-55.17
-59.55
-62.55
-64.31
-64.86
-64.18
-62.22
-59.14
-55.29
-51.15
-47.13
-43.41
-39.91
-36.46
-33.00
-29.70
-26.84
-24.66
-23.13
-22.01
-20.95
-19.75
-18.43
-17.16
-16.05
-15.02
-13.81
-12.11
-9.75
-6.75
-3.23
0.72
5.08
9.79
14.65
19.25
23.07
25.73
27.12
27.40
26.86
25.76
24.31
22.76
21.47
20.95
21.61
23.58
26.58
30.07
33.45
36.30
38.46
39.91
40.63
40.56
39.58
37.65
34.73
30.86
26.04
20.30
13.77
6.75
-0.29
-6.93
-12.93
-18.37
-23.56
-28.82
-34.27
-39.74
-44.83
-49.14
-52.48
-54.86
-56.50
-57.61
-58.38
-58.86
-59.02
-58.78
-58.05
-56.68
-54.58
-51.70
-48.08
-43.90
-39.39
-34.72
-29.97
-25.10
-20.05
-14.82
-9.45
-4.05
1.29
6.54
11.73
16.93
22.17
27.47
32.84
38.29
43.75
49.10
54.04
58.24
61.34
63.12
63.58
62.82
61.03
58.34
54.76
50.23
44.69
38.18
30.91
23.21
15.53
8.30
1.84
-3.71
-8.41
-12.48
-16.10
-19.37
-22.22
-24.48
-26.02
-26.85
-27.19
-27.35
-27.57
-27.88
-28.08
-27.83
-26.88
-25.16
-22.95
-20.62
-18.57
-17.00
-15.89
-15.05
-14.32
-13.65
-13.17
-13.07
-13.40
-13.96
-14.36
-14.22
-13.41
-12.17
-11.00
-10.37
-10.39
-10.68
-10.49
-9.06
-6.04
-1.58
3.70
9.06
13.98
18.33
22.27
25.99
29.49
32.45
34.43
35.06
34.32
32.57
30.40
28.38
26.85
25.82
25.01
24.01
22.45
20.06
16.74
12.50
7.48
2.02
-3.37
-8.06
-11.51
-13.51
-14.41
-14.96
-16.08
-18.34
-21.72
-25.52
-28.72
-30.43
-30.31
-28.69
-26.35
-24.16
-22.73
-22.26
-22.62
-23.54
-24.85
-26.48
-28.47
-30.84
-33.51
-36.30
-38.97
-41.33
-43.31
-44.96
-46.40
-47.69
-48.75
-49.36
-49.25
-48.21
-46.24
-43.53
-40.36
-36.94
-33.34
-29.43
-24.98
-19.77
-13.76
-7.07
0.03
7.21
14.20
20.82
27.00
32.66
37.74
42.12
45.69
48.31
49.96
50.70
50.66
50.08
49.20
48.29
47.54
47.08
46.93
46.99
47.07
46.95
46.48
45.57
44.27
42.68
40.88
38.87
36.56
33.86
30.66
26.98
22.94
18.71
14.44
10.25
6.20
2.38
-1.07
-3.88
-5.81
-6.76
-6.83
-6.34
-5.70
-5.21
-4.95
-4.80
-4.54
-4.04
-3.32
-2.55
-1.88
-1.41
-1.14
-1.07
-1.23
-1.64
-2.31
-3.11
-3.86
-4.39
-4.68
-4.86
-5.12
-5.64
-6.47
-7.53
-8.72
-9.93
-11.03
-11.86
-12.27
-12.18
-11.60
-10.68
-9.57
-8.37
-7.03
-5.39
-3.37
-1.05
1.32
3.41
4.94
5.80
5.98
5.58
4.64
3.21
1.33
-0.91
-3.32
-5.62
-7.52
-8.77
-9.25
-9.01
-8.29
-7.45
-6.82
-6.66
-7.03
-7.83
-8.81
-9.65
-10.06
-9.79
-8.75
-7.01
-4.78
-2.35
-0.04
1.98
3.67
5.16
6.65
8.34
10.37
12.86
15.83
19.21
22.79
26.24
29.08
30.86
31.23
30.17
27.97
25.17
22.33
19.84
17.79
15.97
14.13
12.08
9.84
7.57
5.48
3.68
2.17
0.88
-0.19
-1.00
-1.51
-1.72
-1.76
-1.84
-2.18
-2.89
-3.95
-5.23
-6.50
-7.54
-8.14
-8.14
-7.45
-6.05
-3.97
-1.36
1.62
4.78
7.93
10.87
13.42
15.37
16.55
16.82
16.19
14.84
13.09
11.33
9.81
8.63
7.67
6.81
5.94
5.05
4.17
3.30
2.32
1.07
-0.51
-2.32
-4.06
-5.42
-6.22
-6.53
-6.62
-6.78
-7.19
-7.76
-8.24
-8.31
-7.70
-6.35
-4.37
-2.00
0.47
2.82
4.89
6.63
7.99
8.92
9.38
9.33
8.78
7.93
7.04
6.42
6.23
6.42
6.70
6.72
6.20
5.11
3.64
2.11
0.77
-0.27
-1.07
-1.79
-2.60
-3.63
-4.96
-6.58
-8.39
-10.21
-11.74
-12.68
-12.82
-12.13
-10.81
-9.21
-7.70
-6.57
-5.93
-5.72
-5.77
-5.86
-5.84
-5.68
-5.45
-5.30
-5.37
-5.69
-6.21
-6.81
-7.37
-7.79
-8.00
-7.99
-7.78
-7.43
-7.03
-6.68
-6.46
-6.42
-6.60
-6.96
-7.46
-8.09
-8.78
-9.46
-9.97
-10.12
-9.74
-8.78
-7.27
-5.38
-3.27
-1.10
1.02
2.98
4.65
5.88
6.52
6.43
5.63
4.23
2.49
0.68
-0.99
-2.46
-3.79
-5.04
-6.23
-7.29
-8.08
-8.51
-8.59
-8.42
-8.16
-7.94
-7.84
-7.92
-8.21
-8.71
-9.33
-9.93
-10.27
-10.13
-9.46
-8.32
-6.83
-5.06
-2.96
-0.40
2.62
5.89
9.02
11.54
13.13
13.75
13.60
13.06
12.41
11.79
11.12
10.28
9.20
7.99
6.88
6.08
5.64
5.42
5.16
4.60
3.69
2.55
1.39
0.35
-0.62
-1.71
-3.08
-4.75
-6.53
-8.13
-9.28
-9.83
-9.79
-9.22
-8.18
-6.68
-4.74
-2.46
-0.06
2.18
4.01
5.31
6.13
6.60
6.88
7.03
7.05
6.86
6.47
5.98
5.60
5.55
5.93
6.58
7.19
7.44
7.14
6.34
5.30
4.31
3.59
3.15
2.84
2.46
1.85
1.03
0.10
-0.75
-1.36
-1.65
-1.62
-1.30
-0.73
0.15
1.41
3.06
5.01
6.99
8.61
9.50
9.51
8.72
7.43
6.01
4.74
3.67
2.68
1.63
0.41
-0.89
-2.14
-3.25
-4.22
-5.19
-6.29
-7.56
-8.87
-9.99
-10.69
-10.91
-10.78
-10.61
-10.70
-11.21
-12.06
-12.98
-13.64
-13.73
-13.12
-11.85
-10.10
-8.07
-5.90
-3.67
-1.45
0.62
2.36
3.53
3.99
3.78
3.08
2.16
1.30
0.64
0.28
0.23
0.52
1.12
1.94
2.77
3.41
3.68
3.57
3.19
2.73
2.32
1.99
1.61
1.01
0.07
-1.21
-2.68
-4.13
-5.32
-6.04
-6.15
-5.60
-4.42
-2.69
-0.55
1.80
4.12
6.15
7.64
8.48
8.63
8.17
7.24
6.00
4.60
3.19
1.93
0.95
0.36
0.15
0.17
0.26
0.21
-0.12
-0.75
-1.67
-2.84
-4.27
-5.98
-8.01
-10.26
-12.56
-14.66
-16.29
-17.26
-17.49
-16.96
-15.74
-13.87
-11.48
-8.75
-5.92
-3.27
-1.06
0.58
1.66
2.31
2.70
3.01
3.34
3.71
4.11
4.48
4.79
4.99
5.06
5.01
4.81
4.42
3.82
3.04
2.16
1.34
0.72
0.39
0.28
0.22
-0.01
-0.58
-1.56
-2.82
-4.13
-5.20
-5.78
-5.74
-5.06
-3.79
-2.00
0.20
2.67
5.18
7.46
9.21
10.25
10.57
10.37
9.92
9.48
9.17
8.92
8.64
8.24
7.76
7.26
6.81
6.40
5.95
5.37
4.65
3.85
3.07
2.38
1.77
1.15
0.42
-0.50
-1.58
-2.70
-3.71
-4.41
-4.65
-4.36
-3.50
-2.20
-0.61
1.05
2.58
3.90
5.00
5.94
6.76
7.45
7.90
8.05
7.88
7.47
7.01
6.66
6.55
6.67
6.90
7.12
7.27
7.33
7.32
7.25
7.10
6.81
6.37
5.76
5.01
4.14
3.19
2.19
1.20
0.28
-0.45
-0.87
-0.93
-0.58
0.21
1.41
2.97
4.79
6.65
8.33
9.57
10.19
10.10
9.31
7.89
5.99
3.73
1.28
-1.21
-3.57
-5.64
-7.33
-8.62
-9.64
-10.54
-11.51
-12.66
-14.04
-15.59
-17.23
-18.87
-20.49
-22.11
-23.80
-25.68
-27.84
-30.27
-32.77
-34.98
-36.41
-36.60
-35.32
-32.64
-28.94
-24.75
-20.61
-16.87
-13.66
-10.96
-8.68
-6.78
-5.27
-4.22
-3.64
-3.46
-3.52
-3.64
-3.68
-3.62
-3.49
-3.29
-2.94
-2.29
-1.22
0.22
1.78
3.12
3.97
4.28
4.22
4.04
3.82
3.40
2.45
0.71
-1.81
-4.70
-7.34
-9.14
-9.76
-9.23
-7.87
-6.05
-4.12
-2.26
-0.53
1.09
2.60
4.01
5.28
6.40
7.39
8.28
9.11
9.93
10.76
11.61
12.50
13.47
14.57
15.81
17.10
18.23
18.92
18.92
18.07
16.47
14.37
12.14
10.06
8.23
6.52
4.71
2.66
0.49
-1.43
-2.55
-2.44
-0.97
1.55
4.49
7.08
8.67
8.89
7.75
5.63
3.14
1.01
-0.21
-0.27
0.59
1.77
2.45
1.99
0.20
-2.50
-5.20
-6.89
-6.87
-5.05
-2.02
1.29
3.96
5.49
5.86
5.40
4.50
3.34
1.81
-0.28
-3.01
-6.22
-9.50
-12.41
-14.65
-16.15
-17.03
-17.43
-17.39
-16.74
-15.24
-12.67
-8.94
-4.22
1.12
6.61
11.71
16.02
19.30
21.55
22.97
23.87
24.57
25.25
25.90
26.36
26.42
25.94
24.89
23.37
21.47
19.20
16.53
13.41
9.93
6.38
3.24
1.03
0.07
0.39
1.64
3.31
4.82
5.82
6.19
6.11
5.91
6.01
6.80
8.56
11.37
15.14
19.51
24.02
28.13
31.39
33.51
34.41
34.14
32.89
30.85
28.15
24.88
21.02
16.59
11.72
6.73
2.08
-1.84
-4.89
-7.30
-9.56
-12.25
-15.73
-20.01
-24.79
-29.63
-34.16
-38.25
-41.95
-45.40
-48.69
-51.76
-54.35
-56.13
-56.75
-56.06
-54.09
-51.12
-47.52
-43.62
-39.61
-35.53
-31.36
-27.10
-22.90
-18.95
-15.47
-12.55
-10.19
-8.28
-6.71
-5.46
-4.53
-3.90
-3.53
-3.26
-3.02
-2.75
-2.50
-2.38
-2.47
-2.78
-3.28
-3.89
-4.61
-5.55
-6.82
-8.48
-10.44
-12.46
-14.23
-15.48
-16.13
-16.26
-16.02
-15.55
-14.88
-13.97
-12.82
-11.55
-10.52
-10.11
-10.62
-12.10
-14.29
-16.75
-19.05
-20.94
-22.44
-23.66
-24.71
-25.49
-25.69
-24.94
-23.02
-19.95
-16.07
-11.82
-7.57
-3.44
0.69
5.00
9.59
14.29
18.69
22.35
24.98
26.57
27.42
27.95
28.53
29.41
30.65
32.24
34.11
36.17
38.29
40.32
42.11
43.60
44.81
45.79
46.59
47.16
47.36
47.08
46.28
45.05
43.47
41.64
39.60
37.39
35.10
32.82
30.63
28.45
26.13
23.54
20.66
17.63
14.66
11.89
9.37
7.03
4.86
2.89
1.26
0.05
-0.73
-1.14
-1.25
-1.02
-0.34
0.86
2.50
4.35
6.08
7.38
8.02
7.88
6.87
4.93
2.13
-1.27
-4.79
-7.84
-9.90
-10.78
-10.64
-9.95
-9.26
-8.95
-9.13
-9.68
-10.36
-11.03
-11.70
-12.48
-13.52
-14.87
-16.43
-18.05
-19.59
-21.01
-22.37
-23.77
-25.28
-26.82
-28.19
-29.10
-29.26
-28.51
-26.80
-24.27
-21.16
-17.73
-14.25
-10.92
-7.88
-5.19
-2.85
-0.81
0.99
2.65
4.26
5.91
7.69
9.65
11.77
13.96
16.08
17.92
19.32
20.18
20.44
20.13
19.23
17.74
15.70
13.21
10.55
8.01
5.88
4.28
3.11
2.18
1.25
0.28
-0.64
-1.30
-1.48
-1.12
-0.33
0.63
1.49
2.05
2.24
2.09
1.67
0.99
0.04
-1.28
-2.98
-4.97
-7.05
-8.95
-10.48
-11.55
-12.23
-12.60
-12.68
-12.34
-11.39
-9.76
-7.58
-5.22
-3.15
-1.70
-0.99
-0.91
-1.21
-1.69
-2.27
-2.94
-3.75
-4.68
-5.60
-6.29
-6.51
-6.04
-4.75
-2.69
-0.08
2.74
5.39
7.61
9.28
10.42
11.09
11.30
11.01
10.13
8.68
6.82
4.87
3.19
2.09
1.70
1.98
2.73
3.65
4.48
5.02
5.22
5.12
4.81
4.40
3.95
3.49
3.08
2.80
2.69
2.74
2.79
2.64
2.12
1.23
0.22
-0.50
-0.52
0.38
2.12
4.37
6.69
8.68
10.11
10.92
11.13
10.76
9.82
8.26
6.10
3.44
0.49
-2.42
-4.97
-6.93
-8.17
-8.68
-8.55
-7.94
-7.01
-5.97
-5.02
-4.36
-4.12
-4.31
-4.84
-5.50
-6.08
-6.44
-6.52
-6.40
-6.22
-6.11
-6.19
-6.46
-6.84
-7.15
-7.20
-6.83
-5.99
-4.75
-3.31
-1.90
-0.69
0.21
0.80
1.12
1.18
0.96
0.39
-0.50
-1.64
-2.79
-3.64
-3.93
-3.56
-2.66
-1.54
-0.63
-0.24
-0.50
-1.27
-2.24
-3.10
-3.66
-3.89
-3.94
-4.04
-4.40
-5.11
-6.17
-7.48
-8.84
-10.06
-10.93
-11.24
-10.89
-9.86
-8.26
-6.31
-4.25
-2.31
-0.64
0.65
1.50
1.87
1.76
1.22
0.38
-0.54
-1.27
-1.57
-1.34
-0.63
0.34
1.29
1.99
2.29
2.20
1.80
1.21
0.50
-0.27
-1.01
-1.69
-2.25
-2.71
-3.21
-3.89
-4.87
-6.12
-7.51
-8.83
-9.91
-10.60
-10.84
-10.54
-9.61
-7.98
-5.76
-3.22
-0.76
1.26
2.72
3.72
4.50
5.25
5.95
6.48
6.68
6.58
6.36
6.29
6.49
6.89
7.28
7.42
7.20
6.64
5.86
4.94
3.90
2.73
1.47
0.21
-0.97
-1.99
-2.89
-3.73
-4.55
-5.34
-6.04
-6.59
-6.99
-7.23
-7.25
-6.94
-6.16
-4.78
-2.81
-0.35
2.36
5.03
7.38
9.17
10.24
10.54
10.15
9.27
8.14
7.01
6.03
5.24
4.63
4.16
3.82
3.60
3.47
3.38
3.26
3.06
2.82
2.64
2.62
2.77
3.00
3.10
2.87
2.21
1.16
-0.09
-1.32
-2.32
-3.03
-3.44
-3.63
-3.59
-3.30
-2.66
-1.65
-0.34
1.07
2.31
3.19
3.64
3.71
3.55
3.30
3.04
2.74
2.34
1.78
1.05
0.22
-0.59
-1.25
-1.68
-1.90
-1.98
-2.04
-2.11
-2.15
-2.07
-1.80
-1.40
-1.03
-0.90
-1.16
-1.79
-2.60
-3.38
-3.99
-4.43
-4.79
-5.16
-5.53
-5.72
-5.59
-5.01
-4.00
-2.63
-1.00
0.79
2.71
4.73
6.77
8.68
10.25
11.34
11.87
11.90
11.52
10.85
10.08
9.36
8.84
8.58
8.61
8.86
9.23
9.56
9.67
9.62
9.46
9.20
8.74
7.93
6.70
5.10
3.10
0.81
-1.43
-3.30
-4.71
-5.74
-6.55
-7.17
-7.49
-7.51
-7.13
-5.80
-3.20
0.67
5.34
10.13
14.57
18.44
21.52
24.00
26.78
30.71
36.30
43.56
52.22
62.14
73.27
85.31
93.68
94.63
86.73
72.10
54.67
37.65
22.56
11.42
2.67
-4.72
-10.51
-14.25
-15.84
-16.04
-16.35
-17.91
-21.28
-26.69
-33.41
-40.03
-45.33
-48.69
-50.23
-50.50
-49.99
-48.98
-47.89
-46.82
-45.61
-44.19
-42.61
-41.06
-39.73
-38.66
-37.76
-37.01
-36.26
-35.24
-33.75
-31.64
-28.84
-25.35
-21.26
-16.81
-12.49
-8.78
-6.03
-4.35
-3.63
-3.59
-3.95
-4.43
-4.87
-5.21
-5.41
-5.51
-5.61
-5.84
-6.33
-7.10
-7.98
-8.68
-8.85
-8.20
-6.57
-4.00
-0.76
2.84
6.39
9.59
12.19
14.09
15.21
15.51
15.03
13.87
12.22
10.33
8.46
6.81
5.48
4.43
3.52
2.61
1.55
0.28
-1.26
-3.09
-5.18
-7.34
-9.25
-10.45
-10.51
-9.24
-6.87
-4.03
-1.66
-0.60
-1.32
-3.66
-6.95
-10.28
-12.91
-14.48
-14.99
-14.64
-13.57
-11.82
-9.40
-6.40
-3.11
0.08
2.83
5.10
7.13
9.44
12.48
16.52
21.48
27.02
32.68
38.05
42.81
46.74
49.58
50.96
50.42
47.58
42.40
35.34
27.36
19.62
13.04
7.99
4.17
0.93
-2.38
-6.01
-9.76
-13.06
-15.36
-16.39
-16.23
-15.24
-13.78
-12.06
-10.01
-7.40
-4.04
0.03
4.38
8.39
11.47
13.34
14.10
14.18
13.99
13.69
13.09
11.87
9.77
6.87
3.52
0.14
-2.99
-5.86
-8.67
-11.66
-14.91
-18.36
-21.84
-25.21
-28.38
-31.33
-34.04
-36.50
-38.69
-40.63
-42.36
-43.89
-45.24
-46.39
-47.31
-47.94
-48.22
-48.09
-47.50
-46.53
-45.35
-44.18
-43.15
-42.16
-40.81
-38.57
-35.08
-30.34
-24.84
-19.32
-14.50
-10.76
-8.07
-6.07
-4.33
-2.56
-0.58
1.69
4.35
7.53
11.25
15.36
19.48
23.08
25.68
26.97
26.95
25.79
23.83
21.37
18.69
16.07
13.92
12.84
13.53
16.60
22.28
30.29
39.83
49.79
59.05
66.77
72.42
75.82
76.93
75.79
72.54
67.52
61.31
54.64
48.25
42.61
37.88
33.81
30.03
26.18
22.12
17.92
13.82
10.05
6.73
3.88
1.40
-0.79
-2.74
-4.45
-5.95
-7.29
-8.53
-9.78
-11.14
-12.65
-14.25
-15.80
-17.12
-18.05
-18.53
-18.63
-18.52
-18.43
-18.49
-18.77
-19.18
-19.57
-19.79
-19.76
-19.43
-18.80
-17.89
-16.74
-15.42
-14.01
-12.62
-11.34
-10.22
-9.26
-8.42
-7.65
-6.93
-6.32
-5.94
-5.90
-6.25
-6.96
-7.93
-9.06
-10.30
-11.68
-13.22
-14.91
-16.60
-18.02
-18.83
-18.72
-17.58
-15.50
-12.77
-9.77
-6.83
-4.20
-1.93
0.02
1.76
3.39
5.00
6.58
8.02
9.11
9.57
9.20
7.94
5.97
3.63
1.27
-0.89
-2.88
-4.87
-6.95
-9.01
-10.75
-11.84
-12.09
-11.66
-10.92
-10.31
-10.12
-10.42
-11.04
-11.80
-12.57
-13.32
-14.05
-14.73
-15.20
-15.29
-14.91
-14.10
-13.02
-11.87
-10.79
-9.82
-8.88
-7.88
-6.78
-5.61
-4.44
-3.35
-2.41
-1.63
-1.07
-0.78
-0.78
-1.02
-1.34
-1.51
-1.35
-0.84
-0.09
0.69
1.31
1.69
1.86
1.86
1.72
1.37
0.76
-0.02
-0.70
-0.79
0.21
2.70
6.77
12.17
18.40
24.81
30.76
35.72
39.31
41.34
41.77
40.79
38.74
36.06
33.21
30.50
28.08
25.97
24.13
22.57
21.36
20.51
19.92
19.37
18.55
17.24
15.47
13.48
11.58
10.05
8.93
8.09
7.32
6.46
5.53
4.66
4.04
3.80
4.03
4.76
6.02
7.84
10.20
12.90
15.50
17.40
18.04
17.18
15.12
12.60
10.60
9.92
10.78
12.87
15.48
17.92
19.82
21.17
22.14
22.77
22.89
22.13
20.26
17.37
13.94
10.64
8.08
6.46
5.44
4.40
2.67
-0.12
-3.88
-8.19
-12.51
-16.47
-20.04
-23.41
-26.71
-29.86
-32.44
-33.88
-33.70
-31.77
-28.40
-24.20
-19.80
-15.67
-11.96
-8.61
-5.48
-2.59
-0.23
1.18
1.28
-0.05
-2.51
-5.49
-8.30
-10.43
-11.79
-12.64
-13.42
-14.45
-15.77
-17.13
-18.23
-18.86
-19.10
-19.27
-19.68
-20.49
-21.60
-22.74
-23.60
-24.11
-24.40
-24.80
-25.59
-26.88
-28.51
-30.15
-31.43
-32.03
-31.82
-30.82
-29.17
-27.06
-24.66
-22.08
-19.44
-16.82
-14.35
-12.09
-10.06
-8.14
-6.15
-3.90
-1.32
1.50
4.33
6.95
9.19
11.04
12.65
14.16
15.72
17.38
19.14
20.93
22.66
24.22
25.56
26.72
27.82
29.03
30.43
31.98
33.47
34.65
35.38
35.77
36.19
37.14
39.01
41.85
45.30
48.64
51.08
51.98
51.18
49.08
46.45
44.21
42.97
42.72
42.79
42.16
39.98
36.15
31.42
27.16
24.64
24.37
25.69
27.05
26.55
22.70
14.82
3.21
-11.02
-26.02
-39.36
-48.41
-51.08
-46.82
-37.35
-26.38
-18.34
-16.38
-20.95
-29.61
-38.34
-43.57
-43.86
-40.19
-34.94
-30.41
-27.62
-26.27
-25.51
-24.84
-24.56
-25.40
-27.92
-31.92
-36.38
-39.94
-41.54
-40.82
-38.29
-34.95
-31.81
-29.52
-28.15
-27.29
-26.26
-24.35
-21.01
-16.06
-9.75
-2.85
3.47
7.84
9.22
7.17
2.15
-4.71
-11.92
-18.17
-22.62
-25.07
-25.80
-25.31
-24.17
-22.78
-21.36
-20.00
-18.79
-17.88
-17.56
-18.11
-19.61
-21.82
-24.19
-26.06
-27.06
-27.25
-27.03
-26.80
-26.63
-26.16
-24.78
-22.03
-17.99
-13.35
-9.17
-6.45
-5.71
-6.91
-9.44
-12.56
-15.64
-18.41
-20.88
-23.15
-25.14
-26.42
-26.34
-24.27
-19.98
-13.89
-7.04
-0.91
3.17
4.43
2.97
-0.27
-3.95
-6.77
-7.81
-6.58
-2.94
3.01
10.95
20.34
30.37
40.10
48.82
56.24
62.50
67.85
72.10
74.42
73.52
68.30
58.47
44.81
28.96
12.77
-2.23
-15.23
-25.99
-34.48
-40.41
-43.06
-41.64
-35.71
-25.67
-12.84
0.91
13.78
24.67
33.51
41.12
48.57
56.59
65.13
73.37
80.09
84.02
83.96
78.88
68.13
51.91
31.77
10.70
-7.45
-19.37
-23.84
-22.45
-18.92
-17.33
-20.24
-27.77
-38.13
-49.13
-59.75
-70.62
-83.08
-97.49
-112.22
-124.03
-129.46
-126.52
-115.38
-98.14
-77.83
-57.00
-36.65
-16.32
5.03
27.90
51.78
75.64
98.54
119.86
139.50
157.57
173.60
185.62
190.48
185.07
168.28
141.74
108.83
73.42
38.84
7.20
-20.72
-44.74
-64.46
-78.43
-81.93
-71.78
-50.30
-25.17
-4.74
5.99
7.31
1.01
-10.43
-24.55
-39.60
-54.06
-66.44
-75.30
-79.59
-79.23
-75.36
-69.70
-64.25
-61.14
-61.69
-65.58
-70.54
-73.31
-70.81
-61.51
-45.72
-25.55
-4.41
14.40
28.98
39.39
47.05
53.77
60.81
68.80
77.81
87.60
97.82
108.26
118.54
127.85
134.75
137.44
134.49
125.56
111.71
95.27
79.07
65.39
54.98
46.83
38.78
28.93
16.94
4.35
-6.19
-12.49
-14.34
-13.93
-14.57
-18.84
-26.63
-34.92
-39.15
-35.29
-21.48
1.94
33.40
70.94
112.08
153.22
189.45
215.60
228.22
227.20
215.54
197.41
175.59
150.27
119.92
83.45
41.75
-2.36
-45.73
-86.32
-123.55
-157.26
-186.44
-209.02
-223.00
-228.01
-225.82
-219.70
-212.53
-205.37
-197.06
-185.06
-167.09
-142.55
-112.96
-81.58
-52.36
-28.74
-12.67
-4.22
-1.92
-3.59
-7.25
-11.57
-15.89
-19.99
-23.73
-27.07
-29.96
-32.52
-34.96
-37.39
-39.80
-42.17
-44.59
-47.33
-50.71
-54.71
-58.77
-61.83
-62.71
-60.68
-55.84
-49.03
-41.30
-33.43
-25.61
-17.55
-8.87
0.54
10.40
20.18
29.40
37.80
45.35
52.17
58.43
64.26
69.66
74.35
77.61
78.23
74.81
66.40
53.13
36.59
19.46
4.72
-5.43
-10.17
-10.14
-6.83
-1.78
4.01
10.15
16.55
23.08
29.35
34.83
39.15
42.24
44.31
45.66
46.54
47.08
47.28
47.16
46.74
46.11
45.38
44.70
44.27
44.43
45.62
48.31
52.80
58.99
66.31
73.68
79.64
82.72
81.90
76.95
68.67
58.64
48.66
40.02
33.06
27.13
21.11
14.13
5.99
-2.83
-11.64
-20.01
-28.02
-35.99
-44.42
-54.05
-66.20
-82.73
-105.49
-135.25
-170.69
-208.11
-242.34
-268.38
-282.90
-285.03
-276.03
-258.46
-235.21
-209.23
-183.29
-159.94
-141.11
-127.51
-118.32
-111.50
-104.45
-95.06
-82.42
-67.04
-50.61
-35.35
-23.24
-15.44
-12.05
-12.18
-14.33
-16.94
-18.89
-19.70
-19.48
-18.65
-17.54
-16.05
-13.63
-9.53
-3.33
4.77
13.86
22.68
30.38
36.91
43.17
50.46
59.56
70.04
80.13
87.50
90.46
88.87
84.22
78.88
74.89
73.10
72.88
72.71
71.14
67.51
62.28
56.64
51.95
49.32
49.43
52.07
56.03
59.32
59.70
55.41
45.85
32.07
16.75
3.48
-5.00
-8.06
-7.38
-6.00
-7.04
-12.60
-23.05
-36.66
-49.36
-56.49
-54.13
-40.05
-14.33
20.24
58.49
94.21
122.45
141.62
152.27
155.93
154.27
149.12
142.43
136.16
131.98
131.76
137.54
148.88
162.22
172.11
173.62
163.81
142.14
109.83
61.91
1.80
-59.27
-109.33
-143.90
-166.41
-183.13
-198.68
-217.21
-236.14
-250.13
-255.80
-253.67
-247.53
-241.85
-239.45
-237.04
-231.65
-219.72
-198.70
-169.70
-137.47
-108.17
-86.46
-74.24
-71.20
-76.59
-88.51
-103.78
-118.37
-127.84
-128.34
-117.86
-97.16
-69.41
-39.11
-9.14
20.23
50.58
83.81
120.50
159.12
196.13
226.77
246.34
252.41
245.54
229.20
208.63
189.01
174.17
165.84
163.86
166.81
172.89
180.08
186.08
188.41
184.84
174.25
157.21
136.04
113.97
94.17
78.63
67.80
60.86
56.45
53.36
50.89
48.84
47.31
46.46
46.28
46.65
47.34
48.11
48.73
48.94
48.50
46.94
43.79
38.59
31.39
22.86
14.33
7.48
3.73
3.85
7.47
12.95
17.53
17.79
10.57
-5.95
-31.19
-61.91
-92.81
-118.29
-134.30
-139.25
-133.93
-120.66
-102.21
-81.15
-59.77
-39.91
-23.51
-12.27
-6.87
-6.37
-8.51
-10.62
-10.47
-7.01
0.02
9.26
18.41
25.45
29.77
32.24
34.52
38.01
43.32
50.80
59.24
66.61
71.42
73.72
74.79
76.19
78.96
83.68
91.35
101.19
110.56
115.93
114.38
104.37
85.99
60.84
23.48
-23.52
-71.65
-112.52
-143.25
-165.12
-179.64
-186.77
-187.91
-182.26
-168.79
-149.17
-127.43
-108.17
-94.56
-87.80
-86.94
-90.54
-95.95
-99.44
-98.31
-91.31
-78.20
-59.24
-35.43
-9.04
16.34
37.04
50.61
55.75
52.59
42.89
29.68
16.39
5.88
-0.41
-2.55
-2.02
-1.44
-3.30
-8.49
-15.53
-21.38
-22.98
-19.13
-10.83
-0.65
8.59
15.41
20.07
24.06
28.66
34.11
39.51
43.65
45.69
45.44
42.88
37.70
29.35
17.80
4.43
-7.90
-15.94
-17.63
-13.46
-6.44
-0.54
1.22
-1.85
-8.06
-14.62
-19.15
-20.48
-18.58
-13.80
-6.39
3.42
14.91
26.54
36.23
42.12
43.61
41.47
37.55
33.85
31.58
30.71
30.19
28.55
24.55
17.88
9.28
0.49
-6.23
-8.87
-6.42
0.49
9.52
17.37
21.01
18.99
11.94
2.15
-7.67
-15.52
-20.86
-24.43
-27.52
-31.29
-36.36
-43.04
-51.47
-61.78
-73.56
-85.70
-96.50
-104.22
-107.68
-106.51
-100.95
-91.51
-79.03
-64.46
-49.52
-36.60
-28.22
-25.84
-28.94
-34.96
-40.24
-41.55
-36.36
-23.37
-2.79
23.69
52.93
80.75
102.57
114.53
114.13
102.13
82.09
59.21
38.82
25.20
20.90
26.64
41.69
61.74
81.79
97.18
105.19
104.95
96.81
82.57
65.74
53.17
46.09
43.67
42.40
36.94
22.51
-2.98
-38.09
-79.31
-121.15
-159.50
-191.91
-217.62
-236.13
-245.91
-244.02
-227.38
-194.55
-147.13
-90.63
-32.48
19.07
56.49
74.58
72.00
52.24
23.32
-4.29
-21.44
-22.94
-9.32
14.32
41.18
66.06
87.25
106.10
124.74
143.73
161.22
174.04
180.04
179.65
175.95
172.77
172.58
175.16
177.65
176.24
168.02
152.04
129.10
100.69
67.80
30.58
-11.03
-56.21
-102.43
-145.59
-181.12
-205.69
-218.26
-220.05
-213.74
-201.91
-186.36
-168.23
-148.60
-129.23
-112.83
-101.81
-97.04
-97.02
-97.79
-95.11
-86.44
-72.01
-54.41
-37.14
-22.98
-12.93
-6.27
-0.50
6.58
15.80
26.37
36.89
45.98
53.13
59.05
65.09
73.81
86.39
101.69
116.84
129.27
138.06
144.84
152.80
164.20
180.35
199.10
215.50
224.24
222.60
210.85
191.79
168.79
134.36
86.60
31.61
-19.72
-60.05
-89.38
-113.05
-138.22
-165.55
-190.12
-202.43
-194.39
-163.91
-116.46
-58.81
-3.63
37.07
56.33
53.73
35.87
11.96
-10.10
-26.32
-37.09
-46.90
-61.30
-84.29
-116.53
-153.32
-186.40
-206.86
-208.30
-188.47
-149.93
-97.84
-38.02
23.89
83.04
134.60
174.41
200.02
212.20
214.42
211.70
207.94
203.99
197.56
184.82
162.66
129.92
87.54
37.19
-19.32
-79.96
-141.48
-198.80
-245.29
-274.76
-283.76
-272.88
-246.32
-209.75
-168.13
-124.54
-80.79
-38.77
-1.51
27.05
43.48
46.73
38.89
24.83
10.43
0.37
-3.10
-0.11
7.51
17.63
28.45
38.68
47.21
52.84
54.59
52.53
48.46
46.07
49.82
63.07
86.22
115.59
143.84
161.95
162.30
141.83
103.62
56.16
9.99
-26.35
-49.41
-61.11
-66.21
-68.71
-69.81
-68.06
-61.42
-49.79
-35.99
-24.28
-18.17
-18.44
-23.20
-29.41
-34.72
-38.42
-41.17
-43.73
-46.36
-48.53
-49.56
-49.29
-48.28
-47.52
-47.63
-48.42
-48.89
-47.66
-43.69
-36.75
-27.46
-17.13
-7.30
0.56
5.25
6.12
3.49
-1.15
-5.52
-7.17
-4.59
2.12
11.59
22.20
33.41
46.08
61.53
79.73
98.04
111.71
116.18
109.79
95.09
77.71
63.32
54.41
49.21
43.26
32.58
16.33
-2.86
-20.67
-34.00
-42.59
-48.64
-55.04
-63.44
-73.93
-85.92
-99.28
-114.81
-133.16
-153.34
-172.13
-184.96
-187.96
-179.79
-162.23
-139.07
-114.02
-88.92
-63.13
-34.41
-0.69
38.24
79.82
119.26
151.06
170.65
175.56
165.39
140.99
103.62
55.10
-1.15
-59.09
-110.08
-144.99
-157.44
-146.49
-117.26
-78.88
-40.96
-10.13
11.53
25.86
36.55
46.94
58.87
72.60
87.64
103.44
119.77
136.52
153.28
168.99
182.35
192.52
199.91
206.41
214.35
224.84
236.40
244.82
244.64
231.75
205.45
169.07
128.79
91.07
60.06
36.42
17.78
0.69
-17.32
-36.56
-55.70
-72.72
-86.17
-95.74
-101.97
-105.90
-108.92
-112.85
-119.73
-130.99
-146.15
-162.13
-173.89
-176.67
-168.35
-150.60
-127.99
-105.66
-86.95
-72.61
-61.65
-53.12
-47.31
-45.73
-49.98
-60.29
-74.88
-90.35
-102.74
-108.79
-106.85
-96.97
-80.95
-61.51
-41.48
-23.27
-8.35
2.63
9.57
12.68
12.52
10.01
6.39
2.93
0.40
-1.39
-3.58
-7.76
-15.25
-26.20
-39.33
-52.18
-61.88
-66.11
-63.94
-56.13
-45.04
-34.04
-26.78
-26.26
-33.63
-47.28
-62.60
-73.16
-72.89
-58.69
-31.81
2.45
36.86
65.08
83.65
92.61
94.53
92.89
90.95
91.38
96.10
106.05
120.92
139.11
158.36
176.69
193.15
207.97
222.04
235.91
248.60
257.80
261.03
257.31
247.68
234.34
219.23
202.91
184.35
161.02
130.21
89.94
40.26
-16.82
-77.74
-137.42
-189.09
-225.04
-239.47
-231.14
-205.03
-170.87
-140.22
-122.99
-124.39
-143.69
-170.98
-192.70
-197.97
-186.20
-165.14
-143.12
-124.34
-108.77
-94.53
-80.09
-66.10
-54.63
-48.05
-46.83
-49.35
-53.52
-58.00
-62.61
-67.45
-73.55
-79.50
-82.99
-80.85
-70.32
-50.73
-24.20
5.01
31.84
51.32
59.81
55.63
39.96
16.62
-9.29
-32.95
-51.13
-62.61
-67.81
-68.52
-66.05
-60.70
-52.40
-42.34
-33.94
-32.56
-43.28
-68.47
-106.11
-150.26
-193.05
-227.44
-249.15
-257.00
-252.09
-236.46
-212.24
-181.44
-146.18
-108.85
-71.95
-37.64
-7.40
18.28
39.90
58.82
76.99
96.49
118.75
144.48
173.72
206.38
242.26
280.54
319.04
353.78
379.75
392.88
392.11
380.16
362.37
343.97
327.55
312.19
294.82
272.91
246.67
219.20
194.65
175.75
162.29
151.36
139.08
122.59
101.05
75.57
48.43
22.05
-1.41
-20.02
-32.18
-36.58
-32.80
-22.04
-7.59
5.31
10.77
4.34
-14.88
-43.32
-73.74
-97.84
-109.46
-106.77
-92.53
-72.25
-51.62
-34.33
-21.30
-11.57
-3.54
3.65
9.90
14.36
16.31
15.87
13.92
11.60
9.49
6.96
2.43
-5.99
-19.46
-37.76
-59.15
-80.83
-99.59
-112.55
-117.91
-115.78
-108.66
-101.27
-99.21
-106.76
-124.87
-150.33
-177.05
-198.61
-210.87
-213.18
-207.65
-197.48
-185.30
-172.65
-160.35
-149.50
-141.98
-140.04
-145.16
-156.76
-171.59
-183.91
-186.83
-174.65
-145.30
-101.83
-52.17
-6.73
25.25
39.19
36.73
24.88
12.83
8.27
14.70
30.93
52.59
74.63
93.50
108.08
119.10
127.99
135.74
142.48
147.79
151.22
152.70
152.58
151.13
148.13
142.77
134.15
121.83
106.35
89.23
72.41
57.70
46.22
38.30
33.68
31.70
31.46
31.87
31.84
30.38
27.04
22.04
16.21
10.61
5.96
2.29
-0.92
-4.38
-8.38
-12.52
-15.87
-17.45
-16.81
-14.33
-11.03
-8.06
-6.10
-5.08
-4.33
-3.02
-0.74
2.29
5.38
7.82
9.27
9.94
10.35
10.95
11.83
12.62
12.79
11.90
9.89
7.08
4.08
1.53
-0.04
-0.27
0.94
3.53
7.20
11.46
15.70
19.30
21.84
23.14
23.36
22.87
22.14
21.56
21.34
21.35
21.09
19.73
16.41
10.66
2.72
-6.29
-14.69
-20.87
-23.89
-23.84
-21.74
-19.00
-16.80
-15.75
-15.78
-16.47
-17.31
-17.97
-18.32
-18.32
-17.99
-17.33
-16.38
-15.16
-13.76
-12.27
-10.77
-9.38
-8.19
-7.26
-6.48
-5.67
-4.62
-3.30
-1.92
-0.89
-0.61
-1.24
-2.57
-4.10
-5.29
-5.88
-6.01
-6.13
-6.68
-7.87
-9.45
-10.93
-11.79
-11.74
-10.88
-9.57
-8.21
-7.07
-6.21
-5.46
-4.66
-3.70
-2.57
-1.34
-0.12
1.04
2.09
2.98
3.70
4.25
4.68
5.05
5.37
5.62
5.72
5.59
5.20
4.56
3.74
2.83
1.92
1.04
0.21
-0.59
-1.43
-2.43
-3.71
-5.38
-7.44
-9.71
-11.81
-13.17
-13.23
-11.65
-8.47
-4.16
0.51
4.76
8.06
10.29
11.64
12.45
12.96
13.19
13.01
12.30
11.10
9.64
8.25
7.16
6.44
5.96
5.49
4.81
3.86
2.76
1.74
1.00
0.60
0.37
-0.02
-0.96
-2.67
-5.04
-7.63
-9.79
-10.89
-10.59
-8.93
-6.34
-3.38
-0.54
1.92
3.96
5.68
7.14
8.31
9.09
9.36
9.13
8.52
7.76
7.10
6.65
6.43
6.32
6.16
5.86
5.40
4.86
4.30
3.74
3.12
2.32
1.29
0.03
-1.34
-2.70
-3.96
-5.10
-6.16
-7.09
-7.72
-7.77
-6.99
-5.25
-2.74
0.13
2.85
5.03
6.56
7.54
8.21
8.71
9.03
9.02
8.52
7.56
6.31
5.12
4.30
4.07
4.41
5.12
5.89
6.44
6.59
6.31
5.68
4.83
3.89
2.89
1.80
0.55
-0.90
-2.51
-4.24
-5.99
-7.67
-9.18
-10.40
-11.15
-11.22
-10.41
-8.65
-6.03
-2.89
0.29
2.96
4.71
5.40
5.16
4.39
3.49
2.78
2.37
2.18
2.10
2.07
2.11
2.30
2.67
3.17
3.61
3.78
3.56
2.95
2.16
1.43
1.02
1.00
1.28
1.63
1.79
1.58
0.92
-0.12
-1.47
-3.08
-4.91
-6.91
-8.91
-10.57
-11.51
-11.39
-10.14
-7.99
-5.42
-3.01
-1.18
-0.08
0.43
0.64
0.80
0.97
1.10
1.07
0.85
0.56
0.41
0.54
0.94
1.44
1.79
1.78
1.36
0.63
-0.24
-1.10
-1.90
-2.64
-3.40
-4.19
-4.97
-5.63
-6.07
-6.27
-6.36
-6.58
-7.17
-8.21
-9.58
-10.88
-11.70
-11.75
-11.05
-9.91
-8.73
-7.85
-7.36
-7.13
-7.01
-6.95
-7.04
-7.42
-8.12
-8.96
-9.63
-9.86
-9.65
-9.23
-8.89
-8.79
-8.75
-8.32
-7.10
-5.00
-2.45
-0.13
1.32
1.73
1.44
1.16
1.46
2.55
4.00
5.13
5.36
4.54
3.07
1.59
0.63
0.37
0.47
0.47
0.06
-0.63
-1.09
-0.72
0.79
3.23
5.80
7.56
7.88
6.73
4.72
2.75
1.54
1.33
1.77
2.27
2.35
1.96
1.45
1.30
1.83
3.03
4.49
5.74
6.45
6.58
6.37
6.15
6.14
6.34
6.55
6.51
6.05
5.15
3.92
2.49
0.99
-0.49
-1.86
-2.99
-3.72
-3.82
-3.18
-1.76
0.29
2.68
5.05
7.02
8.28
8.65
8.10
6.81
5.03
3.12
1.37
0.03
-0.78
-1.05
-0.91
-0.53
-0.13
0.14
0.27
0.34
0.49
0.79
1.20
1.61
1.87
1.94
1.88
1.80
1.76
1.70
1.43
0.79
-0.28
-1.67
-3.12
-4.33
-5.12
-5.44
-5.35
-4.95
-4.27
-3.33
-2.10
-0.62
1.01
2.57
3.86
4.74
5.14
5.12
4.82
4.31
3.66
2.86
1.94
1.01
0.28
0.02
0.42
1.50
3.03
4.61
5.86
6.59
6.88
7.09
7.56
8.46
9.59
10.46
10.52
9.44
7.34
4.70
2.22
0.39
-0.64
-1.09
-1.21
-1.13
-0.85
-0.55
-0.88
-2.88
-7.64
-15.64
-26.40
-38.56
-50.44
-60.74
-68.82
-74.46
-77.10
-75.47
-67.75
-52.53
-30.05
-2.73
25.13
48.77
64.65
71.57
70.74
64.91
57.06
49.23
42.30
36.21
30.66
25.59
21.21
17.83
15.45
13.69
11.87
9.33
5.79
1.47
-2.92
-6.53
-8.73
-9.34
-8.79
-7.90
-7.51
-8.10
-9.56
-11.29
-12.52
-12.75
-11.96
-10.64
-9.49
-9.10
-9.60
-10.75
-12.00
-12.84
-13.00
-12.52
-11.73
-10.99
-10.53
-10.33
-10.24
-10.01
-9.47
-8.65
-7.72
-6.93
-6.47
-6.42
-6.70
-7.15
-7.62
-7.99
-8.25
-8.39
-8.40
-8.22
-7.75
-6.90
-5.63
-4.00
-2.19
-0.46
0.94
1.83
2.20
2.15
1.89
1.66
1.56
1.59
1.69
1.79
1.92
2.18
2.72
3.57
4.63
5.66
6.43
6.80
6.77
6.46
5.98
5.33
4.41
3.11
1.40
-0.59
-2.58
-4.29
-5.52
-6.20
-6.39
-6.18
-5.63
-4.75
-3.57
-2.17
-0.73
0.48
1.25
1.43
1.09
0.43
-0.30
-0.87
-1.16
-1.19
-1.02
-0.74
-0.42
-0.10
0.15
0.22
0.03
-0.50
-1.31
-2.26
-3.14
-3.77
-4.09
-4.20
-4.25
-4.42
-4.78
-5.28
-5.79
-6.18
-6.32
-6.13
-5.57
-4.64
-3.40
-2.01
-0.65
0.49
1.29
1.75
1.96
2.05
2.14
2.29
2.52
2.85
3.26
3.72
4.16
4.48
4.58
4.41
4.01
3.44
2.84
2.32
1.93
1.67
1.49
1.26
0.83
0.11
-0.91
-2.09
-3.22
-4.07
-4.45
-4.29
-3.62
-2.54
-1.14
0.49
2.28
4.10
5.79
7.16
8.01
8.25
7.92
7.12
6.05
4.90
3.78
2.76
1.85
1.03
0.26
-0.40
-0.92
-1.26
-1.43
-1.52
-1.65
-1.91
-2.29
-2.69
-2.96
-3.07
-3.09
-3.24
-3.74
-4.70
-5.95
-7.20
-8.05
-8.27
-7.83
-6.91
-5.73
-4.48
-3.17
-1.76
-0.18
1.49
3.06
4.23
4.81
4.76
4.23
3.53
2.96
2.74
2.86
3.14
3.30
3.11
2.52
1.69
0.87
0.25
-0.10
-0.33
-0.65
-1.23
-2.04
-2.95
-3.79
-4.46
-5.02
-5.60
-6.33
-7.16
-7.86
-8.14
-7.78
-6.79
-5.38
-3.92
-2.72
-1.90
-1.35
-0.87
-0.28
0.44
1.14
1.61
1.72
1.48
1.06
0.71
0.64
0.94
1.56
2.35
3.14
3.78
4.23
4.54
4.82
5.16
5.54
5.82
5.83
5.41
4.51
3.25
1.81
0.38
-0.88
-1.88
-2.54
-2.75
-2.40
-1.42
0.10
1.97
3.84
5.39
6.40
6.79
6.63
6.07
5.24
4.24
3.09
1.85
0.63
-0.36
-0.91
-0.87
-0.28
0.61
1.45
1.91
1.84
1.35
0.75
0.37
0.43
0.87
1.41
1.72
1.53
0.82
-0.28
-1.57
-2.92
-4.26
-5.52
-6.55
-7.05
-6.69
-5.33
-3.18
-0.75
1.33
2.69
3.35
3.71
4.22
5.13
6.24
7.06
7.14
6.36
5.00
3.64
2.84
2.86
3.52
4.39
5.00
5.10
4.73
4.15
3.66
3.40
3.19
2.72
1.68
-0.00
-2.06
-4.00
-5.41
-6.10
-6.29
-6.38
-6.63
-7.05
-7.26
-6.82
-5.43
-3.15
-0.40
2.30
4.54
6.17
7.27
7.98
8.41
8.58
8.45
8.02
7.35
6.57
5.83
5.23
4.84
4.64
4.62
4.71
4.85
4.95
4.90
4.63
4.07
3.24
2.17
0.98
-0.23
-1.32
-2.23
-2.96
-3.59
-4.21
-4.90
-5.66
-6.43
-7.08
-7.49
-7.54
-7.12
-6.12
-4.49
-2.27
0.33
2.95
5.16
6.60
7.09
6.68
5.66
4.36
3.15
2.24
1.76
1.71
2.03
2.63
3.43
4.32
5.22
5.98
6.47
6.56
6.25
5.66
5.00
4.43
4.03
3.67
3.18
2.37
1.22
-0.12
-1.43
-2.49
-3.19
-3.54
-3.60
-3.44
-3.07
-2.49
-1.71
-0.76
0.25
1.20
1.97
2.45
2.65
2.60
2.38
2.10
1.80
1.51
1.23
0.98
0.80
0.77
0.95
1.33
1.79
2.12
2.13
1.70
0.87
-0.18
-1.19
-1.97
-2.43
-2.61
-2.66
-2.71
-2.89
-3.27
-3.88
-4.71
-5.70
-6.68
-7.46
-7.85
-7.73
-7.10
-6.02
-4.64
-3.10
-1.59
-0.28
0.66
1.13
1.13
0.78
0.29
-0.15
-0.45
-0.62
-0.73
-0.85
-0.98
-1.04
-0.92
-0.56
0.00
0.66
1.26
1.70
1.94
1.99
1.91
1.72
1.46
1.09
0.60
-0.01
-0.70
-1.40
-2.02
-2.45
-2.60
-2.41
-1.91
-1.18
-0.32
0.53
1.22
1.66
1.81
1.65
1.20
0.53
-0.25
-0.99
-1.54
-1.77
-1.70
-1.41
-1.07
-0.82
-0.71
-0.73
-0.81
-0.89
-0.97
-1.13
-1.41
-1.85
-2.40
-2.97
-3.46
-3.80
-3.96
-3.99
-3.90
-3.74
-3.49
-3.07
-2.37
-1.32
0.06
1.62
3.16
4.48
5.48
6.16
6.60
6.85
6.90
6.68
6.17
5.43
4.58
3.77
3.04
2.28
1.30
-0.05
-1.73
-3.48
-4.93
-5.82
-6.16
-6.23
-6.48
-7.27
-8.70
-10.53
-12.34
-13.72
-14.38
-14.20
-13.16
-11.23
-8.41
-4.79
-0.68
3.41
6.85
9.13
10.03
9.67
8.41
6.73
5.01
3.46
2.18
1.17
0.41
-0.08
-0.32
-0.35
-0.24
-0.12
-0.11
-0.30
-0.69
-1.22
-1.76
-2.17
-2.39
-2.43
-2.42
-2.52
-2.90
-3.61
-4.61
-5.75
-6.85
-7.72
-8.18
-8.09
-7.41
-6.21
-4.71
-3.19
-1.93
-1.06
-0.57
-0.31
-0.12
0.10
0.29
0.36
0.22
-0.07
-0.38
-0.59
-0.63
-0.59
-0.56
-0.60
-0.67
-0.64
-0.46
-0.17
0.02
-0.09
-0.62
-1.45
-2.34
-3.03
-3.36
-3.42
-3.41
-3.55
-3.95
-4.51
-4.97
-5.08
-4.65
-3.73
-2.48
-1.15
0.06
1.08
1.91
2.60
3.15
3.49
3.53
3.22
2.65
1.98
1.42
1.11
1.05
1.11
1.10
0.88
0.42
-0.22
-0.89
-1.50
-2.05
-2.59
-3.21
-3.98
-4.84
-5.71
-6.45
-7.01
-7.39
-7.69
-7.99
-8.36
-8.73
-8.96
-8.83
-8.18
-6.97
-5.34
-3.54
-1.86
-0.49
0.53
1.30
2.00
2.70
3.44
4.11
4.62
4.95
5.14
5.32
5.60
6.10
6.82
7.72
8.67
9.54
10.18
10.51
10.54
10.30
9.92
9.51
9.20
9.09
9.23
9.64
10.27
10.99
11.64
12.07
12.23
12.19
12.14
12.28
12.76
13.52
14.34
14.95
15.08
14.59
13.52
11.99
10.13
8.06
5.89
3.71
1.67
-0.05
-1.33
-2.11
-2.40
-2.33
-2.05
-1.69
-1.38
-1.21
-1.24
-1.47
-1.85
-2.28
-2.69
-3.06
-3.40
-3.75
-4.20
-4.80
-5.63
-6.77
-8.21
-9.88
-11.58
-13.05
-14.02
-14.29
-13.80
-12.60
-10.82
-8.63
-6.25
-3.92
-1.92
-0.48
0.28
0.38
-0.02
-0.69
-1.43
-2.07
-2.48
-2.65
-2.57
-2.34
-2.11
-2.02
-2.19
-2.62
-3.20
-3.83
-4.41
-4.90
-5.31
-5.60
-5.70
-5.51
-5.02
-4.32
-3.60
-3.05
-2.77
-2.69
-2.60
-2.30
-1.67
-0.76
0.30
1.32
2.21
2.98
3.68
4.30
4.78
4.92
4.60
3.82
2.80
1.85
1.26
1.19
1.58
2.17
2.66
2.84
2.62
2.07
1.35
0.61
-0.01
-0.49
-0.84
-1.09
-1.27
-1.42
-1.55
-1.73
-1.98
-2.32
-2.72
-3.08
-3.27
-3.15
-2.66
-1.79
-0.61
0.78
2.22
3.57
4.69
5.47
5.85
5.82
5.45
4.82
4.07
3.32
2.69
2.24
1.98
1.86
1.82
1.81
1.83
1.89
1.99
2.07
2.03
1.80
1.35
0.73
0.06
-0.56
-1.09
-1.53
-1.93
-2.31
-2.63
-2.83
-2.85
-2.67
-2.33
-1.90
-1.46
-1.07
-0.73
-0.41
-0.05
0.38
0.86
1.31
1.59
1.58
1.24
0.66
0.02
-0.48
-0.69
-0.61
-0.34
-0.08
0.04
-0.02
-0.22
-0.45
-0.62
-0.72
-0.82
-1.01
-1.36
-1.83
-2.34
-2.80
-3.15
-3.43
-3.73
-4.11
-4.52
-4.79
-4.71
-4.12
-3.00
-1.50
0.15
1.69
2.94
3.77
4.18
4.20
3.90
3.40
2.80
2.23
1.77
1.49
1.39
1.47
1.69
1.97
2.22
2.30
2.13
1.68
1.02
0.25
-0.52
-1.19
-1.75
-2.21
-2.63
-3.09
-3.63
-4.27
-4.96
-5.57
-5.99
-6.08
-5.80
-5.22
-4.42
-3.53
-2.61
-1.65
-0.68
0.25
1.01
1.45
1.47
1.08
0.44
-0.18
-0.56
-0.61
-0.34
0.11
0.58
1.01
1.39
1.74
2.06
2.28
2.34
2.22
1.96
1.67
1.44
1.28
1.10
0.74
0.13
-0.68
-1.55
-2.25
-2.61
-2.58
-2.20
-1.57
-0.81
0.01
0.86
1.68
2.43
3.02
3.35
3.35
3.03
2.44
1.67
0.81
-0.05
-0.92
-1.81
-2.73
-3.68
-4.58
-5.35
-5.93
-6.28
-6.46
-6.53
-6.55
-6.51
-6.42
-6.28
-6.14
-6.12
-6.29
-6.63
-6.98
-7.10
-6.78
-5.98
-4.80
-3.48
-2.28
-1.35
-0.69
-0.23
0.20
0.67
1.22
1.78
2.23
2.46
2.45
2.29
2.17
2.31
2.82
3.69
4.72
5.67
6.35
6.69
6.76
6.69
6.55
6.32
5.92
5.28
4.42
3.47
2.58
1.88
1.39
1.02
0.72
0.45
0.29
0.33
0.68
1.31
2.13
2.93
3.56
3.93
4.07
4.12
4.20
4.39
4.63
4.84
4.88
4.71
4.34
3.92
3.56
3.32
3.19
3.06
2.87
2.59
2.28
2.02
1.83
1.66
1.42
1.09
0.68
0.32
0.17
0.33
0.83
1.60
2.56
3.60
4.69
5.82
7.01
8.25
9.53
10.77
11.87
12.69
13.12
13.10
12.70
12.08
11.43
10.92
10.60
10.42
10.25
9.96
9.44
8.65
7.60
6.28
4.72
2.98
1.18
-0.51
-1.95
-3.11
-4.11
-5.18
-6.55
-8.28
-10.27
-12.24
-13.89
-15.07
-15.76
-16.09
-16.20
-16.19
-16.13
-16.05
-15.98
-16.02
-16.23
-16.68
-17.34
-18.18
-19.10
-20.00
-20.76
-21.31
-21.61
-21.73
-21.78
-21.91
-22.25
-22.86
-23.72
-24.75
-25.85
-26.89
-27.67
-27.97
-27.59
-26.33
-24.18
-21.25
-17.84
-14.28
-10.88
-7.80
-5.00
-2.34
0.40
3.44
6.89
10.76
14.96
19.33
23.63
27.66
31.28
34.44
37.16
39.46
41.31
42.60
43.25
43.28
42.91
42.51
42.40
42.63
42.92
42.71
41.46
38.92
35.27
31.03
26.82
23.15
20.21
17.90
15.93
13.99
11.93
9.73
7.55
5.55
3.86
2.49
1.30
0.18
-0.92
-1.86
-2.41
-2.31
-1.49
-0.08
1.63
3.27
4.59
5.46
5.79
5.57
4.72
3.18
0.95
-1.83
-4.85
-7.69
-9.93
-11.30
-11.79
-11.66
-11.34
-11.22
-11.54
-12.27
-13.19
-14.02
-14.59
-14.89
-15.03
-15.12
-15.19
-15.24
-15.23
-15.19
-15.21
-15.33
-15.45
-15.34
-14.73
-13.51
-11.83
-10.05
-8.50
-7.33
-6.43
-5.54
-4.48
-3.33
-2.39
-2.01
-2.33
-3.26
-4.43
-5.44
-5.98
-6.00
-5.62
-5.04
-4.47
-4.04
-3.81
-3.73
-3.73
-3.83
-4.05
-4.47
-5.13
-6.00
-6.93
-7.73
-8.24
-8.50
-8.66
-8.95
-9.51
-10.31
-11.12
-11.66
-11.76
-11.48
-11.14
-11.11
-11.56
-12.40
-13.29
-13.84
-13.88
-13.61
-13.40
-13.61
-14.27
-15.02
-15.35
-14.84
-13.38
-11.28
-9.07
-7.23
-6.06
-5.57
-5.59
-5.85
-6.07
-6.09
-5.84
-5.37
-4.85
-4.44
-4.20
-4.04
-3.70
-2.95
-1.62
0.21
2.31
4.39
6.25
7.80
9.12
10.32
11.47
12.59
13.60
14.41
14.93
15.09
14.87
14.28
13.41
12.43
11.51
10.78
10.21
9.60
8.70
7.36
5.61
3.77
2.21
1.29
1.06
1.33
1.74
1.98
1.93
1.70
1.50
1.49
1.70
2.01
2.34
2.75
3.52
5.00
7.43
10.74
14.49
18.02
20.70
22.14
22.27
21.12
18.64
14.57
8.60
0.69
-8.64
-18.25
-26.75
-32.96
-36.37
-37.21
-36.19
-34.00
-31.03
-27.34
-22.89
-17.91
-12.96
-8.76
-5.84
-4.23
-3.37
-2.37
-0.36
3.10
7.94
13.62
19.45
24.80
29.30
32.78
35.21
36.61
36.99
36.37
34.88
32.74
30.27
27.77
25.45
23.36
21.42
19.42
17.15
14.48
11.46
8.33
5.44
3.06
1.23
-0.31
-1.99
-4.20
-7.06
-10.34
-13.61
-16.47
-18.80
-20.70
-22.37
-23.88
-25.08
-25.69
-25.46
-24.40
-22.75
-20.85
-18.94
-17.07
-15.09
-12.84
-10.24
-7.38
-4.42
-1.50
1.30
4.08
6.97
10.10
13.45
16.89
20.15
22.95
25.10
26.57
27.47
28.04
28.42
28.66
28.62
28.08
26.85
24.97
22.66
20.29
18.24
16.78
15.94
15.61
15.56
15.58
15.47
15.08
14.26
12.85
10.77
8.04
4.85
1.54
-1.51
-4.01
-5.86
-7.14
-8.06
-8.84
-9.64
-10.53
-11.54
-12.70
-13.98
-15.30
-16.45
-17.18
-17.32
-16.89
-16.13
-15.44
-15.13
-15.28
-15.68
-15.94
-15.75
-14.97
-13.71
-12.19
-10.61
-9.04
-7.45
-5.83
-4.27
-3.04
-2.49
-2.89
-4.30
-6.48
-9.04
-11.58
-13.76
-15.40
-16.50
-17.21
-17.72
-18.15
-18.48
-18.63
-18.46
-17.87
-16.76
-15.14
-13.17
-11.04
-8.88
-6.59
-4.11
-1.38
1.65
5.04
8.82
12.74
16.57
20.18
23.82
27.46
30.97
34.25
37.35
40.41
42.96
44.51
44.82
44.51
43.73
42.49
40.69
38.42
35.73
31.79
25.91
17.96
9.20
-0.08
-10.07
-21.39
-34.24
-48.44
-64.42
-82.01
-100.15
-116.15
-128.94
-138.60
-146.13
-152.43
-151.31
-139.49
-118.39
-100.12
-87.19
-79.15
-72.48
-65.61
-57.55
-47.92
-38.10
-29.58
-23.05
-16.89
-10.01
-1.45
9.21
22.29
37.56
53.52
68.67
82.12
94.52
105.61
114.66
120.61
122.92
121.68
117.04
109.71
100.75
91.74
83.17
74.81
66.04
56.55
46.45
35.93
25.40
15.39
6.68
-0.40
-5.75
-9.41
-11.37
-11.83
-11.33
-10.72
-10.85
-12.23
-14.96
-18.69
-22.75
-26.40
-29.08
-30.54
-30.72
-29.67
-27.53
-24.48
-20.81
-16.84
-12.87
-9.02
-5.13
-0.82
4.36
10.75
18.36
26.77
35.13
42.34
47.33
49.33
48.10
43.89
37.27
29.03
20.08
11.55
4.63
0.30
-1.22
-0.74
0.02
-0.99
-5.10
-12.23
-20.83
-28.51
-33.12
-33.65
-30.59
-25.55
-20.50
-16.80
-14.76
-13.70
-12.43
-10.00
-6.12
-1.12
4.45
10.36
16.81
24.15
32.29
40.44
47.26
51.50
52.60
51.01
47.83
44.24
40.92
38.02
35.31
32.61
29.92
27.39
25.10
22.96
20.73
18.16
15.10
11.50
7.29
2.43
-3.07
-8.99
-14.84
-19.95
-23.66
-25.60
-25.85
-24.94
-23.62
-22.52
-21.96
-21.84
-21.77
-21.32
-20.24
-18.58
-16.70
-15.11
-14.39
-14.98
-17.03
-20.31
-24.19
-27.82
-30.41
-31.47
-31.07
-29.74
-28.35
-27.85
-28.88
-31.33
-34.17
-35.64
-33.98
-28.16
-18.64
-7.24
3.55
11.67
16.29
18.03
18.34
18.71
20.08
22.72
26.36
30.46
34.15
36.22
35.31
30.50
22.00
11.30
0.78
-7.30
-11.69
-12.56
-11.22
-9.24
-7.76
-7.06
-6.85
-6.66
-6.31
-6.01
-6.30
-7.61
-9.96
-12.97
-15.93
-18.18
-19.48
-20.00
-20.41
-21.42
-23.49
-26.59
-30.28
-33.89
-36.86
-38.89
-40.07
-40.69
-41.02
-41.14
-40.83
-39.69
-37.37
-33.67
-28.82
-23.15
-16.85
-9.63
-0.87
10.01
22.92
36.86
50.08
60.83
68.10
72.07
73.83
74.73
75.65
76.64
77.06
76.11
73.30
68.75
63.01
56.85
50.96
45.87
41.84
38.95
37.01
35.66
34.31
32.32
29.11
24.48
18.77
12.87
7.93
4.85
3.85
4.15
4.16
2.03
-3.55
-12.77
-24.55
-36.94
-47.91
-56.13
-61.37
-64.33
-66.05
-67.31
-68.21
-68.26
-66.79
-63.50
-58.72
-53.26
-48.09
-43.82
-40.51
-37.73
-34.85
-31.45
-27.47
-23.26
-19.38
-16.29
-14.18
-12.86
-11.92
-10.92
-9.60
-8.01
-6.39
-5.08
-4.24
-3.87
-3.72
-3.49
-2.91
-1.86
-0.41
1.21
2.64
3.45
3.22
1.68
-1.26
-5.37
-10.11
-14.70
-18.29
-20.14
-19.84
-17.36
-13.04
-7.50
-1.44
4.49
9.82
14.34
18.07
21.19
23.89
26.32
28.47
30.20
31.39
32.00
32.09
31.86
31.52
31.26
31.19
31.33
31.65
32.05
32.32
32.21
31.44
29.78
27.15
23.65
19.57
15.35
11.51
8.57
6.88
6.51
7.20
8.42
9.51
9.95
9.51
8.38
7.07
6.19
6.27
7.51
9.66
12.12
14.14
15.12
14.84
13.57
11.86
10.33
9.31
8.80
8.57
8.30
7.84
7.15
6.18
4.75
2.54
-0.71
-5.02
-10.00
-14.97
-19.21
-22.33
-24.37
-25.75
-26.95
-28.20
-29.33
-29.86
-29.34
-27.68
-25.29
-23.01
-21.73
-21.93
-23.52
-25.84
-28.01
-29.32
-29.50
-28.74
-27.48
-26.14
-24.91
-23.77
-22.61
-21.41
-20.27
-19.37
-18.84
-18.56
-18.23
-17.48
-16.02
-13.84
-11.26
-8.78
-6.90
-5.90
-5.68
-5.74
-5.46
-4.29
-2.14
0.62
3.26
5.12
5.93
5.91
5.69
5.91
6.92
8.58
10.34
11.45
11.33
9.76
6.97
3.57
0.33
-2.06
-3.19
-3.07
-2.05
-0.66
0.65
1.73
2.76
4.11
6.02
8.40
10.82
12.71
13.64
13.61
12.98
12.29
11.96
11.99
12.07
11.78
10.88
9.43
7.77
6.26
5.12
4.27
3.48
2.44
1.00
-0.82
-2.83
-4.73
-6.21
-7.03
-7.00
-5.97
-3.86
-0.69
3.39
8.03
12.73
16.98
20.34
22.62
23.84
24.22
24.05
23.57
22.97
22.37
21.87
21.53
21.41
21.49
21.72
22.01
22.21
22.13
21.56
20.34
18.37
15.73
12.63
9.38
6.32
3.63
1.32
-0.78
-2.94
-5.35
-8.04
-10.82
-13.37
-15.36
-16.59
-17.06
-16.93
-16.45
-15.81
-15.11
-14.34
-13.50
-12.60
-11.69
-10.85
-10.11
-9.49
-8.93
-8.41
-7.95
-7.57
-7.31
-7.14
-6.98
-6.75
-6.46
-6.19
-6.11
-6.37
-6.97
-7.79
-8.66
-9.47
-10.27
-11.27
-12.67
-14.57
-16.81
-19.01
-20.71
-21.52
-21.26
-19.94
-17.72
-14.75
-11.21
-7.26
-3.13
0.87
4.39
7.15
9.04
10.18
10.83
11.33
11.89
12.58
13.31
13.92
14.31
14.44
14.36
14.14
13.83
13.37
12.67
11.61
10.17
8.44
6.65
5.06
3.87
3.11
2.62
2.10
1.27
-0.01
-1.73
-3.71
-5.74
-7.69
-9.45
-10.95
-12.03
-12.50
-12.17
-10.94
-8.90
-6.25
-3.30
-0.27
2.67
5.42
7.91
10.00
11.54
12.37
12.47
11.92
10.93
9.71
8.47
7.27
6.14
5.05
4.03
3.16
2.56
2.26
2.21
2.22
2.10
1.70
1.01
0.12
-0.81
-1.67
-2.42
-3.10
-3.83
-4.66
-5.62
-6.64
-7.57
-8.16
-8.17
-7.40
-5.73
-3.14
0.31
4.51
9.27
14.36
19.46
24.26
28.55
32.22
35.31
37.84
39.75
40.78
40.66
39.19
36.42
32.68
28.48
24.33
20.65
17.69
15.56
14.11
13.06
12.05
10.80
9.31
7.87
6.92
6.77
7.25
7.76
7.44
5.67
2.43
-1.70
-5.71
-8.62
-9.98
-9.90
-8.91
-7.64
-6.44
-5.36
-4.34
-3.48
-3.42
-4.91
-8.45
-13.70
-19.46
-24.21
-26.99
-27.93
-28.33
-29.71
-32.84
-37.09
-40.66
-41.60
-38.98
-33.41
-26.86
-21.54
-18.91
-19.00
-20.68
-22.37
-22.88
-21.82
-19.66
-17.25
-15.26
-13.87
-12.84
-11.78
-10.47
-8.92
-7.40
-6.21
-5.50
-5.17
-4.96
-4.51
-3.55
-1.96
-0.01
1.84
3.02
3.21
2.53
1.55
0.98
1.31
2.49
3.92
4.82
4.70
3.62
2.19
1.19
1.15
2.08
3.50
4.66
4.91
3.96
1.95
-0.63
-3.02
-4.52
-4.74
-3.73
-1.99
-0.30
0.63
0.47
-0.58
-1.92
-2.85
-2.91
-2.01
-0.36
1.72
4.02
6.48
9.07
11.66
13.99
15.66
16.38
16.06
14.85
13.16
11.46
10.12
9.32
9.04
9.12
9.40
9.73
10.04
10.28
10.41
10.37
10.08
9.49
8.56
7.30
5.76
4.02
2.23
0.57
-0.78
-1.67
-2.08
-2.06
-1.77
-1.34
-0.90
-0.42
0.14
0.85
1.76
2.84
4.08
5.45
6.92
8.42
9.84
10.98
11.65
11.77
11.44
10.84
10.18
9.52
8.72
7.51
5.68
3.23
0.47
-2.18
-4.33
-5.85
-6.90
-7.84
-8.99
-10.52
-12.33
-14.20
-15.90
-17.32
-18.53
-19.66
-20.86
-22.10
-23.23
-23.99
-24.16
-23.62
-22.41
-20.68
-18.65
-16.54
-14.44
-12.40
-10.31
-8.09
-5.69
-3.15
-0.66
1.54
3.22
4.30
4.80
4.86
4.69
4.41
4.09
3.70
3.22
2.56
1.63
0.30
-1.55
-4.03
-7.14
-10.77
-14.71
-18.65
-22.31
-25.43
-27.87
-29.58
-30.55
-30.81
-30.37
-29.29
-27.63
-25.42
-22.49
-18.46
-12.82
-5.12
4.70
16.28
28.86
41.59
53.67
64.43
73.27
79.49
82.45
81.75
77.60
70.87
62.94
55.15
48.35
42.67
37.69
32.82
27.77
22.60
17.69
13.44
10.06
7.50
5.53
3.85
2.24
0.62
-1.00
-2.48
-3.70
-4.58
-5.12
-5.52
-6.11
-7.24
-9.19
-12.03
-15.61
-19.64
-23.77
-27.69
-31.17
-33.99
-35.93
-36.84
-36.64
-35.35
-33.13
-30.19
-26.68
-22.69
-18.23
-13.34
-8.17
-2.95
1.96
6.26
9.69
12.17
13.72
14.52
14.81
14.90
15.12
15.79
17.10
19.03
21.24
23.07
23.66
22.34
18.96
14.08
8.86
4.69
2.62
2.91
5.03
7.90
10.46
12.03
12.44
11.79
10.15
7.42
3.41
-1.85
-7.98
-14.17
-19.56
-23.52
-26.02
-27.53
-28.80
-30.40
-32.39
-34.35
-35.54
-35.33
-33.54
-30.47
-26.78
-23.21
-20.20
-17.87
-16.06
-14.51
-13.13
-11.98
-11.26
-11.14
-11.63
-12.51
-13.46
-14.13
-14.33
-14.06
-13.53
-13.03
-12.78
-12.92
-13.38
-14.03
-14.69
-15.25
-15.71
-16.12
-16.57
-17.08
-17.64
-18.19
-18.71
-19.19
-19.56
-19.74
-19.49
-18.63
-17.02
-14.73
-12.01
-9.23
-6.70
-4.59
-2.80
-1.12
0.62
2.49
4.36
5.99
7.17
7.81
8.04
8.08
8.17
8.44
8.81
9.13
9.25
9.15
9.02
9.10
9.58
10.46
11.48
12.27
12.55
12.26
11.64
11.11
11.11
11.89
13.42
15.43
17.56
19.54
21.23
22.61
23.67
24.35
24.49
24.00
22.94
21.62
20.47
19.83
19.84
20.31
20.85
21.08
20.80
20.02
18.91
17.67
16.40
15.01
13.24
10.76
7.27
2.61
-3.04
-9.15
-14.96
-19.61
-22.52
-23.48
-22.74
-20.80
-18.26
-15.57
-12.97
-10.58
-8.48
-6.79
-5.68
-5.29
-5.64
-6.62
-7.93
-9.24
-10.18
-10.48
-9.97
-8.57
-6.35
-3.52
-0.45
2.46
4.86
6.64
8.02
9.59
12.19
16.60
23.30
32.16
42.41
52.85
62.24
69.72
75.03
78.47
80.59
81.70
81.78
80.47
77.32
72.10
64.95
56.28
46.71
36.82
27.09
17.90
9.43
1.71
-5.36
-11.96
-18.17
-23.91
-28.98
-33.17
-36.40
-38.72
-40.32
-41.33
-41.89
-42.09
-42.02
-41.89
-41.88
-42.12
-42.77
-43.74
-44.74
-45.28
-44.70
-42.43
-38.22
-32.39
-25.94
-20.16
-16.13
-14.30
-14.31
-15.24
-16.13
-16.47
-16.42
-16.48
-17.01
-17.89
-18.42
-17.79
-15.53
-11.90
-7.99
-5.09
-4.09
-5.00
-6.92
-8.58
-9.03
-8.10
-6.57
-5.62
-6.09
-8.08
-10.78
-13.02
-13.86
-12.97
-10.85
-8.35
-6.13
-4.37
-2.70
-0.60
2.21
5.54
8.68
10.81
11.34
10.22
7.88
5.03
2.35
0.29
-1.08
-1.94
-2.57
-3.17
-3.82
-4.45
-4.96
-5.27
-5.44
-5.59
-5.89
-6.44
-7.18
-7.95
-8.57
-8.87
-8.87
-8.68
-8.49
-8.46
-8.61
-8.86
-8.99
-8.75
-7.92
-6.36
-4.05
-1.12
2.25
5.80
9.31
12.59
15.49
17.88
19.64
20.65
20.87
20.37
19.37
18.17
17.06
16.24
15.78
15.59
15.52
15.41
15.15
14.70
14.04
13.21
12.17
10.89
9.35
7.53
5.47
3.31
1.21
-0.71
-2.38
-3.87
-5.38
-7.13
-9.27
-11.78
-14.42
-16.78
-18.45
-19.13
-18.65
-17.09
-14.64
-11.58
-8.23
-4.93
-1.95
0.41
1.96
2.65
2.59
2.09
1.48
1.08
1.09
1.49
2.17
2.98
3.79
4.55
5.25
5.89
6.42
6.77
6.84
6.59
6.04
5.24
4.30
3.34
2.47
1.76
1.24
0.86
0.47
-0.15
-1.21
-2.82
-4.88
-7.09
-8.97
-10.01
-9.87
-8.46
-5.98
-2.80
0.61
3.86
6.67
8.84
10.28
10.97
10.98
10.47
9.69
8.91
8.38
8.24
8.52
9.14
9.93
10.77
11.52
12.08
12.36
12.27
11.74
10.75
9.37
7.76
6.12
4.63
3.35
2.25
1.21
0.12
-1.11
-2.53
-4.17
-6.05
-8.18
-10.52
-12.89
-15.04
-16.63
-17.43
-17.29
-16.32
-14.79
-13.09
-11.60
-10.54
-10.00
-9.95
-10.32
-11.12
-12.44
-14.33
-16.69
-19.24
-21.56
-23.30
-24.31
-24.74
-24.91
-25.19
-25.71
-26.31
-26.61
-26.13
-24.57
-21.86
-18.16
-13.81
-9.15
-4.41
0.29
4.92
9.45
13.82
17.91
21.58
24.70
27.22
29.18
30.71
32.08
33.72
36.15
39.86
45.06
51.44
58.07
63.51
66.28
65.40
60.79
53.44
45.06
37.46
31.98
29.02
28.14
28.38
28.76
28.67
27.96
26.79
25.37
23.75
21.80
19.31
16.17
12.45
8.41
4.36
0.55
-3.00
-6.46
-10.13
-14.24
-18.84
-23.63
-28.01
-31.23
-32.67
-32.12
-29.88
-26.61
-23.08
-19.86
-17.20
-15.06
-13.34
-12.00
-11.10
-10.68
-10.62
-10.54
-9.97
-8.58
-6.35
-3.65
-1.05
0.96
2.15
2.61
2.55
2.19
1.61
0.77
-0.37
-1.73
-3.07
-4.06
-4.42
-4.10
-3.30
-2.56
-2.60
-4.08
-7.43
-12.59
-18.97
-25.61
-31.43
-35.61
-37.79
-38.13
-37.11
-35.38
-33.48
-31.87
-30.86
-30.65
-31.29
-32.64
-34.35
-35.93
-36.95
-37.15
-36.52
-35.23
-33.55
-31.66
-29.57
-27.15
-24.17
-20.46
-15.93
-10.68
-4.95
0.97
6.78
12.33
17.57
22.55
27.31
31.79
35.87
39.33
41.92
43.46
43.89
43.37
42.34
41.42
41.27
42.26
44.37
47.16
49.97
52.25
53.75
54.56
54.92
55.05
54.93
54.43
53.32
51.42
48.58
44.69
39.69
33.67
26.97
20.09
13.63
8.09
3.72
0.38
-2.35
-4.96
-7.91
-11.45
-15.78
-20.84
-26.27
-31.57
-36.28
-40.24
-43.55
-46.58
-49.67
-53.33
-57.61
-62.09
-66.06
-68.96
-70.65
-71.35
-71.41
-71.16
-71.25
-71.95
-73.18
-74.53
-75.69
-76.55
-77.02
-76.90
-75.79
-73.93
-71.39
-68.08
-63.63
-57.77
-50.49
-41.89
-32.02
-17.02
3.98
28.71
52.93
73.45
89.14
100.15
106.91
109.77
109.10
104.84
98.54
90.91
83.06
75.91
69.86
64.88
60.79
57.39
53.97
50.08
45.39
39.97
33.98
27.37
20.00
11.91
3.39
-5.23
-13.28
-20.02
-24.62
-26.71
-26.62
-25.14
-23.20
-21.59
-20.91
-21.35
-22.78
-24.76
-26.89
-28.98
-30.99
-33.00
-35.05
-37.21
-39.49
-41.82
-44.02
-45.80
-46.76
-46.43
-44.32
-40.11
-33.76
-25.59
-16.22
-6.35
3.47
12.94
22.00
30.71
39.08
47.00
54.17
60.32
65.25
68.97
71.55
73.14
73.76
73.35
71.83
69.15
65.33
60.49
54.71
48.08
40.67
32.57
23.98
15.23
6.70
-1.25
-8.39
-14.72
-20.39
-25.64
-30.66
-35.46
-39.89
-43.71
-46.72
-48.91
-50.43
-51.56
-52.53
-53.41
-54.12
-54.51
-54.47
-54.04
-53.33
-52.45
-51.42
-50.13
-48.36
-45.92
-42.78
-39.09
-35.20
-31.48
-28.17
-25.32
-22.80
-20.37
-17.85
-15.20
-12.50
-9.96
-7.77
-6.10
-4.98
-4.36
-4.07
-3.91
-3.60
-2.96
-1.84
-0.27
1.65
3.72
5.77
7.65
9.31
10.68
11.68
12.19
12.09
11.37
10.17
8.83
7.78
7.46
8.05
9.49
11.47
13.60
15.55
17.20
18.62
20.01
21.61
23.63
26.17
29.21
32.56
35.84
38.47
39.90
39.71
37.85
34.70
30.93
27.28
24.25
22.01
20.34
18.82
17.08
14.92
12.40
9.73
7.11
4.65
2.30
-0.05
-2.47
-4.94
-7.29
-9.30
-10.80
-11.72
-12.15
-12.28
-12.27
-12.20
-12.01
-11.56
-10.77
-9.67
-8.44
-7.37
-6.68
-6.50
-6.74
-7.22
-7.76
-8.27
-8.75
-9.20
-9.56
-9.62
-9.09
-7.72
-5.44
-2.43
0.96
4.26
7.10
9.28
10.73
11.53
11.75
11.47
10.75
9.72
8.59
7.64
7.11
7.18
7.78
8.70
9.60
10.15
10.14
9.58
8.61
7.44
6.29
5.25
4.32
3.44
2.54
1.56
0.47
-0.73
-2.06
-3.54
-5.10
-6.57
-7.65
-8.03
-7.48
-6.01
-3.84
-1.36
1.05
3.07
4.57
5.53
6.05
6.19
6.00
5.50
4.76
3.89
3.05
2.39
2.06
2.10
2.44
2.96
3.50
3.92
4.13
4.10
3.79
3.23
2.41
1.44
0.37
-0.71
-1.79
-2.89
-4.04
-5.29
-6.64
-8.11
-9.63
-11.11
-12.36
-13.12
-13.11
-12.08
-9.99
-7.05
-3.72
-0.54
2.03
3.73
4.59
4.80
4.64
4.30
3.91
3.50
3.12
2.85
2.81
3.07
3.58
4.19
4.66
4.82
4.55
3.89
2.96
1.95
1.06
0.41
0.02
-0.19
-0.39
-0.78
-1.45
-2.40
-3.50
-4.54
-5.34
-5.75
-5.66
-4.96
-3.56
-1.45
1.23
4.15
6.89
9.05
10.39
10.92
10.86
10.47
9.98
9.45
8.87
8.20
7.50
6.95
6.77
7.08
7.83
8.74
9.44
9.62
9.13
8.11
6.83
5.63
4.73
4.12
3.66
3.17
2.50
1.66
0.70
-0.30
-1.33
-2.43
-3.60
-4.71
-5.48
-5.57
-4.72
-2.94
-0.49
2.15
4.48
6.11
6.87
6.75
5.91
4.52
2.78
0.86
-1.08
-2.92
-4.53
-5.87
-6.94
-7.78
-8.43
-8.93
-9.27
-9.43
-9.43
-9.33
-9.21
-9.19
-9.32
-9.60
-9.97
-10.32
-10.63
-10.89
-11.19
-11.61
-12.21
-12.92
-13.57
-13.89
-13.58
-12.43
-10.42
-7.73
-4.73
-1.84
0.56
2.30
3.34
3.83
3.89
3.69
3.31
2.83
2.33
1.94
1.75
1.85
2.24
2.84
3.51
4.11
4.48
4.55
4.25
3.60
2.68
1.60
0.47
-0.59
-1.50
-2.24
-2.83
-3.36
-3.93
-4.63
-5.48
-6.40
-7.20
-7.62
-7.40
-6.39
-4.56
-2.04
0.86
3.76
6.31
8.22
9.34
9.66
9.28
8.32
6.92
5.24
3.50
1.97
0.89
0.42
0.58
1.16
1.87
2.40
2.57
2.33
1.75
0.95
0.03
-0.94
-1.90
-2.82
-3.67
-4.47
-5.29
-6.25
-7.39
-8.69
-10.04
-11.23
-12.07
-12.36
-11.97
-10.84
-9.02
-6.66
-4.05
-1.53
0.59
2.10
2.92
3.08
2.68
1.84
0.69
-0.60
-1.83
-2.81
-3.37
-3.48
-3.21
-2.74
-2.26
-1.88
-1.65
-1.50
-1.37
-1.22
-1.07
-0.97
-0.95
-0.99
-1.04
-1.09
-1.19
-1.42
-1.92
-2.70
-3.67
-4.62
-5.27
-5.36
-4.74
-3.37
-1.37
0.99
3.41
5.51
7.01
7.73
7.65
6.89
5.62
4.04
2.34
0.72
-0.63
-1.58
-2.10
-2.29
-2.33
-2.40
-2.59
-2.85
-3.02
-2.92
-2.46
-1.63
-0.58
0.51
1.43
2.11
2.55
2.92
3.43
4.21
5.17
6.02
6.39
6.05
5.05
3.81
2.91
2.87
3.86
5.71
8.01
10.33
12.44
14.25
15.77
16.94
17.61
17.64
17.04
16.08
15.23
14.95
15.46
16.66
18.14
19.41
20.14
20.24
19.84
19.08
18.02
16.62
14.78
12.55
10.10
7.73
5.67
3.99
2.61
1.32
-0.09
-1.70
-3.46
-5.13
-6.39
-6.94
-6.58
-5.38
-3.66
-1.92
-0.69
-0.31
-0.92
-2.40
-4.55
-7.06
-9.61
-11.82
-13.26
-13.58
-12.59
-10.41
-7.40
-4.09
-0.97
1.67
3.76
5.38
6.65
7.64
8.34
8.72
8.80
8.67
8.47
8.33
8.38
8.62
9.02
9.52
10.04
10.55
11.01
11.33
11.34
10.88
9.73
7.77
5.00
1.55
-2.33
-6.32
-10.08
-13.33
-15.86
-17.63
-18.74
-19.44
-20.04
-20.85
-22.05
-23.65
-25.52
-27.40
-29.02
-30.17
-30.68
-30.50
-29.64
-28.23
-26.44
-24.47
-22.50
-20.61
-18.82
-17.04
-15.20
-13.22
-11.11
-8.88
-6.57
-4.24
-1.98
0.07
1.77
2.93
3.50
3.51
3.17
2.74
2.50
2.62
3.13
3.91
4.72
5.34
5.62
5.55
5.27
4.98
4.85
4.92
5.15
5.38
5.50
5.44
5.22
4.92
4.53
4.05
3.45
2.80
2.28
2.11
2.46
3.34
4.56
5.83
6.93
7.82
8.64
9.59
10.76
12.00
13.03
13.57
13.44
12.74
11.64
10.24
8.40
5.82
2.16
-2.62
-8.04
-13.24
-17.24
-19.38
-19.64
-18.54
-16.92
-15.54
-14.73
-14.45
-14.38
-14.21
-13.72
-12.77
-11.24
-8.99
-5.94
-2.17
2.01
6.16
9.81
12.61
14.38
15.02
14.54
13.03
10.69
7.88
5.08
2.71
1.05
0.15
-0.06
0.25
0.99
2.15
3.71
5.65
7.86
10.13
12.27
14.12
15.55
16.45
16.73
16.31
15.11
13.18
10.67
7.85
5.06
2.61
0.72
-0.45
-0.80
-0.34
0.83
2.43
4.02
5.08
5.17
4.07
1.94
-0.81
-3.64
-6.03
-7.72
-8.64
-8.87
-8.61
-8.06
-7.41
-6.80
-6.33
-6.02
-5.87
-5.85
-5.94
-6.19
-6.63
-7.27
-8.11
-9.07
-10.12
-11.21
-12.32
-13.40
-14.30
-14.83
-14.75
-13.93
-12.38
-10.31
-8.03
-5.88
-4.09
-2.78
-1.93
-1.47
-1.33
-1.50
-1.96
-2.66
-3.47
-4.20
-4.63
-4.58
-3.97
-2.92
-1.64
-0.46
0.31
0.47
0.01
-0.93
-2.06
-3.06
-3.70
-3.91
-3.80
-3.57
-3.45
-3.54
-3.80
-4.08
-4.16
-3.93
-3.30
-2.31
-1.00
0.57
2.33
4.15
5.85
7.18
7.97
8.17
7.90
7.34
6.66
5.95
5.22
4.47
3.75
3.22
3.02
3.23
3.76
4.35
4.75
4.76
4.38
3.76
3.16
2.79
2.75
2.99
3.41
3.86
4.27
4.59
4.80
4.90
4.90
4.84
4.80
4.92
5.31
6.06
7.23
8.80
10.63
12.51
14.19
15.39
15.98
15.91
15.33
14.46
13.51
12.67
12.03
11.63
11.44
11.40
11.40
11.32
11.04
10.50
9.73
8.85
8.00
7.29
6.73
6.27
5.75
4.98
3.80
2.18
0.20
-1.92
-3.93
-5.67
-7.10
-8.28
-9.26
-9.98
-10.32
-10.17
-9.51
-8.50
-7.41
-6.49
-5.82
-5.38
-5.05
-4.80
-4.69
-4.91
-5.61
-6.79
-8.30
-9.83
-11.04
-11.66
-11.55
-10.74
-9.41
-7.81
-6.21
-4.84
-3.84
-3.28
-3.11
-3.24
-3.54
-3.90
-4.24
-4.51
-4.70
-4.85
-4.96
-5.05
-5.18
-5.40
-5.77
-6.22
-6.54
-6.43
-5.58
-3.90
-1.55
1.04
3.36
5.01
5.89
6.15
6.06
5.82
5.49
4.99
4.19
3.13
1.96
0.93
0.26
-0.01
0.02
0.14
0.13
-0.11
-0.56
-1.09
-1.60
-2.00
-2.30
-2.57
-2.85
-3.15
-3.44
-3.63
-3.71
-3.79
-4.04
-4.65
-5.66
-6.85
-7.77
-7.93
-7.02
-5.09
-2.53
0.09
2.32
3.94
5.04
5.76
6.21
6.32
5.97
5.10
3.87
2.60
1.67
1.34
1.56
2.10
2.62
2.86
2.81
2.61
2.48
2.58
2.82
2.95
2.68
1.90
0.72
-0.54
-1.57
-2.18
-2.53
-2.96
-3.79
-5.10
-6.67
-8.04
-8.75
-8.49
-7.36
-5.65
-3.78
-2.10
-0.74
0.36
1.30
2.15
2.82
3.15
2.97
2.29
1.29
0.30
-0.32
-0.35
0.21
1.14
2.11
2.83
3.13
3.05
2.74
2.39
2.09
1.86
1.59
1.14
0.44
-0.51
-1.62
-2.77
-3.86
-4.87
-5.79
-6.58
-7.18
-7.44
-7.25
-6.53
-5.32
-3.83
-2.31
-1.05
-0.26
-0.02
-0.29
-0.96
-1.91
-3.04
-4.27
-5.44
-6.39
-6.88
-6.74
-5.91
-4.55
-2.93
-1.40
-0.20
0.57
0.95
1.03
0.90
0.61
0.20
-0.31
-0.87
-1.50
-2.21
-3.07
-4.03
-4.96
-5.62
-5.73
-5.09
-3.66
-1.59
0.88
3.42
5.75
7.64
8.90
9.45
9.33
8.71
7.89
7.16
6.70
6.50
6.34
5.87
4.80
2.99
0.60
-1.99
-4.32
-5.98
-6.81
-6.91
-6.56
-6.11
-5.81
-5.76
-5.95
-6.33
-6.85
-7.48
-8.16
-8.72
-8.89
-8.38
-6.99
-4.68
-1.69
1.59
4.63
7.03
8.55
9.18
9.12
8.64
7.99
7.34
6.74
6.21
5.80
5.57
5.57
5.81
6.17
6.49
6.58
6.34
5.78
5.01
4.19
3.46
2.88
2.45
2.05
1.51
0.70
-0.48
-1.99
-3.68
-5.36
-6.77
-7.70
-7.96
-7.41
-6.02
-3.88
-1.28
1.41
3.76
5.44
6.33
6.52
6.23
5.70
5.10
4.49
3.88
3.27
2.69
2.22
1.91
1.72
1.58
1.33
0.87
0.15
-0.78
-1.77
-2.69
-3.44
-4.02
-4.55
-5.23
-6.20
-7.54
-9.11
-10.60
-11.68
-12.06
-11.68
-10.67
-9.30
-7.77
-6.14
-4.33
-2.23
0.18
2.72
5.03
6.70
7.50
7.41
6.67
5.66
4.66
3.78
2.92
1.85
0.35
-1.61
-3.86
-6.07
-7.89
-9.03
-9.35
-8.94
-8.05
-7.03
-6.17
-5.67
-5.58
-5.74
-5.82
-5.39
-3.97
-1.16
3.17
8.78
15.07
21.17
26.29
29.88
31.81
32.30
31.74
30.50
28.79
26.67
24.24
21.63
19.12
16.95
15.32
14.22
13.49
12.87
12.13
11.09
9.67
7.88
5.80
3.50
1.07
-1.43
-3.94
-6.37
-8.64
-10.69
-12.50
-14.10
-15.54
-16.86
-18.06
-19.05
-19.70
-19.81
-19.21
-17.76
-15.47
-12.50
-9.14
-5.79
-2.81
-0.48
1.13
2.07
2.53
2.67
2.65
2.54
2.39
2.22
2.06
1.95
1.88
1.82
1.70
1.45
1.04
0.48
-0.13
-0.73
-1.25
-1.70
-2.16
-2.73
-3.53
-4.60
-5.91
-7.35
-8.72
-9.80
-10.39
-10.34
-9.62
-8.26
-6.38
-4.17
-1.83
0.44
2.44
3.98
4.94
5.28
5.04
4.37
3.45
2.52
1.78
1.36
1.28
1.44
1.70
1.95
2.13
2.24
2.26
2.16
1.91
1.54
1.23
1.20
1.66
2.60
3.82
4.89
5.39
5.04
3.84
2.04
0.06
-1.64
-2.72
-2.97
-2.38
-1.09
0.67
2.67
4.63
6.33
7.53
8.07
7.91
7.15
6.07
4.96
4.07
3.51
3.22
3.05
2.86
2.56
2.15
1.66
1.14
0.58
-0.01
-0.67
-1.37
-2.07
-2.70
-3.19
-3.56
-3.92
-4.46
-5.31
-6.54
-7.97
-9.33
-10.25
-10.46
-9.86
-8.48
-6.49
-4.12
-1.58
0.87
3.00
4.62
5.62
5.98
5.78
5.16
4.28
3.35
2.53
1.97
1.73
1.81
2.08
2.40
2.63
2.68
2.51
2.12
1.49
0.65
-0.37
-1.50
-2.65
-3.73
-4.76
-5.78
-6.85
-7.98
-9.09
-10.02
-10.53
-10.43
-9.59
-8.00
-5.77
-3.14
-0.41
2.10
4.12
5.48
6.12
6.06
5.43
4.43
3.29
2.28
1.61
1.38
1.50
1.79
2.03
2.06
1.87
1.55
1.21
0.91
0.64
0.30
-0.21
-0.93
-1.83
-2.83
-3.82
-4.73
-5.55
-6.34
-7.15
-8.00
-8.76
-9.17
-8.94
-7.91
-6.12
-3.82
-1.34
1.05
3.25
5.24
7.05
8.53
9.47
9.67
9.11
8.07
7.02
6.40
6.46
7.06
7.85
8.41
8.52
8.23
7.79
7.47
7.36
7.34
7.13
6.51
5.47
4.27
3.30
2.86
3.00
3.41
3.60
3.14
1.88
0.04
-1.89
-3.37
-4.02
-3.77
-2.81
-1.48
-0.10
1.18
2.33
3.35
4.23
4.83
4.93
4.35
3.07
1.28
-0.64
-2.27
-3.23
-3.43
-3.05
-2.42
-1.91
-1.70
-1.79
-2.04
-2.26
-2.45
-2.75
-3.35
-4.37
-5.77
-7.31
-8.72
-9.79
-10.58
-11.37
-12.56
-14.49
-17.26
-20.63
-24.04
-26.72
-27.96
-27.36
-24.95
-21.17
-16.68
-12.10
-7.80
-3.90
-0.34
2.92
5.80
8.12
9.73
10.62
10.96
11.02
11.03
11.07
11.06
10.86
10.42
9.82
9.23
8.78
8.45
8.06
7.31
5.99
4.10
1.95
-0.01
-1.30
-1.68
-1.18
-0.14
0.93
1.57
1.47
0.58
-0.88
-2.55
-3.95
-4.68
-4.49
-3.41
-1.68
0.31
2.19
3.72
4.88
5.73
6.35
6.70
6.69
6.24
5.36
4.21
3.01
1.96
1.15
0.56
0.11
-0.28
-0.60
-0.84
-0.98
-1.10
-1.34
-1.80
-2.53
-3.44
-4.36
-5.16
-5.79
-6.30
-6.85
-7.57
-8.49
-9.50
-10.47
-11.24
-11.69
-11.75
-11.33
-10.34
-8.72
-6.50
-3.83
-1.03
1.55
3.58
4.89
5.46
5.43
5.04
4.54
4.18
4.18
4.67
5.67
7.06
8.56
9.82
10.55
10.59
9.95
8.77
7.27
5.60
3.90
2.28
0.77
-0.58
-1.85
-3.17
-4.69
-6.55
-8.74
-11.02
-12.98
-14.15
-14.10
-12.65
-9.86
-6.09
-1.83
2.40
6.27
9.58
12.33
14.55
16.23
17.30
17.65
17.23
16.14
14.56
12.73
10.86
9.05
7.34
5.73
4.26
3.01
2.09
1.53
1.28
1.15
0.94
0.49
-0.21
-1.02
-1.77
-2.38
-2.92
-3.60
-4.58
-5.86
-7.18
-8.13
-8.36
-7.72
-6.33
-4.50
-2.50
-0.48
1.56
3.65
5.73
7.60
8.99
9.64
9.46
8.57
7.23
5.81
4.59
3.74
3.26
3.05
2.95
2.86
2.77
2.75
2.86
3.11
3.34
3.36
2.98
2.13
0.92
-0.39
-1.58
-2.49
-3.12
-3.61
-4.16
-4.93
-6.04
-7.40
-8.81
-9.90
-10.25
-9.57
-7.81
-5.22
-2.31
0.36
2.37
3.52
3.81
3.38
2.41
1.10
-0.26
-1.38
-1.98
-1.96
-1.37
-0.45
0.56
1.50
2.35
3.17
3.93
4.52
4.70
4.33
3.42
2.15
0.83
-0.30
-1.14
-1.78
-2.38
-3.07
-3.85
-4.68
-5.48
-6.22
-6.90
-7.51
-7.92
-7.93
-7.33
-6.02
-4.10
-1.80
0.56
2.68
4.35
5.44
5.91
5.80
5.15
4.12
2.92
1.82
1.05
0.79
1.02
1.59
2.22
2.67
2.75
2.42
1.76
0.93
0.05
-0.80
-1.60
-2.36
-3.08
-3.78
-4.46
-5.21
-6.10
-7.25
-8.72
-10.46
-12.31
-13.98
-15.12
-15.45
-14.87
-13.45
-11.45
-9.17
-6.85
-4.62
-2.55
-0.65
1.03
2.40
3.38
3.91
3.94
3.42
2.28
0.47
-1.97
-4.89
-8.06
-11.19
-14.06
-16.48
-18.30
-19.38
-19.60
-18.90
-17.33
-15.07
-12.40
-9.59
-6.80
-4.12
-1.51
1.02
3.45
5.66
7.45
8.61
9.01
8.64
7.70
6.52
5.53
5.07
5.32
6.16
7.24
8.06
8.22
7.51
6.07
4.23
2.45
1.09
0.35
0.23
0.56
1.09
1.69
2.33
3.06
3.95
4.94
5.92
6.75
7.27
7.52
7.80
8.64
10.61
14.09
19.21
25.73
33.15
40.48
46.71
51.14
53.60
54.37
53.86
52.45
50.31
47.44
43.40
37.99
31.76
25.90
21.63
19.47
19.12
19.72
20.23
19.33
16.27
11.52
6.57
2.99
1.54
2.01
3.39
4.09
1.55
-6.60
-21.25
-41.40
-64.76
-88.39
-109.13
-124.09
-126.41
-112.33
-85.40
-55.26
-30.86
-15.93
-9.34
-7.64
-7.39
-6.89
-6.58
-7.50
-9.70
-11.88
-12.36
-10.22
-5.66
0.16
6.08
10.32
11.76
10.66
8.48
6.84
6.65
7.86
9.82
11.68
12.41
11.42
8.98
6.08
3.71
2.40
2.01
2.02
1.77
0.58
-1.79
-4.97
-8.15
-10.46
-11.41
-10.96
-9.45
-7.34
-5.17
-3.28
-1.79
-0.65
0.22
0.80
1.02
0.86
0.43
-0.06
-0.35
-0.24
0.30
1.17
2.18
3.12
3.82
4.18
4.16
3.75
2.99
1.96
0.84
-0.20
-1.01
-1.51
-1.70
-1.72
-1.72
-1.86
-2.16
-2.52
-2.83
-2.96
-2.82
-2.36
-1.65
-0.78
0.11
1.06
2.12
3.28
4.42
5.32
5.81
5.66
4.89
3.61
2.32
1.47
1.30
1.74
2.50
3.32
3.90
4.40
5.08
6.58
9.47
13.96
19.88
26.77
34.27
41.96
50.05
56.05
58.02
55.54
50.09
43.60
36.93
31.86
27.09
21.86
16.16
10.89
7.04
4.39
2.82
1.87
1.01
-0.47
-2.81
-6.07
-9.84
-13.61
-16.90
-19.41
-21.10
-22.03
-22.54
-22.69
-22.56
-22.04
-21.08
-19.83
-18.61
-17.87
-17.89
-18.81
-20.25
-21.66
-22.39
-22.00
-20.44
-17.95
-15.08
-12.31
-10.04
-8.30
-6.97
-5.90
-5.04
-4.57
-4.70
-5.66
-7.41
-9.71
-12.06
-13.93
-14.95
-14.96
-14.07
-12.58
-10.87
-9.35
-8.36
-8.08
-8.48
-9.38
-10.41
-11.16
-11.29
-10.62
-9.17
-7.15
-4.93
-2.83
-1.13
0.09
0.92
1.55
2.18
2.94
3.82
4.75
5.60
6.28
6.71
6.88
6.75
6.32
5.62
4.78
3.96
3.29
2.81
2.40
1.86
1.00
-0.27
-1.88
-3.60
-5.11
-6.10
-6.36
-5.77
-4.37
-2.36
-0.04
2.27
4.32
6.02
7.38
8.47
9.31
9.85
10.02
9.75
9.13
8.32
7.54
6.99
6.72
6.71
6.84
7.01
7.15
7.21
7.17
7.00
6.66
6.08
5.24
4.12
2.77
1.31
-0.12
-1.36
-2.32
-2.97
-3.39
-3.75
-4.25
-5.06
-6.26
-7.76
-9.30
-10.48
-10.89
-10.22
-8.38
-5.56
-2.18
1.28
4.36
6.80
8.51
9.51
9.91
9.77
9.15
8.19
7.08
6.07
5.36
5.04
4.99
5.04
5.00
4.80
4.54
4.33
4.29
4.37
4.44
4.33
3.93
3.24
2.36
1.42
0.50
-0.39
-1.27
-2.19
-3.15
-4.13
-5.09
-6.01
-6.90
-7.79
-8.66
-9.41
-9.84
-9.71
-8.86
-7.24
-5.01
-2.48
0.02
2.19
3.87
5.05
5.81
6.25
6.41
6.32
5.95
5.36
4.67
4.06
3.70
3.68
3.93
4.24
4.42
4.36
4.10
3.77
3.48
3.21
2.86
2.28
1.44
0.47
-0.42
-1.02
-1.25
-1.24
-1.21
-1.40
-1.94
-2.86
-4.04
-5.31
-6.42
-7.15
-7.29
-6.76
-5.59
-3.93
-2.01
-0.10
1.60
2.92
3.76
4.14
4.13
3.85
3.46
3.09
2.80
2.60
2.46
2.35
2.28
2.23
2.18
2.09
1.92
1.63
1.26
0.84
0.39
-0.13
-0.75
-1.50
-2.35
-3.23
-4.07
-4.82
-5.48
-6.06
-6.55
-6.92
-7.11
-7.07
-6.78
-6.23
-5.38
-4.19
-2.66
-0.90
0.87
2.33
3.26
3.57
3.42
3.04
2.65
2.34
2.05
1.66
1.12
0.51
-0.01
-0.33
-0.43
-0.46
-0.62
-1.05
-1.76
-2.59
-3.32
-3.80
-3.99
-4.02
-4.06
-4.24
-4.57
-4.97
-5.34
-5.63
-5.88
-6.12
-6.30
-6.24
-5.73
-4.59
-2.88
-0.85
1.16
2.83
4.07
4.94
5.59
6.11
6.48
6.58
6.31
5.72
4.98
4.35
4.06
4.18
4.64
5.22
5.68
5.83
5.59
5.03
4.25
3.41
2.58
1.77
0.97
0.14
-0.72
-1.61
-2.49
-3.35
-4.18
-4.96
-5.62
-6.05
-6.15
-5.83
-5.10
-4.04
-2.84
-1.71
-0.86
-0.38
-0.29
-0.49
-0.85
-1.21
-1.51
-1.72
-1.86
-1.94
-1.89
-1.62
-1.03
-0.13
0.90
1.78
2.22
2.11
1.55
0.84
0.29
0.04
0.03
0.03
-0.20
-0.72
-1.46
-2.24
-2.95
-3.57
-4.15
-4.70
-5.12
-5.19
-4.76
-3.79
-2.41
-0.87
0.58
1.81
2.80
3.58
4.14
4.44
4.37
3.91
3.13
2.22
1.46
1.09
1.22
1.79
2.56
3.24
3.62
3.62
3.35
3.01
2.72
2.49
2.21
1.76
1.08
0.24
-0.62
-1.39
-2.06
-2.71
-3.42
-4.18
-4.85
-5.22
-5.09
-4.38
-3.20
-1.70
-0.08
1.50
2.92
4.09
4.90
5.24
5.06
4.43
3.51
2.49
1.55
0.79
0.23
-0.12
-0.30
-0.31
-0.18
0.02
0.21
0.31
0.33
0.28
0.22
0.18
0.11
-0.06
-0.43
-1.04
-1.92
-2.99
-4.15
-5.19
-5.88
-6.02
-5.50
-4.38
-2.87
-1.23
0.28
1.54
2.49
3.17
3.55
3.62
3.42
3.03
2.61
2.28
2.05
1.78
1.26
0.35
-0.95
-2.39
-3.62
-4.32
-4.31
-3.64
-2.53
-1.26
-0.08
0.86
1.50
1.82
1.84
1.55
0.97
0.15
-0.80
-1.71
-2.41
-2.78
-2.78
-2.43
-1.81
-0.99
-0.04
0.98
2.00
2.95
3.75
4.34
4.69
4.75
4.52
4.03
3.38
2.69
2.10
1.72
1.56
1.58
1.65
1.68
1.60
1.40
1.11
0.76
0.36
-0.05
-0.45
-0.83
-1.21
-1.62
-2.13
-2.82
-3.72
-4.75
-5.75
-6.51
-6.81
-6.52
-5.62
-4.16
-2.34
-0.37
1.51
3.09
4.26
4.97
5.24
5.11
4.63
3.88
3.04
2.28
1.81
1.72
1.97
2.37
2.69
2.72
2.37
1.67
0.72
-0.34
-1.35
-2.21
-2.84
-3.23
-3.44
-3.64
-4.00
-4.68
-5.68
-6.88
-8.06
-8.92
-9.26
-8.96
-8.02
-6.53
-4.65
-2.56
-0.49
1.35
2.80
3.77
4.23
4.28
4.05
3.67
3.26
2.90
2.65
2.53
2.54
2.64
2.79
2.92
2.97
2.92
2.74
2.43
2.01
1.51
0.96
0.36
-0.27
-0.95
-1.72
-2.59
-3.57
-4.65
-5.71
-6.62
-7.19
-7.26
-6.79
-5.80
-4.46
-2.95
-1.45
-0.05
1.17
2.15
2.83
3.16
3.16
2.91
2.58
2.35
2.30
2.41
2.61
2.82
2.97
3.06
3.06
2.93
2.59
1.99
1.16
0.22
-0.64
-1.25
-1.55
-1.60
-1.57
-1.62
-1.83
-2.17
-2.49
-2.62
-2.44
-1.90
-1.05
0.04
1.26
2.58
3.94
5.28
6.51
7.56
8.37
8.93
9.26
9.41
9.42
9.29
9.01
8.56
7.94
7.23
6.56
6.08
5.90
5.99
6.21
6.33
6.13
5.54
4.65
3.64
2.70
1.93
1.28
0.65
-0.09
-0.99
-2.03
-3.14
-4.23
-5.21
-5.99
-6.46
-6.50
-6.01
-4.98
-3.51
-1.82
-0.18
1.16
1.99
2.27
2.11
1.68
1.20
0.78
0.45
0.18
-0.06
-0.22
-0.17
0.20
0.89
1.76
2.57
3.07
3.13
2.78
2.16
1.45
0.74
0.08
-0.54
-1.15
-1.78
-2.47
-3.26
-4.17
-5.18
-6.18
-7.04
-7.56
-7.61
-7.09
-5.99
-4.41
-2.50
-0.47
1.44
2.98
3.99
4.35
4.11
3.43
2.54
1.66
0.97
0.54
0.36
0.42
0.66
1.04
1.51
1.97
2.30
2.37
2.16
1.71
1.13
0.57
0.13
-0.16
-0.34
-0.47
-0.63
-0.89
-1.28
-1.78
-2.29
-2.63
-2.65
-2.19
-1.23
0.17
1.84
3.53
5.00
6.02
6.42
6.12
5.15
3.72
2.09
0.54
-0.69
-1.54
-2.05
-2.36
-2.62
-2.96
-3.48
-4.21
-5.10
-6.04
-6.86
-7.41
-7.56
-7.31
-6.72
-5.94
-5.14
-4.48
-4.06
-3.91
-4.01
-4.27
-4.61
-4.87
-4.89
-4.54
-3.72
-2.47
-0.92
0.71
2.24
3.49
4.40
4.96
5.17
5.02
4.51
3.69
2.67
1.66
0.85
0.35
0.12
0.08
0.07
0.02
-0.10
-0.23
-0.34
-0.42
-0.53
-0.78
-1.25
-1.98
-2.96
-4.09
-5.27
-6.44
-7.52
-8.45
-9.17
-9.55
-9.45
-8.76
-7.46
-5.62
-3.45
-1.24
0.74
2.25
3.21
3.72
3.91
3.94
3.89
3.79
3.63
3.45
3.34
3.40
3.69
4.16
4.65
4.95
4.92
4.56
3.97
3.33
2.74
2.22
1.70
1.12
0.46
-0.21
-0.82
-1.33
-1.84
-2.51
-3.49
-4.76
-6.06
-6.99
-7.14
-6.31
-4.62
-2.43
-0.23
1.62
2.96
3.87
4.52
5.07
5.52
5.77
5.69
5.27
4.63
4.02
3.66
3.65
3.91
4.25
4.47
4.47
4.27
3.94
3.57
3.16
2.63
1.89
0.92
-0.22
-1.39
-2.40
-3.18
-3.75
-4.24
-4.81
-5.51
-6.26
-6.85
-6.99
-6.46
-5.21
-3.37
-1.22
0.92
2.79
4.22
5.14
5.54
5.47
5.00
4.21
3.21
2.12
1.07
0.20
-0.43
-0.78
-0.88
-0.81
-0.66
-0.48
-0.29
-0.09
0.11
0.29
0.39
0.32
0.04
-0.47
-1.17
-1.96
-2.73
-3.43
-4.07
-4.67
-5.25
-5.75
-6.03
-5.89
-5.23
-4.02
-2.42
-0.64
1.09
2.56
3.70
4.47
4.92
5.10
5.07
4.90
4.60
4.16
3.59
2.96
2.37
1.95
1.80
1.92
2.23
2.57
2.83
2.91
2.79
2.48
2.00
1.41
0.81
0.28
-0.12
-0.38
-0.57
-0.82
-1.21
-1.76
-2.42
-3.07
-3.57
-3.80
-3.65
-3.07
-2.09
-0.83
0.51
1.77
2.79
3.50
3.89
4.01
3.90
3.60
3.17
2.64
2.10
1.64
1.37
1.33
1.54
1.91
2.27
2.45
2.36
1.99
1.48
0.98
0.58
0.27
-0.08
-0.58
-1.28
-2.08
-2.83
-3.39
-3.71
-3.89
-4.04
-4.24
-4.43
-4.45
-4.10
-3.28
-2.05
-0.61
0.79
1.92
2.68
3.09
3.18
2.98
2.52
1.85
1.10
0.42
-0.05
-0.27
-0.28
-0.22
-0.20
-0.26
-0.35
-0.38
-0.31
-0.15
0.00
0.05
-0.09
-0.45
-1.03
-1.80
-2.69
-3.62
-4.48
-5.19
-5.68
-5.91
-5.83
-5.41
-4.63
-3.52
-2.15
-0.66
0.76
1.93
2.74
3.12
3.08
2.68
1.97
1.07
0.08
-0.82
-1.49
-1.83
-1.84
-1.61
-1.26
-0.91
-0.65
-0.50
-0.47
-0.55
-0.77
-1.14
-1.65
-2.28
-2.98
-3.70
-4.41
-5.06
-5.61
-5.98
-6.09
-5.87
-5.28
-4.33
-3.13
-1.83
-0.64
0.28
0.81
0.94
0.72
0.23
-0.42
-1.13
-1.75
-2.13
-2.14
-1.73
-1.03
-0.27
0.30
0.52
0.41
0.11
-0.24
-0.56
-0.87
-1.23
-1.67
-2.12
-2.53
-2.88
-3.23
-3.66
-4.19
-4.73
-5.02
-4.80
-3.92
-2.44
-0.63
1.15
2.56
3.47
3.91
4.02
3.96
3.81
3.57
3.24
2.86
2.53
2.37
2.41
2.52
2.52
2.28
1.78
1.21
0.80
0.74
1.06
1.60
2.07
2.25
1.98
1.28
0.26
-0.93
-2.11
-3.12
-3.79
-3.99
-3.64
-2.74
-1.44
0.06
1.50
2.68
3.48
3.84
3.76
3.29
2.52
1.58
0.67
0.01
-0.24
-0.02
0.52
1.13
1.52
1.53
1.17
0.63
0.14
-0.12
-0.17
-0.16
-0.31
-0.82
-1.72
-2.89
-4.12
-5.23
-6.06
-6.53
-6.56
-6.11
-5.16
-3.79
-2.15
-0.50
0.91
1.90
2.43
2.60
2.57
2.47
2.35
2.15
1.81
1.33
0.78
0.32
0.09
0.13
0.38
0.67
0.84
0.75
0.36
-0.31
-1.19
-2.18
-3.18
-4.09
-4.85
-5.42
-5.85
-6.18
-6.48
-6.74
-6.89
-6.78
-6.25
-5.19
-3.63
-1.70
0.37
2.35
4.04
5.35
6.23
6.67
6.66
6.24
5.50
4.61
3.82
3.30
3.16
3.33
3.66
3.97
4.11
4.03
3.77
3.41
3.01
2.61
2.20
1.71
1.11
0.38
-0.46
-1.39
-2.33
-3.19
-3.86
-4.25
-4.27
-3.88
-3.11
-2.02
-0.68
0.82
2.39
3.88
5.13
5.94
6.18
5.87
5.18
4.36
3.67
3.21
2.99
2.92
2.95
3.03
3.15
3.26
3.27
3.05
2.56
1.85
1.13
0.57
0.29
0.21
0.18
-0.03
-0.55
-1.37
-2.39
-3.37
-4.09
-4.33
-4.00
-3.13
-1.88
-0.45
0.95
2.18
3.20
3.98
4.50
4.65
4.36
3.59
2.48
1.28
0.31
-0.21
-0.24
0.07
0.46
0.70
0.69
0.46
0.11
-0.22
-0.49
-0.71
-0.90
-1.09
-1.25
-1.38
-1.51
-1.74
-2.19
-2.87
-3.70
-4.42
-4.76
-4.53
-3.71
-2.45
-0.99
0.45
1.76
2.88
3.81
4.46
4.72
4.46
3.68
2.52
1.26
0.22
-0.37
-0.50
-0.32
-0.11
-0.10
-0.36
-0.79
-1.18
-1.34
-1.23
-1.00
-0.92
-1.20
-1.91
-2.93
-4.04
-5.03
-5.76
-6.20
-6.33
-6.14
-5.55
-4.54
-3.14
-1.48
0.22
1.75
3.00
3.90
4.47
4.76
4.79
4.57
4.11
3.46
2.72
2.07
1.64
1.50
1.63
1.90
2.15
2.21
2.03
1.61
1.00
0.27
-0.51
-1.30
-2.08
-2.83
-3.53
-4.17
-4.71
-5.10
-5.27
-5.12
-4.54
-3.51
-2.04
-0.25
1.69
3.58
5.19
6.36
6.95
6.95
6.44
5.61
4.69
3.93
3.48
3.40
3.59
3.88
4.03
3.90
3.43
2.69
1.82
0.95
0.19
-0.43
-0.90
-1.26
-1.61
-2.06
-2.73
-3.66
-4.77
-5.88
-6.73
-7.09
-6.80
-5.86
-4.38
-2.53
-0.53
1.36
2.87
3.77
3.93
3.38
2.33
1.08
-0.11
-1.03
-1.61
-1.81
-1.65
-1.14
-0.34
0.61
1.50
2.11
2.30
2.10
1.70
1.32
1.15
1.21
1.43
1.61
1.57
1.18
0.40
-0.69
-1.95
-3.17
-4.11
-4.52
-4.27
-3.32
-1.81
-0.00
1.81
3.38
4.50
5.12
5.26
5.03
4.60
4.13
3.75
3.51
3.39
3.34
3.30
3.26
3.22
3.16
3.05
2.80
2.37
1.75
1.01
0.26
-0.45
-1.08
-1.69
-2.30
-2.94
-3.56
-4.17
-4.76
-5.38
-6.04
-6.68
-7.12
-7.19
-6.73
-5.76
-4.42
-2.94
-1.55
-0.38
0.53
1.18
1.58
1.75
1.73
1.56
1.35
1.21
1.24
1.49
1.92
2.44
2.92
3.22
3.29
3.11
2.76
2.34
1.95
1.66
1.44
1.22
0.92
0.48
-0.08
-0.68
-1.26
-1.78
-2.26
-2.76
-3.29
-3.78
-4.07
-3.96
-3.29
-2.07
-0.46
1.27
2.84
4.05
4.82
5.15
5.08
4.64
3.87
2.85
1.76
0.82
0.27
0.21
0.58
1.16
1.68
1.95
1.91
1.67
1.39
1.15
0.93
0.56
-0.14
-1.34
-3.14
-5.52
-8.39
-11.52
-14.58
-17.14
-18.77
-19.17
-18.21
-16.06
-13.08
-9.73
-6.47
-3.64
-1.40
0.23
1.29
1.86
1.98
1.71
1.12
0.41
-0.19
-0.43
-0.17
0.56
1.57
2.54
3.23
3.54
3.50
3.22
2.80
2.31
1.75
1.13
0.47
-0.21
-0.89
-1.61
-2.48
-3.58
-4.89
-6.19
-7.13
-7.32
-6.53
-4.81
-2.47
0.02
2.21
3.85
4.90
5.48
5.73
5.74
5.50
5.03
4.41
3.83
3.47
3.46
3.81
4.38
4.96
5.37
5.49
5.31
4.86
4.21
3.44
2.66
1.96
1.39
0.93
0.46
-0.16
-1.02
-2.09
-3.15
-3.94
-4.20
-3.80
-2.80
-1.39
0.21
1.79
3.20
4.35
5.17
5.56
5.52
5.06
4.31
3.47
2.73
2.21
1.92
1.82
1.81
1.85
1.93
2.04
2.16
2.22
2.15
1.88
1.47
1.00
0.57
0.25
0.01
-0.23
-0.56
-1.07
-1.74
-2.50
-3.20
-3.67
-3.75
-3.34
-2.42
-1.07
0.58
2.34
4.01
5.39
6.29
6.62
6.34
5.57
4.51
3.40
2.46
1.80
1.41
1.19
1.02
0.85
0.71
0.67
0.75
0.87
0.89
0.70
0.28
-0.27
-0.82
-1.26
-1.62
-2.05
-2.74
-3.76
-5.04
-6.33
-7.32
-7.74
-7.47
-6.57
-5.19
-3.57
-1.92
-0.38
0.94
2.00
2.79
3.29
3.52
3.53
3.37
3.11
2.82
2.56
2.40
2.40
2.60
2.96
3.42
3.81
4.01
3.90
3.46
2.75
1.88
0.99
0.19
-0.45
-0.96
-1.41
-1.87
-2.39
-2.98
-3.54
-3.93
-4.02
-3.73
-3.08
-2.11
-0.91
0.44
1.86
3.23
4.40
5.18
5.40
5.01
4.09
2.90
1.77
1.02
0.85
1.25
2.02
2.86
3.46
3.64
3.34
2.64
1.67
0.58
-0.48
-1.38
-2.04
-2.42
-2.58
-2.64
-2.80
-3.24
-3.98
-4.94
-5.86
-6.44
-6.41
-5.64
-4.18
-2.26
-0.24
1.54
2.83
3.58
3.87
3.88
3.72
3.38
2.83
2.05
1.13
0.31
-0.16
-0.15
0.30
0.91
1.33
1.30
0.76
-0.11
-1.05
-1.80
-2.26
-2.51
-2.75
-3.15
-3.77
-4.53
-5.27
-5.85
-6.16
-6.20
-5.93
-5.34
-4.34
-2.87
-0.99
1.12
3.15
4.75
5.66
5.76
5.12
4.00
2.73
1.64
0.96
0.77
1.00
1.45
1.93
2.25
2.29
2.06
1.62
1.10
0.60
0.22
0.00
-0.08
-0.09
-0.15
-0.41
-0.95
-1.82
-2.95
-4.18
-5.23
-5.80
-5.66
-4.69
-3.01
-0.89
1.29
3.23
4.71
5.67
6.15
6.20
5.88
5.30
4.55
3.81
3.24
2.93
2.90
3.06
3.31
3.53
3.65
3.62
3.43
3.09
2.64
2.15
1.67
1.27
0.92
0.57
0.14
-0.41
-1.11
-1.93
-2.83
-3.75
-4.57
-5.16
-5.39
-5.18
-4.54
-3.57
-2.45
-1.34
-0.36
0.41
0.94
1.20
1.18
0.88
0.38
-0.19
-0.64
-0.81
-0.63
-0.12
0.59
1.36
2.05
2.56
2.84
2.90
2.77
2.51
2.20
1.91
1.62
1.28
0.81
0.10
-0.86
-1.99
-3.10
-3.98
-4.44
-4.35
-3.73
-2.66
-1.30
0.16
1.53
2.66
3.49
4.01
4.25
4.24
3.98
3.48
2.76
1.92
1.10
0.49
0.18
0.20
0.46
0.83
1.19
1.45
1.58
1.56
1.40
1.09
0.67
0.20
-0.32
-0.88
-1.56
-2.39
-3.39
-4.45
-5.38
-5.95
-6.01
-5.49
-4.44
-3.01
-1.37
0.29
1.79
3.03
3.92
4.42
4.53
4.25
3.64
2.77
1.83
0.98
0.40
0.17
0.24
0.45
0.59
0.48
0.06
-0.57
-1.22
-1.67
-1.78
-1.57
-1.20
-0.94
-1.04
-1.64
-2.70
-4.03
-5.30
-6.21
-6.51
-6.12
-5.12
-3.71
-2.14
-0.65
0.58
1.48
2.01
2.20
2.09
1.75
1.28
0.79
0.37
0.09
-0.08
-0.20
-0.35
-0.58
-0.85
-1.11
-1.29
-1.38
-1.42
-1.45
-1.54
-1.71
-1.99
-2.40
-2.96
-3.71
-4.66
-5.77
-6.91
-7.93
-8.62
-8.79
-8.29
-7.09
-5.31
-3.21
-1.11
0.71
2.09
3.05
3.69
4.14
4.46
4.60
4.49
4.13
3.59
3.04
2.66
2.58
2.76
3.05
3.28
3.29
3.04
2.55
1.93
1.29
0.69
0.16
-0.30
-0.75
-1.25
-1.89
-2.70
-3.71
-4.82
-5.87
-6.62
-6.85
-6.39
-5.23
-3.51
-1.49
0.55
2.36
3.79
4.78
5.35
5.54
5.40
5.01
4.44
3.81
3.27
2.92
2.82
2.96
3.24
3.55
3.78
3.87
3.83
3.67
3.48
3.28
3.14
3.06
3.04
3.00
2.80
2.26
1.18
-0.51
-2.68
-5.03
-7.13
-8.59
-9.20
-8.95
-8.03
-6.68
-5.12
-3.51
-1.96
-0.57
0.54
1.30
1.67
1.68
1.47
1.18
0.98
1.00
1.32
1.95
2.81
3.77
4.68
5.42
5.92
6.18
6.19
5.96
5.49
4.84
4.06
3.25
2.48
1.80
1.19
0.56
-0.20
-1.21
-2.51
-3.97
-5.38
-6.41
-6.79
-6.37
-5.19
-3.42
-1.35
0.71
2.49
3.79
4.48
4.60
4.30
3.84
3.47
3.32
3.38
3.53
3.58
3.43
3.06
2.55
2.03
1.64
1.42
1.35
1.35
1.32
1.12
0.71
0.12
-0.57
-1.24
-1.80
-2.24
-2.63
-3.09
-3.68
-4.41
-5.17
-5.78
-6.05
-5.82
-5.04
-3.78
-2.23
-0.59
0.92
2.15
3.02
3.47
3.52
3.17
2.49
1.58
0.60
-0.28
-0.87
-1.07
-0.85
-0.29
0.40
1.03
1.41
1.50
1.35
1.10
0.90
0.79
0.70
0.53
0.15
-0.48
-1.35
-2.37
-3.45
-4.47
-5.33
-5.90
-6.10
-5.91
-5.42
-4.75
-4.01
-3.21
-2.31
-1.33
-0.34
0.44
0.80
0.61
-0.05
-0.95
-1.78
-2.31
-2.49
-2.40
-2.25
-2.22
-2.39
-2.72
-3.11
-3.43
-3.63
-3.73
-3.85
-4.09
-4.52
-5.17
-5.96
-6.86
-7.80
-8.73
-9.59
-10.25
-10.59
-10.47
-9.84
-8.68
-7.05
-5.07
-2.90
-0.75
1.15
2.59
3.41
3.66
3.49
3.20
3.06
3.20
3.62
4.15
4.60
4.85
4.87
4.74
4.57
4.43
4.32
4.15
3.82
3.32
2.67
1.98
1.32
0.75
0.21
-0.36
-1.01
-1.70
-2.29
-2.55
-2.24
-1.27
0.31
2.28
4.26
5.90
6.94
7.30
7.06
6.41
5.56
4.66
3.83
3.09
2.46
1.96
1.60
1.37
1.25
1.19
1.14
1.05
0.89
0.64
0.28
-0.17
-0.77
-1.52
-2.39
-3.33
-4.24
-5.03
-5.60
-5.94
-5.99
-5.75
-5.14
-4.15
-2.78
-1.16
0.48
1.90
2.86
3.28
3.23
2.86
2.35
1.81
1.28
0.76
0.25
-0.18
-0.46
-0.50
-0.29
0.08
0.45
0.64
0.53
0.12
-0.48
-1.11
-1.67
-2.18
-2.76
-3.59
-4.74
-6.09
-7.35
-8.19
-8.38
-7.88
-6.84
-5.53
-4.19
-2.94
-1.86
-0.94
-0.20
0.29
0.46
0.27
-0.25
-0.91
-1.47
-1.65
-1.28
-0.35
0.96
2.42
3.80
5.03
6.13
7.17
8.13
8.86
9.14
8.83
7.90
6.50
4.89
3.28
1.78
0.41
-0.81
-1.81
-2.45
-2.55
-2.04
-1.00
0.36
1.74
2.88
3.62
3.93
3.83
3.40
2.72
1.94
1.20
0.64
0.31
0.19
0.15
0.06
-0.15
-0.45
-0.79
-1.08
-1.27
-1.37
-1.38
-1.34
-1.36
-1.55
-2.06
-2.96
-4.15
-5.40
-6.37
-6.76
-6.41
-5.38
-3.87
-2.13
-0.38
1.23
2.64
3.79
4.62
5.08
5.13
4.84
4.34
3.80
3.39
3.22
3.31
3.57
3.85
4.02
3.98
3.70
3.24
2.73
2.28
1.98
1.80
1.65
1.37
0.82
-0.04
-1.14
-2.32
-3.39
-4.17
-4.56
-4.51
-4.05
-3.24
-2.12
-0.78
0.69
2.18
3.53
4.58
5.22
5.36
5.07
4.48
3.77
3.13
2.70
2.52
2.57
2.78
3.06
3.28
3.31
3.06
2.52
1.76
0.89
0.06
-0.63
-1.12
-1.47
-1.74
-2.03
-2.39
-2.83
-3.31
-3.70
-3.87
-3.74
-3.25
-2.45
-1.42
-0.22
1.10
2.49
3.87
5.07
5.89
6.16
5.88
5.20
4.40
3.75
3.36
3.17
3.02
2.72
2.24
1.65
1.13
0.80
0.67
0.63
0.51
0.20
-0.30
-0.90
-1.53
-2.13
-2.75
-3.41
-4.04
-4.52
-4.64
-4.28
-3.40
-2.13
-0.66
0.79
2.10
3.18
4.00
4.54
4.74
4.57
4.06
3.29
2.40
1.52
0.76
0.19
-0.15
-0.27
-0.20
-0.03
0.12
0.14
-0.06
-0.52
-1.17
-1.87
-2.51
-2.98
-3.27
-3.45
-3.59
-3.72
-3.80
-3.77
-3.54
-3.04
-2.29
-1.34
-0.27
0.77
1.64
2.24
2.49
2.35
1.91
1.29
0.70
0.29
0.14
0.19
0.33
0.38
0.24
-0.09
-0.56
-1.06
-1.50
-1.82
-2.02
-2.09
-2.06
-1.96
-1.86
-1.85
-1.99
-2.31
-2.72
-3.03
-3.03
-2.54
-1.53
-0.13
1.41
2.80
3.82
4.39
4.55
4.45
4.22
3.96
3.67
3.33
2.92
2.48
2.05
1.67
1.34
1.01
0.68
0.34
0.03
-0.22
-0.46
-0.81
-1.43
-2.43
-3.78
-5.30
-6.70
-7.74
-8.24
-8.20
-7.65
-6.69
-5.38
-3.82
-2.13
-0.50
0.88
1.87
2.44
2.66
2.69
2.66
2.63
2.55
2.36
2.00
1.50
0.96
0.52
0.23
0.11
0.07
0.01
-0.15
-0.46
-0.89
-1.42
-2.01
-2.64
-3.27
-3.89
-4.44
-4.88
-5.17
-5.20
-4.85
-4.03
-2.73
-1.09
0.64
2.15
3.17
3.58
3.44
2.88
2.09
1.25
0.50
-0.02
-0.24
-0.16
0.11
0.41
0.51
0.31
-0.20
-0.89
-1.51
-1.86
-1.84
-1.50
-1.05
-0.74
-0.79
-1.28
-2.13
-3.07
-3.80
-4.02
-3.57
-2.46
-0.84
1.04
2.92
4.52
5.63
6.10
5.87
5.05
3.85
2.57
1.46
0.72
0.35
0.26
0.31
0.38
0.39
0.32
0.18
-0.03
-0.33
-0.73
-1.23
-1.81
-2.39
-2.86
-3.16
-3.30
-3.39
-3.57
-3.93
-4.34
-4.55
-4.25
-3.26
-1.67
0.15
1.80
3.00
3.72
4.16
4.58
5.06
5.47
5.57
5.17
4.32
3.30
2.52
2.26
2.56
3.16
3.70
3.83
3.40
2.51
1.38
0.26
-0.67
-1.38
-1.92
-2.36
-2.75
-3.14
-3.54
-3.98
-4.53
-5.20
-5.94
-6.58
-6.88
-6.61
-5.65
-4.04
-2.03
0.05
1.87
3.19
3.94
4.20
4.09
3.81
3.49
3.26
3.14
3.13
3.18
3.23
3.25
3.22
3.16
3.09
3.02
2.96
2.88
2.76
2.60
2.35
2.02
1.59
1.03
0.36
-0.42
-1.24
-2.04
-2.77
-3.39
-3.90
-4.23
-4.31
-4.02
-3.29
-2.14
-0.69
0.82
2.18
3.24
3.96
4.38
4.53
4.42
4.07
3.54
2.97
2.48
2.17
2.02
1.98
1.99
2.04
2.19
2.44
2.69
2.79
2.57
1.95
0.99
-0.12
-1.18
-2.05
-2.74
-3.33
-3.99
-4.82
-5.84
-6.97
-8.02
-8.73
-8.90
-8.41
-7.32
-5.83
-4.20
-2.67
-1.39
-0.38
0.35
0.86
1.19
1.36
1.38
1.26
1.03
0.74
0.44
0.26
0.26
0.49
0.92
1.43
1.91
2.22
2.34
2.27
2.04
1.69
1.26
0.81
0.43
0.15
-0.04
-0.25
-0.65
-1.38
-2.48
-3.83
-5.14
-6.12
-6.51
-6.20
-5.20
-3.66
-1.84
0.02
1.70
3.04
3.97
4.47
4.59
4.37
3.87
3.20
2.49
1.92
1.64
1.74
2.20
2.90
3.63
4.21
4.49
4.44
4.09
3.55
2.91
2.24
1.55
0.84
0.14
-0.48
-0.92
-1.16
-1.27
-1.40
-1.77
-2.54
-3.65
-4.88
-5.86
-6.21
-5.75
-4.50
-2.73
-0.80
0.96
2.38
3.42
4.15
4.63
4.84
4.71
4.19
3.35
2.40
1.61
1.19
1.21
1.52
1.91
2.19
2.29
2.29
2.33
2.50
2.74
2.92
2.85
2.41
1.64
0.66
-0.31
-1.14
-1.80
-2.34
-2.88
-3.47
-4.13
-4.77
-5.32
-5.72
-5.92
-5.89
-5.51
-4.67
-3.30
-1.51
0.46
2.27
3.62
4.39
4.60
4.41
3.99
3.46
2.84
2.19
1.57
1.07
0.84
0.94
1.39
2.07
2.80
3.37
3.60
3.43
2.93
2.29
1.69
1.27
1.02
0.84
0.57
0.11
-0.55
-1.34
-2.17
-3.02
-3.91
-4.87
-5.84
-6.66
-7.05
-6.79
-5.80
-4.22
-2.34
-0.51
1.00
2.08
2.79
3.21
3.42
3.40
3.12
2.60
1.95
1.40
1.11
1.16
1.47
1.89
2.27
2.53
2.70
2.80
2.86
2.81
2.54
2.00
1.20
0.30
-0.54
-1.19
-1.62
-1.91
-2.20
-2.60
-3.17
-3.90
-4.70
-5.44
-5.97
-6.13
-5.81
-5.01
-3.83
-2.46
-1.11
0.04
0.92
1.52
1.86
2.00
1.95
1.79
1.60
1.46
1.44
1.53
1.65
1.72
1.67
1.52
1.34
1.17
1.01
0.82
0.54
0.12
-0.40
-0.99
-1.62
-2.26
-2.87
-3.43
-3.89
-4.25
-4.57
-4.95
-5.50
-6.20
-6.86
-7.20
-6.93
-5.92
-4.22
-2.11
0.07
1.98
3.42
4.30
4.67
4.65
4.37
3.94
3.46
2.98
2.54
2.17
1.94
1.87
1.92
2.01
2.04
1.95
1.75
1.52
1.34
1.23
1.12
0.89
0.48
-0.14
-0.90
-1.69
-2.42
-3.10
-3.76
-4.49
-5.27
-6.02
-6.56
-6.68
-6.23
-5.20
-3.73
-2.10
-0.57
0.66
1.55
2.19
2.66
3.00
3.20
3.21
3.07
2.89
2.83
2.97
3.29
3.63
3.84
3.79
3.51
3.08
2.60
2.13
1.67
1.21
0.77
0.36
-0.01
-0.40
-0.86
-1.49
-2.29
-3.22
-4.18
-5.05
-5.72
-6.15
-6.26
-6.00
-5.31
-4.14
-2.53
-0.60
1.41
3.22
4.58
5.37
5.62
5.46
5.07
4.55
3.93
3.23
2.49
1.82
1.36
1.22
1.39
1.71
1.97
2.02
1.84
1.57
1.34
1.23
1.19
1.03
0.58
-0.19
-1.17
-2.16
-2.99
-3.60
-4.11
-4.66
-5.35
-6.14
-6.82
-7.15
-6.98
-6.28
-5.19
-3.88
-2.50
-1.09
0.35
1.78
3.08
4.03
4.39
4.08
3.19
2.03
0.97
0.32
0.15
0.33
0.62
0.82
0.86
0.78
0.72
0.73
0.80
0.81
0.70
0.43
0.06
-0.31
-0.64
-0.95
-1.30
-1.75
-2.31
-2.96
-3.66
-4.34
-4.95
-5.34
-5.40
-5.01
-4.15
-2.91
-1.45
0.01
1.33
2.43
3.30
3.92
4.24
4.20
3.75
2.99
2.09
1.33
0.90
0.89
1.18
1.53
1.71
1.61
1.28
0.89
0.61
0.48
0.47
0.41
0.20
-0.21
-0.78
-1.39
-1.98
-2.57
-3.22
-3.99
-4.86
-5.68
-6.25
-6.34
-5.81
-4.66
-3.02
-1.15
0.68
2.22
3.31
3.94
4.15
4.08
3.84
3.51
3.11
2.64
2.17
1.76
1.51
1.47
1.62
1.89
2.12
2.23
2.16
1.90
1.52
1.09
0.65
0.24
-0.14
-0.50
-0.86
-1.25
-1.71
-2.26
-2.96
-3.78
-4.67
-5.46
-5.99
-6.06
-5.59
-4.57
-3.09
-1.32
0.55
2.29
3.68
4.56
4.91
4.79
4.36
3.80
3.20
2.56
1.90
1.29
0.86
0.79
1.15
1.83
2.61
3.21
3.40
3.13
2.49
1.62
0.70
-0.14
-0.82
-1.28
-1.52
-1.62
-1.74
-2.06
-2.75
-3.84
-5.24
-6.69
-7.86
-8.44
-8.27
-7.31
-5.73
-3.80
-1.84
-0.11
1.24
2.20
2.85
3.28
3.51
3.46
3.06
2.33
1.46
0.73
0.40
0.57
1.14
1.90
2.60
3.18
3.66
4.10
4.52
4.81
4.84
4.52
3.90
3.14
2.45
1.93
1.59
1.31
0.95
0.36
-0.49
-1.56
-2.68
-3.65
-4.23
-4.24
-3.63
-2.48
-0.99
0.56
1.92
2.95
3.60
3.93
4.00
3.86
3.54
3.08
2.54
2.05
1.73
1.66
1.86
2.28
2.79
3.28
3.63
3.76
3.58
3.06
2.24
1.23
0.17
-0.78
-1.52
-2.03
-2.33
-2.46
-2.49
-2.52
-2.66
-3.04
-3.71
-4.61
-5.55
-6.21
-6.30
-5.62
-4.21
-2.33
-0.35
1.39
2.65
3.40
3.71
3.71
3.49
3.11
2.58
1.97
1.37
0.92
0.72
0.75
0.94
1.15
1.24
1.17
0.93
0.61
0.27
-0.03
-0.27
-0.48
-0.71
-0.98
-1.25
-1.45
-1.53
-1.48
-1.40
-1.43
-1.69
-2.21
-2.90
-3.58
-3.99
-3.94
-3.36
-2.28
-0.84
0.77
2.36
3.78
4.92
5.71
6.11
6.14
5.85
5.30
4.60
3.88
3.24
2.77
2.52
2.45
2.53
2.68
2.85
3.01
3.17
3.32
3.42
3.38
3.10
2.50
1.62
0.58
-0.46
-1.38
-2.19
-2.99
-3.92
-5.05
-6.35
-7.64
-8.67
-9.20
-9.07
-8.23
-6.71
-4.67
-2.34
-0.00
2.02
3.46
4.17
4.15
3.58
2.71
1.81
1.05
0.52
0.19
-0.02
-0.15
-0.22
-0.20
-0.08
0.13
0.36
0.52
0.56
0.52
0.48
0.55
0.77
1.07
1.30
1.33
1.10
0.66
0.11
-0.47
-1.09
-1.77
-2.53
-3.27
-3.80
-3.92
-3.56
-2.77
-1.74
-0.67
0.33
1.23
2.09
2.91
3.64
4.16
4.37
4.21
3.75
3.07
2.30
1.51
0.76
0.10
-0.38
-0.59
-0.49
-0.10
0.46
1.01
1.41
1.54
1.38
1.00
0.51
-0.00
-0.50
-1.00
-1.58
-2.30
-3.19
-4.21
-5.23
-6.09
-6.60
-6.57
-5.93
-4.70
-3.02
-1.16
0.62
2.12
3.20
3.87
4.19
4.26
4.13
3.82
3.32
2.66
1.90
1.17
0.65
0.48
0.70
1.23
1.84
2.29
2.37
2.00
1.29
0.43
-0.32
-0.81
-1.00
-1.00
-1.00
-1.13
-1.51
-2.15
-3.01
-4.02
-5.09
-6.07
-6.76
-6.89
-6.26
-4.80
-2.66
-0.19
2.19
4.07
5.23
5.62
5.39
4.75
3.93
3.08
2.29
1.62
1.12
0.88
0.98
1.41
2.09
2.79
3.28
3.39
3.09
2.50
1.79
1.12
0.59
0.17
-0.23
-0.69
-1.27
-1.99
-2.83
-3.80
-4.90
-6.06
-7.13
-7.82
-7.82
-6.91
-5.10
-2.69
-0.15
2.03
3.56
4.38
4.66
4.60
4.38
4.01
3.48
2.77
2.03
1.44
1.21
1.45
2.11
2.96
3.72
4.16
4.17
3.81
3.29
2.78
2.40
2.10
1.71
1.09
0.20
-0.91
-2.05
-3.08
-3.93
-4.66
-5.33
-5.94
-6.38
-6.40
-5.83
-4.61
-2.94
-1.10
0.57
1.86
2.74
3.24
3.50
3.57
3.49
3.27
2.91
2.47
2.03
1.69
1.53
1.61
1.88
2.25
2.57
2.71
2.60
2.24
1.72
1.12
0.54
0.03
-0.41
-0.84
-1.34
-2.00
-2.87
-3.90
-4.94
-5.75
-6.10
-5.87
-5.09
-3.88
-2.41
-0.84
0.75
2.26
3.57
4.53
4.98
4.86
4.20
3.18
2.03
1.01
0.30
-0.02
0.02
0.32
0.73
1.11
1.34
1.34
1.10
0.67
0.10
-0.54
-1.21
-1.90
-2.63
-3.43
-4.26
-5.10
-5.90
-6.57
-7.04
-7.21
-6.98
-6.26
-5.06
-3.49
-1.76
-0.10
1.32
2.39
3.07
3.35
3.22
2.74
2.01
1.22
0.61
0.33
0.43
0.80
1.26
1.65
1.86
1.90
1.82
1.67
1.51
1.33
1.13
0.84
0.43
-0.15
-0.93
-1.91
-3.03
-4.19
-5.25
-6.03
-6.36
-6.11
-5.26
-3.87
-2.11
-0.22
1.59
3.14
4.34
5.13
5.46
5.34
4.78
3.90
2.83
1.76
0.83
0.12
-0.34
-0.62
-0.78
-0.88
-0.95
-0.99
-0.99
-0.94
-0.86
-0.84
-0.99
-1.44
-2.26
-3.45
-4.87
-6.33
-7.60
-8.44
-8.68
-8.24
-7.12
-5.41
-3.28
-0.96
1.31
3.30
4.82
5.78
6.18
6.08
5.63
4.99
4.30
3.70
3.29
3.14
3.26
3.63
4.13
4.63
4.97
5.06
4.85
4.42
3.87
3.31
2.78
2.26
1.68
0.97
0.07
-1.00
-2.18
-3.34
-4.30
-4.89
-5.00
-4.57
-3.64
-2.28
-0.62
1.21
3.03
4.65
5.89
6.61
6.77
6.47
5.88
5.18
4.55
4.04
3.66
3.40
3.26
3.21
3.25
3.32
3.33
3.19
2.86
2.36
1.78
1.23
0.77
0.40
0.03
-0.46
-1.17
-2.15
-3.31
-4.50
-5.51
-6.18
-6.35
-6.01
-5.17
-3.93
-2.39
-0.67
1.08
2.68
3.97
4.79
5.06
4.81
4.18
3.35
2.50
1.73
1.10
0.62
0.32
0.23
0.40
0.77
1.21
1.54
1.62
1.40
0.96
0.44
-0.05
-0.50
-0.97
-1.55
-2.28
-3.15
-4.09
-5.00
-5.80
-6.37
-6.60
-6.36
-5.57
-4.25
-2.51
-0.57
1.30
2.83
3.83
4.21
4.02
3.42
2.61
1.84
1.26
0.94
0.88
1.04
1.35
1.77
2.19
2.47
2.47
2.16
1.60
0.96
0.38
-0.07
-0.45
-0.90
-1.54
-2.40
-3.44
-4.53
-5.54
-6.33
-6.76
-6.73
-6.16
-5.08
-3.60
-1.90
-0.20
1.31
2.51
3.35
3.82
3.89
3.55
2.83
1.85
0.76
-0.21
-0.84
-1.00
-0.65
0.04
0.79
1.31
1.40
1.03
0.37
-0.36
-0.94
-1.27
-1.39
-1.43
-1.59
-2.05
-2.88
-4.03
-5.28
-6.35
-6.91
-6.78
-5.94
-4.53
-2.80
-1.00
0.70
2.19
3.38
4.18
4.51
4.31
3.67
2.79
1.93
1.37
1.20
1.36
1.66
1.81
1.66
1.19
0.59
0.10
-0.12
-0.08
0.06
0.05
-0.25
-0.83
-1.55
-2.29
-2.99
-3.71
-4.50
-5.33
-5.99
-6.19
-5.71
-4.51
-2.77
-0.82
1.03
2.56
3.71
4.48
4.89
4.95
4.67
4.07
3.25
2.36
1.57
1.01
0.74
0.73
0.88
1.08
1.22
1.21
1.06
0.80
0.52
0.25
-0.00
-0.30
-0.73
-1.37
-2.21
-3.17
-4.15
-5.01
-5.67
-6.05
-6.10
-5.74
-4.96
-3.76
-2.24
-0.58
1.00
2.32
3.26
3.77
3.86
3.56
2.97
2.22
1.54
1.09
0.98
1.15
1.41
1.54
1.42
1.04
0.55
0.11
-0.18
-0.35
-0.52
-0.82
-1.32
-2.00
-2.80
-3.61
-4.39
-5.08
-5.62
-5.95
-5.95
-5.53
-4.65
-3.38
-1.85
-0.27
1.13
2.18
2.77
2.89
2.60
2.06
1.43
0.88
0.51
0.33
0.30
0.31
0.29
0.27
0.29
0.44
0.72
1.02
1.20
1.10
0.69
0.07
-0.63
-1.32
-2.01
-2.84
-3.85
-4.96
-5.93
-6.43
-6.23
-5.29
-3.78
-2.01
-0.28
1.17
2.23
2.85
3.09
3.00
2.71
2.31
1.90
1.54
1.27
1.13
1.16
1.32
1.57
1.80
1.92
1.86
1.64
1.32
0.96
0.60
0.24
-0.17
-0.68
-1.37
-2.24
-3.28
-4.36
-5.28
-5.80
-5.72
-4.97
-3.65
-2.01
-0.31
1.24
2.52
3.51
4.20
4.61
4.73
4.57
4.16
3.56
2.87
2.18
1.61
1.27
1.23
1.47
1.90
2.33
2.56
2.43
1.93
1.12
0.13
-0.87
-1.82
-2.65
-3.40
-4.11
-4.80
-5.49
-6.12
-6.59
-6.75
-6.46
-5.59
-4.15
-2.23
-0.00
2.25
4.23
5.69
6.44
6.48
5.93
5.03
4.08
3.33
2.92
2.86
3.07
3.41
3.74
3.95
3.99
3.86
3.57
3.17
2.68
2.13
1.56
0.99
0.43
-0.18
-0.94
-1.94
-3.21
-4.62
-5.94
-6.91
-7.28
-6.93
-5.90
-4.33
-2.45
-0.52
1.26
2.72
3.78
4.44
4.75
4.77
4.49
3.94
3.15
2.26
1.52
1.14
1.24
1.73
2.39
2.91
3.10
2.93
2.55
2.12
1.77
1.46
1.08
0.51
-0.28
-1.25
-2.31
-3.36
-4.35
-5.26
-6.03
-6.53
-6.61
-6.11
-4.97
-3.33
-1.42
0.44
2.02
3.20
3.98
4.41
4.53
4.29
3.66
2.71
1.62
0.70
0.23
0.32
0.86
1.55
2.03
2.09
1.75
1.22
0.73
0.42
0.23
0.02
-0.36
-0.94
-1.67
-2.42
-3.12
-3.76
-4.37
-4.93
-5.35
-5.42
-4.95
-3.85
-2.22
-0.32
1.55
3.09
4.18
4.83
5.11
5.12
4.88
4.40
3.70
2.88
2.12
1.58
1.37
1.46
1.70
1.92
1.96
1.80
1.47
1.06
0.64
0.22
-0.27
-0.89
-1.74
-2.85
-4.18
-5.61
-6.93
-7.94
-8.45
-8.33
-7.57
-6.22
-4.45
-2.45
-0.45
1.32
2.74
3.71
4.25
4.39
4.23
3.92
3.59
3.38
3.39
3.62
3.99
4.36
4.55
4.46
4.07
3.48
2.82
2.23
1.76
1.37
0.98
0.51
-0.11
-0.93
-1.97
-3.22
-4.64
-6.11
-7.44
-8.36
-8.61
-8.03
-6.62
-4.60
-2.30
-0.10
1.72
3.01
3.79
4.17
4.25
4.12
3.79
3.27
2.64
2.04
1.63
1.52
1.70
2.06
2.42
2.61
2.58
2.34
1.97
1.53
1.06
0.56
0.03
-0.54
-1.16
-1.90
-2.85
-4.05
-5.43
-6.75
-7.69
-7.93
-7.34
-6.02
-4.25
-2.34
-0.53
1.06
2.37
3.31
3.78
3.69
3.07
2.15
1.26
0.74
0.74
1.21
1.92
2.62
3.08
3.23
3.07
2.67
2.11
1.47
0.82
0.22
-0.31
-0.77
-1.17
-1.59
-2.09
-2.75
-3.59
-4.53
-5.40
-5.94
-5.94
-5.30
-4.06
-2.40
-0.55
1.27
2.92
4.33
5.41
6.06
6.21
5.84
5.06
4.08
3.17
2.55
2.32
2.42
2.73
3.05
3.20
3.06
2.60
1.87
1.01
0.20
-0.40
-0.72
-0.86
-0.99
-1.32
-1.97
-2.89
-3.88
-4.70
-5.11
-5.02
-4.47
-3.57
-2.44
-1.14
0.31
1.86
3.38
4.62
5.32
5.31
4.61
3.47
2.25
1.31
0.84
0.84
1.14
1.55
1.87
2.01
1.94
1.67
1.20
0.59
-0.08
-0.74
-1.33
-1.84
-2.32
-2.84
-3.49
-4.29
-5.17
-5.97
-6.50
-6.55
-6.01
-4.88
-3.29
-1.42
0.46
2.12
3.36
4.08
4.26
3.99
3.47
2.89
2.42
2.16
2.13
2.27
2.53
2.84
3.14
3.33
3.29
2.95
2.32
1.52
0.72
0.08
-0.37
-0.72
-1.20
-1.97
-3.10
-4.47
-5.84
-6.94
-7.54
-7.56
-7.00
-5.94
-4.46
-2.65
-0.66
1.32
3.04
4.31
5.03
5.24
5.08
4.70
4.23
3.73
3.21
2.69
2.22
1.87
1.72
1.81
2.09
2.44
2.68
2.67
2.30
1.61
0.74
-0.16
-0.95
-1.63
-2.29
-3.08
-4.07
-5.18
-6.24
-7.04
-7.43
-7.36
-6.86
-5.94
-4.60
-2.86
-0.80
1.36
3.30
4.73
5.49
5.62
5.36
4.95
4.56
4.22
3.87
3.45
2.97
2.54
2.29
2.29
2.48
2.69
2.75
2.51
1.94
1.16
0.31
-0.46
-1.07
-1.55
-2.02
-2.62
-3.41
-4.35
-5.27
-5.96
-6.22
-5.95
-5.16
-3.96
-2.49
-0.86
0.79
2.34
3.66
4.63
5.17
5.27
5.00
4.46
3.80
3.13
2.61
2.32
2.33
2.60
3.02
3.42
3.66
3.67
3.44
3.01
2.43
1.76
1.03
0.29
-0.42
-1.11
-1.83
-2.64
-3.57
-4.57
-5.49
-6.16
-6.43
-6.23
-5.55
-4.44
-2.98
-1.29
0.48
2.13
3.46
4.32
4.69
4.65
4.41
4.15
4.01
4.00
4.06
4.06
3.92
3.66
3.33
3.02
2.77
2.53
2.20
1.72
1.11
0.47
-0.07
-0.45
-0.71
-1.01
-1.52
-2.30
-3.27
-4.21
-4.89
-5.21
-5.19
-4.95
-4.61
-4.20
-3.64
-2.83
-1.74
-0.44
0.88
2.00
2.73
2.97
2.76
2.24
1.65
1.19
1.01
1.12
1.42
1.73
1.87
1.79
1.50
1.11
0.73
0.40
0.08
-0.29
-0.78
-1.36
-1.99
-2.59
-3.15
-3.71
-4.32
-4.99
-5.59
-5.89
-5.66
-4.78
-3.36
-1.68
-0.09
1.13
1.91
2.32
2.52
2.61
2.58
2.37
1.93
1.30
0.60
-0.01
-0.43
-0.63
-0.67
-0.65
-0.58
-0.42
-0.05
0.62
1.57
2.66
3.62
4.16
4.09
3.37
2.11
0.55
-1.04
-2.43
-3.40
-3.83
-3.64
-2.84
-1.53
0.09
1.73
3.13
4.08
4.47
4.33
3.73
2.78
1.61
0.33
-0.94
-2.06
-2.91
-3.43
-3.63
-3.58
-3.40
-3.17
-2.94
-2.78
-2.75
-2.93
-3.39
-4.13
-5.04
-5.98
-6.79
-7.42
-7.93
-8.36
-8.73
-8.87
-8.59
-7.71
-6.21
-4.26
-2.14
-0.11
1.64
3.04
4.06
4.66
4.78
4.39
3.56
2.49
1.47
0.75
0.50
0.71
1.24
1.88
2.44
2.77
2.82
2.59
2.13
1.54
0.94
0.46
0.14
-0.07
-0.35
-0.90
-1.82
-3.03
-4.28
-5.21
-5.52
-5.05
-3.86
-2.13
-0.13
1.89
3.68
5.05
5.80
5.87
5.30
4.27
3.10
2.05
1.34
1.00
0.98
1.13
1.34
1.50
1.60
1.62
1.56
1.40
1.13
0.75
0.31
-0.13
-0.52
-0.91
-1.38
-2.01
-2.78
-3.56
-4.10
-4.19
-3.74
-2.80
-1.58
-0.28
0.94
2.05
3.05
3.89
4.44
4.55
4.12
3.25
2.15
1.14
0.46
0.21
0.30
0.51
0.67
0.67
0.55
0.35
0.14
-0.08
-0.35
-0.68
-1.06
-1.48
-1.91
-2.38
-2.92
-3.54
-4.19
-4.78
-5.16
-5.21
-4.84
-4.06
-2.93
-1.56
-0.10
1.33
2.58
3.56
4.20
4.42
4.21
3.62
2.78
1.88
1.14
0.71
0.65
0.90
1.31
1.74
2.03
2.13
2.00
1.65
1.14
0.49
-0.27
-1.16
-2.20
-3.42
-4.76
-6.08
-7.19
-7.83
-7.79
-6.97
-5.46
-3.47
-1.31
0.73
2.46
3.79
4.69
5.19
5.26
4.93
4.26
3.41
2.63
2.15
2.08
2.37
2.83
3.23
3.39
3.28
2.93
2.44
1.86
1.24
0.57
-0.15
-0.92
-1.73
-2.59
-3.54
-4.58
-5.64
-6.58
-7.18
-7.22
-6.59
-5.33
-3.60
-1.65
0.31
2.08
3.54
4.61
5.21
5.34
5.05
4.49
3.83
3.25
2.90
2.80
2.94
3.23
3.57
3.84
3.90
3.64
3.04
2.16
1.17
0.29
-0.34
-0.70
-0.89
-1.12
-1.57
-2.35
-3.43
-4.68
-5.87
-6.78
-7.18
-6.92
-5.93
-4.27
-2.09
0.35
2.79
4.97
6.72
7.94
8.62
8.80
8.56
8.01
7.27
6.51
5.84
5.31
4.90
4.55
4.23
3.91
3.65
3.49
3.40
3.28
3.02
2.54
1.89
1.19
0.56
0.09
-0.30
-0.70
-1.25
-2.01
-2.98
-4.11
-5.28
-6.36
-7.12
-7.35
-6.89
-5.74
-4.15
-2.50
-1.21
-0.53
-0.51
-0.99
-1.70
-2.42
-3.03
-3.49
-3.77
-3.87
-3.74
-3.35
-2.74
-1.96
-1.11
-0.25
0.61
1.46
2.24
2.81
3.02
2.75
2.01
0.97
-0.09
-0.96
-1.55
-1.93
-2.26
-2.70
-3.29
-4.00
-4.70
-5.29
-5.70
-5.84
-5.59
-4.82
-3.45
-1.52
0.74
3.02
4.97
6.38
7.17
7.43
7.31
6.96
6.46
5.86
5.18
4.49
3.91
3.56
3.53
3.81
4.29
4.82
5.23
5.37
5.17
4.63
3.81
2.81
1.75
0.75
-0.11
-0.83
-1.44
-2.04
-2.70
-3.52
-4.54
-5.70
-6.89
-7.90
-8.48
-8.43
-7.66
-6.23
-4.34
-2.23
-0.19
1.58
2.94
3.84
4.27
4.35
4.22
4.02
3.85
3.73
3.62
3.46
3.21
2.88
2.51
2.10
1.67
1.20
0.70
0.21
-0.19
-0.43
-0.51
-0.51
-0.56
-0.78
-1.25
-1.93
-2.76
-3.61
-4.37
-4.95
-5.24
-5.17
-4.70
-3.88
-2.83
-1.72
-0.71
0.14
0.84
1.43
1.90
2.17
2.14
1.77
1.12
0.39
-0.18
-0.42
-0.28
0.17
0.74
1.26
1.57
1.60
1.35
0.89
0.36
-0.12
-0.45
-0.65
-0.81
-1.07
-1.56
-2.30
-3.23
-4.19
-4.99
-5.43
-5.39
-4.82
-3.78
-2.41
-0.93
0.40
1.41
1.97
2.09
1.85
1.41
0.90
0.38
-0.11
-0.61
-1.15
-1.72
-2.27
-2.74
-3.03
-3.10
-2.91
-2.48
-1.82
-1.02
-0.17
0.64
1.33
1.83
2.16
2.29
2.24
1.94
1.39
0.64
-0.20
-0.92
-1.36
-1.43
-1.15
-0.64
-0.03
0.58
1.11
1.55
1.88
2.03
1.94
1.60
1.03
0.36
-0.23
-0.56
-0.50
-0.01
0.82
1.84
2.86
3.73
4.37
4.79
5.06
5.22
5.31
5.27
5.01
4.41
3.38
1.96
0.32
-1.31
-2.62
-3.43
-3.63
-3.31
-2.63
-1.81
-1.01
-0.34
0.16
0.50
0.71
0.82
0.86
0.82
0.68
0.40
0.01
-0.46
-0.90
-1.21
-1.37
-1.42
-1.48
-1.67
-1.99
-2.39
-2.73
-2.91
-2.92
-2.84
-2.78
-2.86
-3.14
-3.67
-4.45
-5.46
-6.54
-7.46
-7.94
-7.77
-6.91
-5.53
-3.96
-2.50
-1.33
-0.47
0.18
0.72
1.21
1.62
1.91
2.08
2.18
2.31
2.54
2.88
3.25
3.56
3.71
3.68
3.50
3.26
3.03
2.83
2.66
2.46
2.15
1.67
0.98
0.11
-0.90
-1.97
-2.99
-3.84
-4.40
-4.54
-4.20
-3.33
-2.01
-0.38
1.32
2.85
4.03
4.77
5.13
5.22
5.13
4.95
4.74
4.54
4.39
4.33
4.38
4.51
4.66
4.79
4.86
4.83
4.69
4.41
3.98
3.41
2.74
2.04
1.30
0.51
-0.39
-1.40
-2.49
-3.57
-4.52
-5.26
-5.73
-5.89
-5.71
-5.12
-4.09
-2.67
-1.04
0.52
1.76
2.51
2.74
2.57
2.17
1.67
1.12
0.56
0.05
-0.35
-0.57
-0.61
-0.56
-0.59
-0.80
-1.24
-1.83
-2.45
-3.01
-3.48
-3.88
-4.25
-4.62
-5.03
-5.47
-5.97
-6.51
-6.99
-7.28
-7.23
-6.72
-5.76
-4.42
-2.83
-1.11
0.61
2.20
3.49
4.33
4.60
4.33
3.71
3.04
2.59
2.50
2.73
3.08
3.33
3.35
3.10
2.66
2.12
1.53
0.89
0.17
-0.63
-1.45
-2.23
-2.92
-3.51
-4.09
-4.72
-5.38
-5.98
-6.36
-6.38
-5.92
-5.00
-3.70
-2.19
-0.63
0.81
2.02
2.94
3.55
3.86
3.91
3.73
3.34
2.74
2.00
1.22
0.57
0.13
-0.05
-0.05
0.00
-0.03
-0.23
-0.56
-0.97
-1.37
-1.79
-2.28
-2.93
-3.78
-4.76
-5.74
-6.55
-7.11
-7.35
-7.30
-6.94
-6.22
-5.05
-3.37
-1.26
1.05
3.21
4.91
5.96
6.35
6.25
5.90
5.50
5.15
4.87
4.61
4.34
4.07
3.83
3.67
3.58
3.49
3.33
3.01
2.53
1.92
1.27
0.67
0.12
-0.46
-1.19
-2.17
-3.42
-4.82
-6.17
-7.21
-7.73
-7.58
-6.76
-5.36
-3.51
-1.43
0.67
2.56
4.01
4.86
5.08
4.75
4.05
3.18
2.28
1.47
0.76
0.20
-0.13
-0.15
0.21
0.87
1.65
2.31
2.60
2.39
1.71
0.73
-0.34
-1.31
-2.11
-2.76
-3.39
-4.11
-4.97
-5.90
-6.72
-7.23
-7.26
-6.75
-5.74
-4.35
-2.74
-1.05
0.58
2.07
3.32
4.28
4.91
5.22
5.29
5.19
5.01
4.79
4.55
4.32
4.10
3.91
3.71
3.44
3.02
2.41
1.61
0.70
-0.19
-0.97
-1.56
-1.99
-2.29
-2.58
-2.95
-3.46
-4.11
-4.86
-5.57
-6.11
-6.34
-6.16
-5.58
-4.67
-3.54
-2.33
-1.12
0.00
0.97
1.74
2.26
2.52
2.55
2.45
2.35
2.39
2.68
3.22
3.91
4.61
5.16
5.41
5.31
4.87
4.17
3.35
2.53
1.82
1.26
0.80
0.34
-0.23
-0.97
-1.88
-2.86
-3.75
-4.41
-4.69
-4.50
-3.81
-2.63
-1.03
0.87
2.90
4.84
6.49
7.64
8.18
8.09
7.41
6.25
4.73
2.96
1.08
-0.68
-2.07
-2.85
-2.92
-2.36
-1.49
-0.67
-0.23
-0.26
-0.67
-1.21
-1.65
-1.86
-1.84
-1.75
-1.74
-1.96
-2.47
-3.22
-4.10
-4.90
-5.41
-5.43
-4.85
-3.69
-2.11
-0.34
1.36
2.80
3.91
4.70
5.22
5.57
5.76
5.79
5.63
5.28
4.80
4.30
3.90
3.66
3.60
3.61
3.57
3.36
2.92
2.23
1.33
0.25
-0.93
-2.09
-3.12
-3.90
-4.42
-4.77
-5.12
-5.67
-6.46
-7.38
-8.16
-8.48
-8.05
-6.76
-4.71
-2.20
0.36
2.58
4.19
5.12
5.49
5.48
5.28
5.00
4.67
4.31
4.00
3.81
3.80
3.94
4.10
4.12
3.90
3.42
2.77
2.08
1.44
0.87
0.34
-0.21
-0.81
-1.45
-2.14
-2.92
-3.80
-4.76
-5.66
-6.32
-6.48
-5.99
-4.82
-3.08
-1.00
1.19
3.26
5.08
6.53
7.54
8.09
8.14
7.74
6.97
5.97
4.94
4.05
3.45
3.19
3.20
3.36
3.52
3.55
3.39
3.02
2.47
1.84
1.19
0.60
0.11
-0.30
-0.72
-1.25
-1.96
-2.85
-3.84
-4.81
-5.68
-6.37
-6.81
-6.94
-6.66
-5.90
-4.68
-3.07
-1.26
0.55
2.13
3.30
3.97
4.14
3.91
3.49
3.08
2.84
2.82
2.99
3.23
3.42
3.50
3.48
3.36
3.17
2.87
2.43
1.84
1.17
0.49
-0.12
-0.64
-1.15
-1.75
-2.56
-3.63
-4.87
-6.11
-7.12
-7.72
-7.79
-7.30
-6.33
-5.01
-3.50
-1.92
-0.39
1.02
2.27
3.30
4.06
4.48
4.58
4.40
4.04
3.57
3.11
2.70
2.38
2.19
2.19
2.37
2.69
3.03
3.24
3.23
2.97
2.52
1.98
1.40
0.73
-0.12
-1.30
-2.95
-5.12
-7.83
-11.07
-14.77
-18.78
-22.86
-26.64
-29.66
-31.51
-31.88
-30.72
-28.28
-24.99
-21.38
-17.90
-14.82
-12.22
-10.07
-8.26
-6.73
-5.43
-4.33
-3.36
-2.48
-1.64
-0.86
-0.13
0.50
1.05
1.53
1.99
2.43
2.84
3.23
3.56
3.82
3.92
3.74
3.14
2.06
0.59
-1.01
-2.38
-3.22
-3.35
-2.77
-1.59
0.05
2.04
4.25
6.50
8.52
10.02
10.76
10.67
9.89
8.71
7.49
6.51
5.92
5.72
5.80
6.05
6.37
6.68
6.92
7.01
6.86
6.44
5.77
4.95
4.14
3.42
2.75
1.99
0.93
-0.55
-2.41
-4.48
-6.42
-7.89
-8.59
-8.35
-7.11
-5.02
-2.36
0.47
3.02
4.91
5.90
5.94
5.22
4.05
2.82
1.88
1.49
1.81
2.84
4.49
6.53
8.66
10.55
11.91
12.55
12.44
11.66
10.36
8.72
6.85
4.83
2.72
0.62
-1.29
-2.82
-3.78
-4.08
-3.73
-2.88
-1.69
-0.27
1.32
3.11
5.13
7.31
9.47
11.31
12.50
12.85
12.37
11.29
10.01
8.95
8.43
8.52
9.06
9.67
9.85
9.10
7.14
4.00
0.10
-3.92
-7.37
-9.86
-11.41
-12.41
-13.44
-14.96
-17.15
-19.81
-22.49
-24.57
-25.42
-24.55
-21.75
-17.16
-11.33
-5.08
0.82
5.81
9.73
12.71
14.90
16.34
16.93
16.55
15.31
13.59
11.95
10.82
10.31
10.14
9.77
8.76
7.00
4.77
2.59
1.03
0.33
0.41
0.81
0.97
0.49
-0.74
-2.48
-4.29
-5.71
-6.47
-6.51
-5.99
-5.13
-4.10
-3.00
-1.80
-0.44
1.11
2.79
4.46
5.88
6.82
7.08
6.65
5.66
4.38
3.10
2.03
1.26
0.75
0.41
0.17
0.03
0.05
0.23
0.55
0.89
1.10
1.11
0.86
0.37
-0.31
-1.11
-1.99
-2.88
-3.73
-4.47
-4.98
-5.15
-4.92
-4.25
-3.21
-1.92
-0.57
0.67
1.68
2.43
2.89
3.04
2.84
2.28
1.41
0.40
-0.47
-0.98
-1.02
-0.70
-0.24
0.11
0.19
0.01
-0.32
-0.67
-0.98
-1.25
-1.58
-2.05
-2.75
-3.68
-4.81
-5.99
-7.03
-7.66
-7.69
-7.01
-5.68
-3.90
-1.90
0.08
1.86
3.29
4.25
4.63
4.36
3.53
2.39
1.29
0.53
0.26
0.42
0.76
1.00
1.00
0.77
0.46
0.18
-0.05
-0.37
-0.96
-1.92
-3.19
-4.58
-5.85
-6.82
-7.40
-7.56
-7.30
-6.59
-5.41
-3.76
-1.76
0.36
2.37
4.03
5.22
5.91
6.15
6.03
5.68
5.17
4.62
4.08
3.62
3.26
3.00
2.79
2.60
2.39
2.13
1.81
1.44
1.02
0.56
0.06
-0.50
-1.11
-1.75
-2.38
-2.92
-3.27
-3.30
-2.91
-2.02
-0.63
1.18
3.20
5.17
6.82
7.98
8.57
8.65
8.29
7.61
6.72
5.76
4.86
4.19
3.84
3.78
3.86
3.89
3.72
3.33
2.81
2.29
1.85
1.44
0.92
0.16
-0.90
-2.21
-3.63
-4.99
-6.10
-6.81
-6.98
-6.51
-5.35
-3.55
-1.31
1.09
3.31
5.07
6.20
6.65
6.49
5.87
4.97
3.94
2.93
2.05
1.37
0.94
0.80
0.90
1.17
1.48
1.70
1.74
1.58
1.25
0.84
0.34
-0.28
-1.09
-2.13
-3.33
-4.46
-5.29
-5.59
-5.23
-4.28
-2.89
-1.24
0.47
2.10
3.48
4.48
5.01
5.01
4.56
3.79
2.91
2.11
1.51
1.16
1.03
1.05
1.08
1.02
0.81
0.41
-0.11
-0.69
-1.24
-1.76
-2.24
-2.75
-3.36
-4.08
-4.90
-5.76
-6.55
-7.14
-7.40
-7.22
-6.55
-5.39
-3.86
-2.15
-0.49
0.89
1.82
2.27
2.30
2.06
1.72
1.39
1.15
1.04
1.10
1.42
2.02
2.78
3.47
3.77
3.44
2.48
1.14
-0.16
-1.12
-1.67
-2.02
-2.50
-3.37
-4.64
-6.07
-7.30
-7.95
-7.83
-6.93
-5.39
-3.45
-1.37
0.63
2.33
3.55
4.16
4.10
3.43
2.36
1.19
0.23
-0.31
-0.39
-0.13
0.30
0.71
1.04
1.25
1.34
1.25
0.93
0.32
-0.55
-1.61
-2.77
-3.98
-5.23
-6.47
-7.62
-8.46
-8.75
-8.31
-7.07
-5.16
-2.81
-0.30
2.09
4.11
5.54
6.24
6.15
5.35
4.05
2.55
1.15
0.05
-0.62
-0.92
-0.91
-0.76
-0.55
-0.40
-0.33
-0.38
-0.55
-0.84
-1.23
-1.76
-2.46
-3.35
-4.41
-5.52
-6.46
-6.96
-6.74
-5.68
-3.83
-1.45
1.13
3.58
5.69
7.41
8.72
9.56
9.83
9.44
8.42
6.99
5.55
4.47
3.97
3.97
4.22
4.36
4.17
3.62
2.87
2.10
1.48
0.99
0.58
0.13
-0.44
-1.19
-2.14
-3.32
-4.69
-6.13
-7.36
-8.02
-7.77
-6.46
-4.18
-1.28
1.73
4.35
6.21
7.17
7.31
6.81
5.91
4.81
3.67
2.63
1.79
1.26
1.09
1.25
1.63
2.01
2.17
1.95
1.33
0.43
-0.55
-1.45
-2.14
-2.67
-3.15
-3.76
-4.64
-5.79
-7.06
-8.17
-8.80
-8.64
-7.56
-5.62
-3.03
-0.12
2.77
5.36
7.43
8.85
9.55
9.55
8.93
7.89
6.68
5.54
4.67
4.11
3.75
3.42
2.99
2.41
1.77
1.18
0.70
0.27
-0.24
-0.98
-2.02
-3.30
-4.68
-6.09
-7.52
-8.99
-10.51
-11.94
-12.99
-13.33
-12.72
-11.18
-8.94
-6.34
-3.71
-1.19
1.19
3.49
5.71
7.71
9.24
10.12
10.31
9.99
9.48
9.06
8.96
9.14
9.48
9.82
10.06
10.20
10.29
10.34
10.29
10.01
9.39
8.42
7.24
6.02
4.89
3.82
2.69
1.32
-0.31
-2.03
-3.51
-4.40
-4.47
-3.71
-2.31
-0.56
1.22
2.74
3.82
4.33
4.24
3.55
2.41
0.96
-0.58
-2.00
-3.17
-4.02
-4.55
-4.81
-4.89
-4.85
-4.74
-4.63
-4.55
-4.55
-4.67
-4.90
-5.23
-5.59
-5.94
-6.26
-6.59
-6.98
-7.47
-8.06
-8.64
-9.05
-9.03
-8.41
-7.08
-5.15
-2.84
-0.48
1.61
3.21
4.19
4.54
4.30
3.56
2.49
1.29
0.17
-0.65
-1.04
-1.02
-0.70
-0.24
0.15
0.35
0.29
-0.04
-0.60
-1.31
-2.13
-3.02
-3.96
-4.96
-6.03
-7.13
-8.15
-8.92
-9.25
-8.96
-7.93
-6.20
-3.91
-1.36
1.10
3.13
4.48
5.03
4.83
4.06
2.97
1.82
0.82
0.10
-0.29
-0.40
-0.35
-0.29
-0.31
-0.43
-0.58
-0.68
-0.70
-0.71
-0.85
-1.27
-2.08
-3.25
-4.68
-6.21
-7.66
-8.87
-9.65
-9.83
-9.21
-7.75
-5.54
-2.87
-0.14
2.29
4.16
5.38
5.96
5.95
5.45
4.54
3.40
2.27
1.43
1.04
1.15
1.61
2.16
2.54
2.57
2.18
1.43
0.45
-0.61
-1.63
-2.55
-3.42
-4.32
-5.34
-6.50
-7.70
-8.71
-9.30
-9.24
-8.46
-7.00
-5.05
-2.84
-0.64
1.37
3.03
4.22
4.89
5.01
4.58
3.72
2.60
1.45
0.55
0.09
0.11
0.52
1.07
1.52
1.71
1.60
1.32
1.03
0.86
0.81
0.78
0.58
0.03
-0.92
-2.19
-3.50
-4.49
-4.81
-4.29
-2.96
-1.04
1.16
3.37
5.38
7.05
8.27
8.91
8.92
8.32
7.29
6.09
4.99
4.16
3.66
3.43
3.39
3.47
3.61
3.78
3.86
3.74
3.33
2.61
1.64
0.57
-0.48
-1.43
-2.32
-3.24
-4.24
-5.28
-6.17
-6.62
-6.40
-5.36
-3.62
-1.43
0.89
3.04
4.78
5.96
6.48
6.27
5.34
3.84
2.09
0.46
-0.72
-1.28
-1.30
-1.00
-0.64
-0.40
-0.38
-0.55
-0.90
-1.43
-2.09
-2.85
-3.65
-4.48
-5.33
-6.27
-7.32
-8.42
-9.38
-9.97
-9.96
-9.23
-7.80
-5.84
-3.61
-1.41
0.44
1.64
1.98
1.41
0.03
-1.88
-3.99
-5.95
-7.56
-8.74
-9.55
-10.08
-10.43
-10.66
-10.85
-11.03
-11.26
-11.56
-11.92
-12.24
-12.43
-12.42
-12.25
-12.00
-11.79
-11.61
-11.37
-10.82
-9.74
-7.99
-5.60
-2.72
0.46
3.76
7.03
10.12
12.81
14.85
16.04
16.30
15.78
14.81
13.78
12.98
12.51
12.33
12.26
12.18
12.00
11.74
11.46
11.19
10.86
10.34
9.52
8.34
6.87
5.29
3.78
2.50
1.49
0.75
0.30
0.18
0.51
1.33
2.64
4.26
5.97
7.52
8.75
9.61
10.09
10.21
10.01
9.55
8.90
8.22
7.64
7.23
6.96
6.73
6.39
5.86
5.07
4.08
2.92
1.68
0.41
-0.79
-1.87
-2.81
-3.66
-4.53
-5.53
-6.68
-7.87
-8.81
-9.18
-8.70
-7.28
-5.07
-2.39
0.34
2.79
4.71
6.02
6.71
6.81
6.38
5.51
4.35
3.14
2.12
1.47
1.26
1.36
1.55
1.62
1.40
0.84
0.02
-0.94
-1.93
-2.85
-3.67
-4.44
-5.26
-6.28
-7.57
-9.11
-10.70
-12.03
-12.72
-12.49
-11.25
-9.10
-6.35
-3.39
-0.60
1.76
3.54
4.78
5.56
5.95
6.03
5.78
5.27
4.63
4.05
3.75
3.82
4.21
4.69
5.00
4.99
4.64
4.08
3.40
2.66
1.81
0.80
-0.37
-1.58
-2.69
-3.62
-4.42
-5.25
-6.25
-7.43
-8.61
-9.44
-9.56
-8.73
-6.94
-4.44
-1.64
0.99
3.07
4.39
4.98
4.99
4.70
4.29
3.89
3.50
3.06
2.54
2.00
1.53
1.26
1.24
1.41
1.64
1.76
1.65
1.30
0.78
0.23
-0.24
-0.65
-1.07
-1.62
-2.42
-3.50
-4.85
-6.39
-8.02
-9.63
-11.04
-11.99
-12.19
-11.38
-9.44
-6.51
-2.97
0.64
3.82
6.23
7.78
8.62
8.96
9.00
8.83
8.43
7.80
6.99
6.16
5.54
5.28
5.39
5.75
6.09
6.20
5.93
5.31
4.45
3.54
2.70
2.00
1.40
0.81
0.15
-0.63
-1.53
-2.55
-3.70
-4.95
-6.28
-7.59
-8.68
-9.31
-9.19
-8.17
-6.25
-3.64
-0.71
2.12
4.49
6.20
7.21
7.61
7.54
7.12
6.43
5.55
4.58
3.68
3.00
2.67
2.70
3.04
3.54
4.07
4.50
4.73
4.69
4.34
3.68
2.79
1.75
0.66
-0.42
-1.50
-2.63
-3.88
-5.26
-6.73
-8.26
-9.77
-11.16
-12.28
-12.91
-12.79
-11.71
-9.63
-6.74
-3.40
-0.06
2.92
5.28
6.92
7.85
8.09
7.72
6.83
5.61
4.27
3.07
2.21
1.81
1.86
2.24
2.75
3.20
3.42
3.37
3.07
2.62
2.13
1.65
1.19
0.70
0.07
-0.78
-1.88
-3.24
-4.79
-6.42
-7.96
-9.23
-10.04
-10.25
-9.78
-8.66
-6.95
-4.76
-2.27
0.31
2.70
4.61
5.82
6.26
6.02
5.35
4.51
3.69
2.95
2.27
1.66
1.16
0.88
0.89
1.15
1.47
1.64
1.52
1.10
0.50
-0.11
-0.67
-1.19
-1.79
-2.58
-3.62
-4.89
-6.33
-7.80
-9.12
-10.08
-10.44
-10.02
-8.78
-6.86
-4.48
-1.92
0.61
2.96
5.00
6.62
7.67
8.06
7.81
7.10
6.18
5.31
4.68
4.30
4.11
4.01
3.91
3.77
3.58
3.30
2.92
2.40
1.72
0.91
0.00
-0.97
-1.99
-3.06
-4.19
-5.38
-6.63
-7.86
-8.94
-9.72
-10.00
-9.65
-8.60
-6.87
-4.63
-2.11
0.42
2.68
4.47
5.65
6.19
6.10
5.50
4.50
3.34
2.24
1.44
1.09
1.20
1.64
2.13
2.44
2.41
2.09
1.59
1.06
0.58
0.10
-0.44
-1.11
-1.90
-2.75
-3.61
-4.51
-5.47
-6.49
-7.48
-8.19
-8.37
-7.78
-6.42
-4.43
-2.12
0.16
2.14
3.65
4.65
5.11
5.03
4.41
3.32
1.95
0.57
-0.52
-1.12
-1.22
-0.96
-0.57
-0.29
-0.23
-0.42
-0.85
-1.46
-2.17
-2.93
-3.65
-4.29
-4.85
-5.44
-6.17
-7.11
-8.20
-9.21
-9.83
-9.78
-8.91
-7.23
-4.97
-2.38
0.26
2.76
4.92
6.60
7.66
7.97
7.57
6.59
5.32
4.11
3.20
2.67
2.45
2.34
2.20
1.94
1.59
1.21
0.81
0.35
-0.24
-1.00
-1.92
-2.92
-3.94
-4.99
-6.13
-7.42
-8.82
-10.10
-10.93
-10.91
-9.80
-7.60
-4.62
-1.36
1.68
4.13
5.85
6.87
7.30
7.23
6.71
5.81
4.70
3.62
2.88
2.68
3.01
3.66
4.32
4.68
4.56
3.97
3.06
2.07
1.17
0.46
-0.08
-0.55
-1.13
-1.96
-3.10
-4.50
-5.98
-7.28
-8.13
-8.31
-7.72
-6.34
-4.30
-1.81
0.85
3.37
5.47
6.94
7.71
7.83
7.50
6.96
6.39
5.91
5.58
5.37
5.27
5.23
5.18
5.05
4.74
4.22
3.49
2.61
1.69
0.78
-0.16
-1.22
-2.55
-4.26
-6.35
-8.67
-10.96
-12.80
-13.83
-13.80
-12.66
-10.61
-8.00
-5.19
-2.48
-0.05
2.01
3.63
4.71
5.19
5.08
4.50
3.67
2.81
2.08
1.55
1.20
1.03
1.05
1.26
1.62
2.02
2.29
2.27
1.88
1.19
0.33
-0.55
-1.44
-2.42
-3.60
-4.99
-6.42
-7.57
-8.07
-7.69
-6.43
-4.51
-2.24
0.09
2.29
4.24
5.80
6.80
7.09
6.60
5.45
3.94
2.47
1.37
0.82
0.77
1.01
1.29
1.43
1.37
1.14
0.81
0.40
-0.10
-0.73
-1.50
-2.35
-3.25
-4.16
-5.09
-6.01
-6.81
-7.26
-7.06
-5.96
-3.93
-1.18
1.88
4.76
7.06
8.56
9.22
9.20
8.70
7.92
7.02
6.09
5.20
4.44
3.90
3.65
3.69
3.92
4.16
4.22
3.99
3.49
2.85
2.21
1.63
1.00
0.13
-1.16
-2.93
-5.05
-7.21
-9.05
-10.23
-10.61
-10.23
-9.25
-7.83
-6.11
-4.19
-2.14
-0.16
1.50
2.58
2.88
2.44
1.46
0.33
-0.61
-1.12
-1.19
-0.96
-0.63
-0.30
-0.02
0.25
0.52
0.76
0.85
0.69
0.29
-0.25
-0.75
-1.07
-1.26
-1.44
-1.83
-2.52
-3.39
-4.13
-4.34
-3.76
-2.32
-0.26
2.02
4.09
5.67
6.65
7.05
6.98
6.54
5.80
4.77
3.56
2.29
1.13
0.25
-0.23
-0.28
0.07
0.70
1.40
2.00
2.35
2.41
2.26
2.02
1.84
1.71
1.53
1.14
0.41
-0.68
-2.01
-3.40
-4.65
-5.57
-6.03
-5.86
-4.98
-3.37
-1.15
1.39
3.93
6.17
7.92
9.12
9.75
9.82
9.35
8.41
7.17
5.86
4.79
4.16
4.06
4.41
5.00
5.57
5.90
5.86
5.46
4.80
4.00
3.20
2.49
1.87
1.28
0.62
-0.21
-1.28
-2.62
-4.18
-5.81
-7.32
-8.43
-8.90
-8.53
-7.26
-5.18
-2.53
0.32
2.98
5.15
6.63
7.39
7.50
7.06
6.17
4.96
3.57
2.24
1.21
0.69
0.73
1.18
1.74
2.14
2.17
1.83
1.23
0.54
-0.13
-0.78
-1.47
-2.27
-3.19
-4.21
-5.29
-6.44
-7.67
-8.94
-10.09
-10.83
-10.82
-9.81
-7.83
-5.16
-2.24
0.48
2.73
4.42
5.61
6.37
6.70
6.59
6.05
5.21
4.28
3.52
3.09
2.98
3.09
3.22
3.24
3.05
2.63
2.01
1.24
0.40
-0.43
-1.21
-1.93
-2.63
-3.44
-4.43
-5.67
-7.12
-8.68
-10.14
-11.26
-11.80
-11.50
-10.24
-8.01
-4.99
-1.50
2.06
5.32
7.97
9.81
10.76
10.83
10.13
8.89
7.37
5.88
4.62
3.73
3.23
3.08
3.18
3.40
3.58
3.58
3.33
2.84
2.22
1.63
1.15
0.75
0.31
-0.34
-1.29
-2.53
-3.98
-5.50
-6.97
-8.34
-9.54
-10.45
-10.90
-10.67
-9.59
-7.66
-5.07
-2.18
0.59
2.91
4.60
5.69
6.29
6.56
6.56
6.32
5.86
5.27
4.71
4.35
4.28
4.45
4.73
4.92
4.89
4.65
4.28
3.91
3.60
3.31
2.92
2.27
1.32
0.08
-1.33
-2.81
-4.30
-5.83
-7.43
-9.03
-10.44
-11.33
-11.40
-10.49
-8.64
-6.11
-3.26
-0.46
1.97
3.86
5.09
5.68
5.70
5.32
4.72
4.10
3.58
3.20
2.98
2.87
2.83
2.83
2.84
2.80
2.68
2.45
2.12
1.73
1.29
0.82
0.30
-0.31
-1.01
-1.79
-2.65
-3.57
-4.59
-5.74
-7.00
-8.26
-9.31
-9.90
-9.79
-8.87
-7.18
-4.93
-2.40
0.12
2.38
4.19
5.45
6.11
6.17
5.67
4.72
3.50
2.25
1.21
0.56
0.36
0.53
0.89
1.22
1.34
1.21
0.87
0.48
0.13
-0.15
-0.41
-0.77
-1.33
-2.13
-3.15
-4.31
-5.57
-6.85
-8.04
-9.00
-9.47
-9.22
-8.07
-6.06
-3.46
-0.71
1.77
3.66
4.83
5.33
5.29
4.85
4.11
3.16
2.10
1.08
0.23
-0.30
-0.46
-0.30
0.05
0.40
0.54
0.33
-0.22
-1.01
-1.79
-2.39
-2.72
-2.86
-3.02
-3.44
-4.23
-5.37
-6.71
-7.97
-8.87
-9.18
-8.76
-7.60
-5.84
-3.70
-1.40
0.84
2.88
4.63
5.97
6.81
7.05
6.66
5.74
4.51
3.26
2.27
1.71
1.60
1.83
2.21
2.54
2.64
2.41
1.84
1.01
0.05
-0.90
-1.75
-2.48
-3.15
-3.84
-4.71
-5.84
-7.21
-8.69
-9.97
-10.71
-10.60
-9.53
-7.58
-5.04
-2.30
0.26
2.42
4.07
5.18
5.78
5.81
5.32
4.37
3.18
2.04
1.25
1.00
1.28
1.92
2.64
3.16
3.27
2.95
2.29
1.48
0.70
0.05
-0.50
-1.04
-1.68
-2.52
-3.57
-4.78
-6.03
-7.11
-7.77
-7.74
-6.80
-4.89
-2.14
1.08
4.34
7.19
9.33
10.64
11.15
10.99
10.33
9.37
8.29
7.27
6.39
5.67
5.07
4.54
4.09
3.73
3.50
3.33
3.10
2.61
1.74
0.46
-1.05
-2.56
-3.86
-4.83
-5.53
-6.08
-6.66
-7.38
-8.27
-9.26
-10.18
-10.80
-10.86
-10.20
-8.72
-6.55
-3.90
-1.09
1.58
3.88
5.62
6.67
6.95
6.47
5.36
3.91
2.50
1.48
1.04
1.16
1.66
2.25
2.71
2.92
2.88
2.68
2.43
2.18
1.89
1.49
0.89
0.01
-1.18
-2.64
-4.25
-5.90
-7.42
-8.63
-9.33
-9.29
-8.39
-6.63
-4.17
-1.35
1.40
3.71
5.34
6.20
6.40
6.10
5.51
4.82
4.15
3.62
3.27
3.13
3.17
3.32
3.50
3.63
3.64
3.47
3.12
2.60
1.94
1.16
0.28
-0.74
-1.93
-3.35
-4.99
-6.69
-8.21
-9.22
-9.44
-8.77
-7.33
-5.41
-3.30
-1.24
0.72
2.57
4.26
5.60
6.30
6.18
5.26
3.82
2.33
1.18
0.60
0.52
0.75
1.04
1.25
1.34
1.32
1.19
0.96
0.60
0.11
-0.47
-1.14
-1.91
-2.84
-3.98
-5.32
-6.75
-8.03
-8.88
-9.03
-8.31
-6.77
-4.58
-2.03
0.59
3.03
5.14
6.77
7.78
8.07
7.58
6.43
4.88
3.33
2.19
1.73
1.97
2.69
3.50
3.98
3.86
3.06
1.72
0.14
-1.41
-2.69
-3.62
-4.25
-4.71
-5.20
-5.87
-6.81
-7.98
-9.20
-10.14
-10.47
-9.94
-8.48
-6.25
-3.59
-0.84
1.70
3.87
5.62
6.90
7.67
7.86
7.51
6.74
5.81
5.01
4.57
4.50
4.68
4.84
4.76
4.32
3.58
2.72
1.92
1.27
0.75
0.23
-0.40
-1.19
-2.09
-2.99
-3.83
-4.65
-5.52
-6.47
-7.41
-8.08
-8.15
-7.38
-5.73
-3.36
-0.63
2.08
4.51
6.46
7.86
8.60
8.61
7.86
6.46
4.73
3.09
1.94
1.51
1.77
2.49
3.34
4.03
4.45
4.62
4.64
4.64
4.67
4.72
4.75
4.71
4.53
4.11
3.40
2.33
0.87
-0.89
-2.77
-4.48
-5.68
-6.12
-5.69
-4.47
-2.68
-0.64
1.39
3.19
4.62
5.57
5.98
5.83
5.19
4.23
3.19
2.30
1.73
1.55
1.73
2.12
2.57
2.93
3.07
2.94
2.55
1.94
1.16
0.21
-0.88
-2.07
-3.30
-4.47
-5.54
-6.54
-7.58
-8.78
-10.12
-11.38
-12.16
-12.05
-10.79
-8.44
-5.36
-2.07
0.94
3.35
5.03
6.01
6.38
6.23
5.66
4.80
3.80
2.86
2.16
1.85
1.95
2.39
2.98
3.49
3.72
3.58
3.10
2.42
1.73
1.17
0.73
0.33
-0.17
-0.87
-1.75
-2.71
-3.59
-4.27
-4.68
-4.77
-4.51
-3.84
-2.69
-1.08
0.85
2.85
4.62
5.93
6.70
6.96
6.84
6.41
5.76
4.91
3.94
2.98
2.20
1.75
1.67
1.88
2.16
2.30
2.15
1.69
0.98
0.15
-0.70
-1.55
-2.44
-3.44
-4.59
-5.85
-7.16
-8.41
-9.48
-10.25
-10.59
-10.35
-9.41
-7.75
-5.46
-2.78
0.01
2.60
4.74
6.33
7.32
7.77
7.71
7.21
6.36
5.27
4.14
3.18
2.55
2.30
2.35
2.48
2.45
2.10
1.41
0.50
-0.47
-1.37
-2.14
-2.77
-3.29
-3.77
-4.28
-4.94
-5.90
-7.21
-8.78
-10.28
-11.20
-11.02
-9.44
-6.51
-2.68
1.39
5.03
7.78
9.49
10.23
10.21
9.60
8.56
7.19
5.65
4.16
2.95
2.19
1.87
1.85
1.89
1.75
1.34
0.65
-0.22
-1.15
-2.06
-2.91
-3.69
-4.39
-4.96
-5.36
-5.59
-5.68
-5.74
-5.83
-5.93
-5.93
-5.64
-4.86
-3.50
-1.65
0.47
2.56
4.37
5.76
6.67
7.11
7.07
6.52
5.49
4.08
2.51
1.12
0.17
-0.18
0.00
0.51
1.04
1.38
1.39
1.10
0.60
-0.03
-0.73
-1.45
-2.20
-2.97
-3.74
-4.51
-5.28
-6.05
-6.78
-7.36
-7.63
-7.41
-6.60
-5.19
-3.31
-1.19
0.88
2.66
3.97
4.77
5.08
4.99
4.61
4.03
3.34
2.64
2.01
1.54
1.29
1.23
1.26
1.20
0.91
0.34
-0.43
-1.19
-1.75
-2.02
-2.05
-2.06
-2.35
-3.12
-4.41
-6.02
-7.59
-8.68
-8.96
-8.34
-6.93
-5.00
-2.86
-0.73
1.27
3.07
4.62
5.74
6.27
6.08
5.19
3.86
2.47
1.42
0.92
0.94
1.21
1.38
1.23
0.73
0.05
-0.60
-1.10
-1.50
-1.96
-2.63
-3.54
-4.61
-5.71
-6.77
-7.80
-8.81
-9.71
-10.26
-10.16
-9.18
-7.31
-4.80
-2.00
0.69
3.01
4.85
6.15
6.90
7.06
6.62
5.70
4.51
3.38
2.57
2.24
2.33
2.67
3.08
3.52
4.04
4.73
5.59
6.49
7.14
7.31
6.87
5.88
4.54
3.00
1.32
-0.52
-2.55
-4.59
-6.30
-7.19
-6.89
-5.30
-2.68
0.47
3.62
6.36
8.48
9.96
10.80
11.02
10.62
9.67
8.37
6.99
5.83
5.04
4.64
4.47
4.30
3.96
3.38
2.58
1.65
0.68
-0.31
-1.34
-2.45
-3.66
-4.94
-6.27
-7.62
-8.99
-10.36
-11.64
-12.63
-13.04
-12.61
-11.20
-8.90
-6.00
-2.93
-0.04
2.39
4.25
5.48
6.04
5.92
5.21
4.08
2.84
1.77
1.12
0.90
1.04
1.31
1.55
1.64
1.54
1.28
0.87
0.32
-0.37
-1.16
-1.98
-2.78
-3.56
-4.41
-5.46
-6.79
-8.33
-9.82
-10.84
-11.01
-10.10
-8.15
-5.45
-2.42
0.51
3.01
4.89
6.07
6.56
6.42
5.77
4.80
3.74
2.80
2.18
1.94
2.05
2.38
2.76
3.05
3.15
3.04
2.75
2.31
1.74
1.05
0.26
-0.67
-1.76
-3.06
-4.59
-6.26
-7.88
-9.13
-9.73
-9.46
-8.30
-6.39
-4.01
-1.42
1.14
3.51
5.53
7.01
7.78
7.71
6.89
5.56
4.07
2.78
1.92
1.56
1.61
1.89
2.22
2.38
2.25
1.73
0.87
-0.22
-1.32
-2.24
-2.88
-3.29
-3.63
-4.10
-4.84
-5.84
-6.96
-7.95
-8.53
-8.51
-7.80
-6.46
-4.65
-2.53
-0.27
1.98
4.07
5.82
7.00
7.49
7.23
6.36
5.17
3.99
3.11
2.69
2.74
3.16
3.73
4.24
4.46
4.27
3.63
2.65
1.50
0.42
-0.44
-1.05
-1.53
-2.11
-2.98
-4.28
-5.95
-7.79
-9.43
-10.52
-10.74
-9.97
-8.28
-5.91
-3.19
-0.42
2.20
4.53
6.46
7.88
8.65
8.66
7.98
6.78
5.39
4.17
3.38
3.10
3.23
3.60
4.01
4.36
4.62
4.74
4.67
4.35
3.70
2.76
1.63
0.48
-0.56
-1.44
-2.23
-3.10
-4.18
-5.51
-6.94
-8.23
-9.05
-9.17
-8.49
-7.10
-5.16
-2.97
-0.76
1.23
2.82
3.87
4.29
4.08
3.35
2.33
1.32
0.56
0.20
0.22
0.48
0.80
1.05
1.17
1.17
1.07
0.88
0.58
0.16
-0.34
-0.85
-1.29
-1.61
-1.81
-1.94
-2.10
-2.39
-2.81
-3.30
-3.70
-3.77
-3.31
-2.21
-0.48
1.76
4.26
6.77
9.02
10.78
11.90
12.27
11.92
10.98
9.68
8.33
7.19
6.39
5.95
5.74
5.58
5.27
4.72
3.90
2.86
1.67
0.33
-1.14
-2.73
-4.36
-5.89
-7.15
-8.04
-8.56
-8.84
-9.02
-9.21
-9.38
-9.40
-9.02
-8.06
-6.42
-4.17
-1.49
1.35
4.12
6.62
8.75
10.43
11.64
12.32
12.44
12.01
11.12
9.97
8.80
7.77
6.92
6.11
5.12
3.75
1.93
-0.26
-2.64
-5.06
-7.41
-9.68
-11.90
-14.09
-16.24
-18.34
-20.31
-22.07
-23.49
-24.43
-24.73
-24.30
-23.13
-21.32
-18.95
-16.11
-12.81
-9.11
-5.14
-1.20
2.26
4.84
6.27
6.60
6.16
5.45
4.95
4.98
5.58
6.64
7.88
9.07
10.00
10.56
10.68
10.36
9.69
8.82
7.99
7.40
7.20
7.33
7.61
7.75
7.53
6.90
6.01
5.13
4.49
4.19
4.10
3.97
3.56
2.73
1.53
0.04
-1.67
-3.61
-5.83
-8.37
-11.12
-13.79
-16.00
-17.40
-17.83
-17.35
-16.26
-14.94
-13.77
-12.92
-12.34
-11.73
-10.56
-8.22
-4.15
1.98
10.08
19.56
29.40
38.40
45.50
50.14
52.33
52.61
51.76
50.41
48.90
47.22
45.19
42.61
39.42
35.66
31.46
26.97
22.32
17.66
13.18
9.03
5.35
2.13
-0.70
-3.26
-5.66
-7.96
-10.14
-12.17
-14.01
-15.58
-16.82
-17.64
-18.03
-18.01
-17.72
-17.32
-16.95
-16.69
-16.57
-16.60
-16.79
-17.16
-17.70
-18.29
-18.74
-18.83
-18.40
-17.41
-15.92
-14.10
-12.14
-10.19
-8.34
-6.67
-5.25
-4.12
-3.32
-2.79
-2.45
-2.17
-1.87
-1.49
-1.01
-0.42
0.30
1.15
2.14
3.17
4.13
4.93
5.53
5.98
6.35
6.63
6.68
6.26
5.16
3.35
1.06
-1.27
-3.15
-4.21
-4.35
-3.70
-2.55
-1.09
0.63
2.78
5.53
8.98
12.95
16.99
20.50
22.90
23.74
22.81
20.12
16.02
11.17
6.45
2.75
0.66
0.18
0.69
1.22
0.83
-0.94
-3.92
-7.51
-11.02
-13.98
-16.33
-18.24
-19.90
-21.37
-22.56
-23.28
-23.49
-23.30
-22.97
-22.79
-22.94
-23.35
-23.82
-24.03
-23.74
-22.87
-21.52
-19.85
-18.07
-16.25
-14.44
-12.62
-10.84
-9.19
-7.79
-6.78
-6.22
-6.12
-6.39
-6.83
-7.24
-7.39
-7.16
-6.58
-5.79
-4.98
-4.26
-3.69
-3.20
-2.76
-2.41
-2.28
-2.49
-3.09
-3.99
-4.97
-5.81
-6.41
-6.88
-7.40
-8.19
-9.27
-10.49
-11.52
-12.05
-11.83
-10.82
-9.13
-6.99
-4.64
-2.26
-0.00
2.03
3.70
4.87
5.40
5.25
4.52
3.50
2.55
2.03
2.09
2.65
3.44
4.13
4.53
4.61
4.48
4.28
4.07
3.85
3.59
3.27
2.93
2.60
2.30
1.99
1.57
0.97
0.21
-0.68
-1.62
-2.55
-3.39
-4.06
-4.37
-4.13
-3.14
-1.34
1.16
4.06
6.98
9.54
11.48
12.70
13.27
13.33
13.04
12.52
11.87
11.17
10.50
9.97
9.68
9.64
9.82
10.07
10.21
10.09
9.66
8.96
8.10
7.23
6.45
5.77
5.14
4.41
3.47
2.26
0.79
-0.90
-2.77
-4.79
-6.94
-9.17
-11.37
-13.32
-14.77
-15.53
-15.50
-14.70
-13.28
-11.48
-9.57
-7.81
-6.37
-5.36
-4.77
-4.49
-4.31
-3.99
-3.33
-2.21
-0.65
1.19
3.11
4.90
6.38
7.44
8.05
8.24
8.07
7.66
7.14
6.65
6.25
5.93
5.59
5.11
4.37
3.31
1.91
0.22
-1.69
-3.69
-5.58
-7.10
-7.99
-8.05
-7.21
-5.54
-3.22
-0.47
2.43
5.24
7.71
9.64
10.93
11.54
11.55
11.15
10.56
9.99
9.56
9.26
9.01
8.72
8.36
7.93
7.46
6.95
6.32
5.50
4.45
3.20
1.89
0.64
-0.43
-1.33
-2.15
-3.04
-4.14
-5.55
-7.26
-9.14
-10.96
-12.43
-13.28
-13.37
-12.70
-11.41
-9.70
-7.74
-5.64
-3.51
-1.44
0.43
1.93
2.96
3.47
3.54
3.30
2.95
2.61
2.35
2.17
2.04
1.94
1.85
