1553004586.00
64.000000
-0.00
-0.00
-0.00
-0.00
-0.00
-0.00
-0.00
-0.00
-0.00
-0.00
0.00
0.01
0.01
-0.00
-0.03
-0.05
-0.05
0.00
0.13
0.36
0.66
1.01
1.37
1.72
2.06
2.40
2.79
3.24
3.80
4.42
5.06
5.66
6.20
6.68
7.15
7.68
8.31
9.14
10.09
11.04
11.88
12.56
13.14
13.76
14.65
15.96
17.91
20.32
22.90
25.38
27.58
29.57
31.68
34.32
37.81
42.54
48.15
54.10
59.83
64.97
69.58
74.14
79.34
85.71
93.76
103.00
112.62
121.73
129.77
136.75
143.30
150.75
157.77
166.64
177.95
191.79
206.97
220.57
228.25
225.36
208.53
176.87
132.76
80.05
23.07
-34.94
-92.44
-149.16
-205.23
-260.37
-313.74
-363.87
-409.83
-450.91
-486.50
-515.74
-537.23
-549.22
-549.96
-538.37
-514.21
-478.67
-433.88
-382.45
-327.02
-269.84
-212.63
-156.66
-102.95
-52.37
-5.90
35.58
71.43
101.35
125.50
144.38
158.69
169.15
176.37
180.75
182.57
182.07
179.51
175.23
169.65
163.18
156.15
148.81
141.30
133.69
126.02
118.33
110.69
103.16
95.82
88.71
81.87
75.30
69.03
63.06
57.39
52.04
47.01
42.30
37.91
33.83
30.04
26.55
23.35
20.42
17.77
15.38
13.26
11.39
9.76
8.36
7.17
6.18
5.36
4.71
4.20
3.82
3.56
3.40
3.33
3.35
3.44
3.60
3.82
4.10
4.43
4.81
5.25
5.73
6.26
6.84
7.47
8.15
8.88
9.66
10.49
11.37
12.31
13.29
14.33
15.43
16.59
17.82
19.13
20.50
21.93
23.39
24.82
26.15
27.27
28.05
28.36
28.06
27.04
25.22
22.58
19.17
15.05
10.39
5.39
0.29
-4.67
-9.25
-13.26
-16.56
-19.03
-20.66
-21.46
-21.51
-20.92
-19.82
-18.33
-16.56
-14.61
-12.55
-10.42
-8.24
-6.05
-3.88
-1.71
0.43
2.59
4.76
7.00
9.33
11.82
14.41
17.08
19.82
22.64
25.57
28.62
31.83
35.28
39.07
43.07
47.21
51.49
55.88
60.43
65.16
70.14
75.49
81.35
87.47
93.72
100.01
106.26
112.47
118.66
124.89
131.27
137.92
144.46
150.57
155.95
160.28
163.21
164.26
162.73
157.50
150.73
143.02
134.69
125.91
116.83
107.58
98.37
89.43
81.05
73.48
66.37
59.41
52.31
44.84
37.01
28.95
20.99
13.52
6.80
0.48
-5.90
-12.88
-20.81
-29.79
-39.54
-49.49
-59.05
-67.84
-76.14
-84.55
-93.82
-104.55
-116.90
-130.52
-144.76
-158.87
-172.36
-185.30
-198.13
-211.63
-226.78
-244.70
-266.27
-291.51
-318.90
-345.13
-365.62
-375.86
-373.07
-357.30
-331.47
-300.17
-267.95
-237.93
-211.35
-188.10
-167.63
-149.59
-133.88
-120.36
-108.56
-97.72
-87.19
-76.87
-67.23
-58.98
-52.57
-47.73
-43.36
-38.05
-30.53
-20.33
-7.90
5.55
18.55
29.83
38.66
44.91
48.86
51.06
52.08
52.47
52.73
53.18
53.97
55.00
55.99
56.61
56.60
55.89
54.64
53.06
51.27
49.26
46.85
43.90
40.38
36.48
32.54
28.87
25.67
22.84
20.09
17.01
13.30
8.88
4.11
-0.38
-3.72
-5.09
-4.04
-0.55
4.85
11.33
18.00
24.08
29.02
32.52
34.44
34.80
33.81
31.90
29.74
28.04
27.36
27.87
29.29
31.04
32.49
33.20
33.03
31.92
29.97
27.27
23.97
20.42
17.12
14.59
13.06
12.20
11.22
9.25
5.77
0.95
-4.46
-9.52
-13.43
-15.84
-16.73
-16.16
-14.14
-10.57
-5.50
0.69
7.38
13.55
18.37
21.33
22.44
22.13
21.13
20.15
19.72
19.74
19.83
19.59
18.83
17.94
17.65
18.54
20.60
22.85
23.90
22.66
18.97
13.91
9.23
6.39
5.77
6.35
6.42
4.60
0.59
-4.64
-9.63
-13.21
-15.16
-16.24
-17.34
-18.79
-19.89
-19.32
-15.92
-9.51
-1.00
7.81
15.16
20.03
22.37
22.82
22.21
21.13
19.92
18.63
17.36
16.32
15.76
15.79
16.27
16.90
17.38
17.50
17.18
16.43
15.21
13.48
11.27
8.78
6.36
4.43
3.16
2.36
1.50
-0.08
-2.83
-6.78
-11.44
-15.97
-19.47
-21.19
-20.73
-18.09
-13.58
-7.77
-1.40
4.77
10.10
14.10
16.59
17.64
17.51
16.61
15.42
14.37
13.79
13.82
14.36
15.16
15.91
16.36
16.48
16.34
15.98
15.32
14.09
12.04
9.08
5.46
1.69
-1.64
-4.18
-5.96
-7.44
-9.26
-11.93
-15.63
-20.07
-24.57
-28.19
-30.07
-29.58
-26.49
-21.01
-13.79
-5.72
2.22
9.14
14.44
17.86
19.54
19.86
19.39
18.64
18.02
17.71
17.74
17.99
18.36
18.70
18.91
18.89
18.53
17.69
16.27
14.18
11.51
8.42
5.17
2.09
-0.67
-3.10
-5.41
-7.99
-11.19
-15.25
-20.10
-25.27
-30.05
-33.57
-35.04
-33.99
-30.37
-24.64
-17.62
-10.23
-3.33
2.55
7.23
10.78
13.38
15.13
16.12
16.41
16.21
15.82
15.61
15.83
16.50
17.40
18.14
18.42
18.09
17.18
15.82
14.09
12.01
9.54
6.74
3.78
0.91
-1.71
-4.12
-6.61
-9.58
-13.37
-18.00
-23.07
-27.78
-31.16
-32.33
-30.79
-26.59
-20.37
-13.10
-5.82
0.71
6.11
10.31
13.45
15.61
16.83
17.16
16.81
16.15
15.62
15.50
15.84
16.43
16.98
17.26
17.24
16.91
16.23
15.13
13.40
10.97
7.93
4.56
1.27
-1.60
-3.90
-5.75
-7.50
-9.61
-12.45
-16.16
-20.50
-24.84
-28.25
-29.84
-28.95
-25.45
-19.76
-12.70
-5.27
1.63
7.43
11.82
14.79
16.47
17.09
16.92
16.33
15.68
15.29
15.32
15.72
16.31
16.85
17.20
17.33
17.29
17.03
16.44
15.32
13.54
11.12
8.34
5.55
3.03
0.82
-1.33
-3.77
-6.79
-10.43
-14.49
-18.57
-22.17
-24.81
-26.06
-25.64
-23.39
-19.36
-13.87
-7.45
-0.79
5.39
10.48
14.09
16.10
16.71
16.35
15.55
14.79
14.35
14.29
14.57
15.14
15.95
17.01
18.14
19.01
19.19
18.34
16.50
14.03
11.50
9.36
7.68
6.15
4.32
1.95
-0.88
-3.86
-6.76
-9.59
-12.66
-16.18
-19.92
-23.04
-24.30
-22.67
-17.90
-10.68
-2.58
4.70
9.94
12.84
13.85
13.87
13.60
13.34
12.96
12.20
11.06
9.86
9.11
9.25
10.31
11.92
13.42
14.23
14.04
12.85
10.87
8.39
5.57
2.55
-0.54
-3.52
-6.21
-8.54
-10.73
-13.12
-16.13
-19.95
-24.37
-28.74
-32.14
-33.65
-32.70
-29.23
-23.69
-16.93
-9.87
-3.26
2.37
6.79
9.86
11.58
11.99
11.35
10.13
8.88
8.14
8.15
8.80
9.72
10.45
10.64
10.23
9.39
8.30
7.04
5.53
3.60
1.20
-1.55
-4.31
-6.75
-8.70
-10.34
-12.11
-14.55
-18.00
-22.33
-26.89
-30.66
-32.65
-32.21
-29.29
-24.34
-18.13
-11.41
-4.75
1.51
7.09
11.71
15.09
17.02
17.59
17.25
16.66
16.52
17.20
18.67
20.48
22.05
22.90
22.85
22.04
20.72
19.12
17.27
15.07
12.41
9.32
6.04
2.99
0.47
-1.39
-2.84
-4.36
-6.47
-9.48
-13.36
-17.67
-21.74
-24.81
-26.22
-25.57
-22.79
-18.16
-12.21
-5.71
0.57
5.92
9.87
12.33
13.50
13.76
13.59
13.32
13.16
13.17
13.28
13.43
13.57
13.73
13.97
14.34
14.80
15.13
15.01
14.12
12.29
9.62
6.56
3.59
1.15
-0.69
-2.21
-3.80
-5.74
-8.08
-10.64
-13.47
-16.73
-20.66
-25.21
-29.61
-32.53
-32.51
-28.75
-21.73
-13.09
-4.88
1.30
5.06
7.07
8.48
10.07
11.75
12.79
12.58
11.10
9.21
8.13
8.71
10.96
13.71
15.52
15.29
12.98
9.61
6.69
5.37
5.85
7.14
7.74
6.52
3.29
-1.01
-4.92
-7.28
-7.88
-7.71
-8.31
-10.85
-15.52
-21.31
-26.46
-29.36
-29.08
-25.78
-20.41
-14.22
-8.19
-2.82
1.86
6.00
9.78
13.07
15.57
16.97
17.14
16.32
15.04
13.93
13.53
13.94
14.91
15.94
16.49
16.28
15.33
13.87
12.24
10.64
9.07
7.38
5.39
3.01
0.35
-2.36
-4.80
-6.80
-8.39
-9.86
-11.66
-14.17
-17.45
-21.13
-24.41
-26.31
-26.01
-23.21
-18.21
-11.91
-5.37
0.51
5.21
8.65
10.97
12.29
12.59
11.82
10.05
7.68
5.35
3.75
3.35
4.10
5.58
7.12
8.17
8.43
7.95
6.96
5.71
4.33
2.80
1.12
-0.74
-2.66
-4.47
-6.04
-7.37
-8.66
-10.25
-12.46
-15.43
-18.95
-22.42
-25.02
-25.90
-24.54
-20.94
-15.60
-9.38
-3.17
2.37
6.92
10.34
12.65
13.79
13.77
12.67
10.83
8.80
7.16
6.38
6.54
7.40
8.49
9.29
9.46
8.90
7.67
5.98
3.99
1.80
-0.55
-3.04
-5.61
-8.12
-10.39
-12.41
-14.34
-16.53
-19.35
-22.94
-27.02
-30.80
-33.15
-33.09
-30.13
-24.60
-17.48
-10.13
-3.72
1.14
4.42
6.46
7.66
8.21
8.10
7.28
5.88
4.30
3.06
2.62
3.07
4.14
5.30
5.99
5.93
5.17
4.02
2.82
1.79
0.91
-0.04
-1.24
-2.75
-4.44
-6.08
-7.52
-8.82
-10.23
-12.09
-14.52
-17.32
-19.82
-21.11
-20.35
-17.16
-11.80
-5.14
1.69
7.66
12.20
15.21
16.93
17.57
17.24
15.90
13.63
10.80
8.07
6.14
5.44
5.93
7.03
7.95
8.00
6.92
4.84
2.23
-0.47
-3.03
-5.46
-7.95
-10.60
-13.40
-16.12
-18.48
-20.31
-21.73
-23.07
-24.72
-26.82
-29.06
-30.67
-30.66
-28.24
-23.20
-16.03
-7.70
0.65
8.08
14.13
18.61
21.58
23.07
23.11
21.97
20.19
18.70
18.51
20.34
24.33
29.90
35.90
41.02
44.21
45.05
43.73
40.89
37.28
33.38
29.34
25.03
20.27
15.04
9.51
3.92
-1.66
-7.36
-13.43
-19.93
-26.51
-32.33
-36.49
-38.28
-37.65
-35.20
-31.89
-28.60
-25.92
-23.99
-22.85
-22.56
-23.32
-25.26
-28.21
-31.60
-34.61
-36.42
-36.66
-35.40
-33.08
-30.24
-27.25
-24.21
-21.13
-17.95
-14.86
-11.98
-9.35
-6.75
-3.82
-0.19
4.23
9.18
13.84
17.29
18.81
18.33
16.52
14.71
14.23
15.95
19.77
24.73
29.54
33.12
35.12
35.93
36.25
36.58
36.80
36.31
34.49
31.17
26.89
22.68
19.47
17.78
17.30
17.31
17.01
16.01
14.42
12.73
11.35
10.54
10.23
10.16
10.09
9.84
9.24
8.17
6.41
3.86
0.46
-3.67
-8.30
-13.04
-17.39
-20.67
-22.11
-21.02
-17.06
-10.47
-2.12
6.71
14.69
20.97
25.25
27.89
29.61
31.15
33.01
35.31
37.89
40.48
42.93
45.28
47.76
50.56
53.64
56.60
58.80
59.61
58.77
56.54
53.63
50.94
49.11
48.29
48.11
47.79
46.53
43.68
38.89
31.99
22.97
12.16
0.33
-11.13
-20.47
-26.25
-28.07
-27.01
-25.39
-25.83
-30.17
-38.69
-50.11
-62.33
-73.33
-81.90
-87.65
-90.70
-91.17
-89.12
-84.72
-78.52
-71.64
-65.48
-61.32
-59.77
-60.66
-63.05
-65.73
-67.70
-68.47
-68.15
-67.24
-66.25
-65.43
-64.64
-63.46
-61.30
-57.62
-52.04
-44.44
-35.01
-24.31
-13.10
-2.18
7.91
17.01
25.35
33.25
40.85
47.97
54.12
58.76
61.54
62.39
61.45
58.99
55.24
50.38
44.62
38.16
31.27
24.17
17.06
10.04
3.18
-3.47
-9.81
-15.72
-21.06
-25.75
-29.82
-33.39
-36.71
-40.04
-43.45
-46.74
-49.31
-50.41
-49.31
-45.67
-39.65
-31.91
-23.32
-14.69
-6.53
0.83
7.21
12.39
16.11
18.25
18.97
18.69
17.98
17.16
16.27
15.12
13.51
11.51
9.52
7.99
7.15
6.74
6.17
4.91
2.84
0.39
-1.67
-2.69
-2.56
-1.91
-1.69
-2.77
-5.45
-9.31
-13.42
-16.78
-18.67
-19.01
-18.10
-16.33
-13.89
-10.70
-6.52
-1.35
4.46
10.04
14.42
16.93
17.45
16.55
15.15
14.10
13.92
14.51
15.48
16.36
16.80
16.70
16.12
15.21
14.10
12.82
11.37
9.74
7.90
5.90
3.73
1.46
-0.86
-3.28
-5.86
-8.80
-12.28
-16.37
-20.90
-25.32
-28.86
-30.71
-30.36
-27.79
-23.51
-18.35
-13.10
-8.31
-4.04
-0.16
3.54
7.04
10.07
12.30
13.49
13.70
13.34
12.87
12.71
12.95
13.39
13.72
13.64
13.09
12.26
11.37
10.62
10.01
9.46
8.87
8.35
8.15
8.71
10.31
13.04
16.50
20.04
22.89
24.54
24.95
24.68
24.57
25.46
27.82
31.51
35.95
40.30
43.88
46.33
47.62
47.92
47.43
46.28
44.56
42.34
39.75
37.03
34.35
31.80
29.37
26.95
24.44
21.85
19.33
17.08
15.29
13.99
13.03
12.15
11.13
9.87
8.42
7.00
5.84
5.07
4.65
4.28
3.54
2.01
-0.51
-3.86
-7.51
-10.67
-12.60
-12.87
-11.49
-8.85
-5.56
-2.13
1.09
3.92
6.23
7.86
8.66
8.58
7.80
6.74
5.96
5.91
6.75
8.31
10.18
11.93
13.30
14.30
15.04
15.64
16.03
15.90
14.91
12.74
9.39
5.15
0.53
-3.93
-7.94
-11.53
-15.02
-18.82
-23.22
-28.19
-33.42
-38.38
-42.51
-45.32
-46.51
-45.98
-43.78
-40.15
-35.48
-30.32
-25.23
-20.69
-17.05
-14.43
-12.71
-11.59
-10.68
-9.57
-7.96
-5.78
-3.15
-0.29
2.63
5.52
8.40
11.24
13.87
15.92
17.02
16.87
15.52
13.31
10.80
8.48
6.63
5.17
3.77
2.01
-0.42
-3.55
-7.14
-10.80
-14.06
-16.52
-17.84
-17.80
-16.26
-13.26
-9.04
-4.09
0.95
5.42
8.77
10.76
11.46
11.16
10.26
9.13
8.01
6.97
6.06
5.28
4.73
4.53
4.74
5.29
5.90
6.15
5.67
4.35
2.38
0.20
-1.73
-3.23
-4.39
-5.59
-7.21
-9.48
-12.36
-15.66
-19.14
-22.60
-25.80
-28.41
-29.90
-29.72
-27.47
-23.19
-17.44
-11.19
-5.49
-1.18
1.37
2.23
1.88
0.90
-0.16
-0.99
-1.46
-1.61
-1.52
-1.26
-0.84
-0.33
0.15
0.38
0.14
-0.64
-1.84
-3.22
-4.55
-5.83
-7.26
-9.09
-11.44
-14.12
-16.72
-18.93
-20.72
-22.51
-24.88
-28.10
-31.79
-34.97
-36.35
-35.05
-30.92
-24.88
-18.31
-12.51
-8.13
-5.06
-2.63
-0.24
2.26
4.39
5.49
5.14
3.60
1.76
0.80
1.48
3.80
6.94
9.68
11.06
10.81
9.36
7.53
6.00
5.10
4.57
3.93
2.78
1.00
-1.27
-3.80
-6.49
-9.34
-12.46
-15.85
-19.26
-22.19
-24.07
-24.36
-22.82
-19.53
-14.90
-9.57
-4.25
0.42
3.95
6.11
6.94
6.73
5.93
5.04
4.44
4.36
4.77
5.54
6.54
7.70
9.02
10.50
12.00
13.20
13.67
13.09
11.32
8.60
5.42
2.33
-0.23
-2.18
-3.77
-5.45
-7.70
-10.69
-14.23
-17.77
-20.57
-21.96
-21.54
-19.29
-15.46
-10.51
-4.95
0.67
5.81
9.99
12.86
14.30
14.51
13.92
13.08
12.47
12.35
12.72
13.39
14.10
14.59
14.73
14.49
13.95
13.22
12.40
11.49
10.46
9.25
7.82
6.19
4.45
2.57
0.46
-2.10
-5.33
-9.31
-13.81
-18.26
-21.89
-23.93
-23.89
-21.72
-17.81
-12.87
-7.67
-2.86
1.12
4.04
5.83
6.44
5.92
4.45
2.40
0.34
-1.13
-1.57
-0.88
0.70
2.62
4.34
5.49
5.99
5.97
5.59
4.93
3.91
2.42
0.43
-1.90
-4.36
-6.72
-8.99
-11.37
-14.14
-17.30
-20.45
-22.85
-23.82
-23.00
-20.50
-16.84
-12.52
-7.85
-2.91
2.18
7.00
10.80
12.82
12.77
11.09
8.86
7.29
7.18
8.49
10.50
12.23
12.90
12.25
10.58
8.38
6.27
4.39
2.71
0.96
-1.05
-3.38
-5.85
-8.29
-10.59
-13.03
-15.89
-19.17
-22.35
-24.32
-23.81
-20.06
-13.28
-4.92
3.07
8.96
12.11
13.05
13.12
13.55
14.84
16.40
17.17
16.39
14.14
11.47
9.78
9.97
11.99
14.68
16.54
16.50
14.51
11.41
8.44
6.49
5.71
5.44
4.70
2.69
-0.86
-5.61
-10.85
-15.70
-19.34
-21.27
-21.28
-19.53
-16.34
-12.15
-7.39
-2.38
2.67
7.47
11.64
14.77
16.50
16.75
15.84
14.46
13.38
13.20
14.08
15.71
17.45
18.68
18.98
18.34
17.00
15.34
13.64
12.02
10.40
8.63
6.54
4.01
1.01
-2.46
-6.33
-10.48
-14.65
-18.42
-21.26
-22.61
-22.01
-19.27
-14.64
-8.70
-2.32
3.69
8.70
12.44
15.04
16.75
17.88
18.56
18.83
18.68
18.19
17.59
17.14
16.98
17.01
16.88
16.22
14.80
12.69
10.26
8.01
6.30
5.27
4.71
4.17
3.17
1.37
-1.29
-4.61
-8.17
-11.54
-14.35
-16.34
-17.27
-16.93
-15.12
-11.81
-7.19
-1.74
3.86
8.94
13.02
15.90
17.62
18.46
18.72
18.72
18.65
18.61
18.54
18.35
17.98
17.49
17.02
16.68
16.45
16.12
15.37
13.98
11.93
9.44
6.82
4.33
2.02
-0.25
-2.65
-5.32
-8.26
-11.32
-14.32
-17.11
-19.49
-21.27
-22.19
-21.95
-20.35
-17.33
-13.10
-8.11
-2.97
1.66
5.27
7.61
8.70
8.82
8.39
7.74
7.12
6.56
6.03
5.52
5.09
4.89
4.96
5.18
5.23
4.73
3.45
1.47
-0.85
-2.96
-4.44
-5.18
-5.47
-5.80
-6.63
-8.17
-10.32
-12.78
-15.25
-17.53
-19.50
-20.99
-21.72
-21.34
-19.53
-16.27
-11.89
-7.01
-2.34
1.56
4.38
6.15
7.04
7.35
7.34
7.20
7.06
6.99
7.00
7.09
7.23
7.43
7.66
7.86
7.88
7.54
6.70
5.34
3.63
1.96
0.75
0.26
0.48
1.06
1.46
1.16
-0.16
-2.48
-5.54
-8.98
-12.37
-15.30
-17.33
-17.95
-16.79
-13.67
-8.87
-3.04
2.86
7.94
11.58
13.64
14.36
14.22
13.67
13.08
12.63
12.40
12.45
12.82
13.55
14.52
15.54
16.28
16.40
15.69
14.19
12.13
9.84
7.60
5.54
3.62
1.79
-0.02
-1.77
-3.44
-5.04
-6.69
-8.59
-10.92
-13.76
-17.06
-20.61
-24.04
-26.76
-28.11
-27.50
-24.72
-20.12
-14.54
-9.03
-4.44
-1.13
0.94
2.09
2.63
2.77
2.61
2.39
2.40
2.93
3.99
5.28
6.32
6.67
6.29
5.50
4.80
4.56
4.76
5.03
4.96
4.35
3.36
2.48
2.11
2.44
3.20
3.91
4.06
3.43
2.14
0.52
-1.21
-3.06
-5.30
-8.16
-11.58
-15.00
-17.52
-18.24
-16.72
-13.12
-8.20
-2.97
1.71
5.31
7.71
9.07
9.66
9.75
9.60
9.48
9.58
10.02
10.71
11.48
12.09
12.36
12.26
11.88
11.32
10.69
9.96
9.14
8.19
7.14
6.04
4.93
3.79
2.55
1.17
-0.33
-1.82
-3.15
-4.17
-4.93
-5.63
-6.62
-8.20
-10.44
-13.12
-15.69
-17.47
-17.85
-16.51
-13.57
-9.53
-5.13
-1.09
2.18
4.59
6.36
7.79
9.03
10.04
10.66
10.73
10.30
9.63
9.09
8.92
9.16
9.61
9.93
9.84
9.31
8.48
7.60
6.86
6.23
5.53
4.48
2.88
0.77
-1.55
-3.71
-5.36
-6.45
-7.20
-7.98
-9.16
-10.91
-13.21
-15.85
-18.59
-21.16
-23.34
-24.83
-25.29
-24.38
-21.90
-17.93
-12.93
-7.66
-2.93
0.62
2.72
3.57
3.60
3.30
2.98
2.70
2.36
1.90
1.38
0.99
0.89
1.07
1.28
1.18
0.55
-0.58
-1.93
-3.09
-3.84
-4.24
-4.68
-5.63
-7.36
-9.75
-12.33
-14.47
-15.81
-16.40
-16.75
-17.66
-19.77
-23.34
-27.97
-32.68
-36.38
-38.12
-37.52
-34.75
-30.44
-25.24
-19.64
-13.90
-8.32
-3.30
0.63
3.03
3.94
3.99
4.26
5.75
8.81
13.07
17.60
21.53
24.48
26.67
28.62
30.66
32.46
33.24
32.18
29.03
24.36
19.37
15.22
12.57
10.94
9.25
6.40
1.97
-3.45
-8.60
-12.31
-14.14
-14.81
-15.56
-17.39
-20.27
-23.03
-23.95
-21.81
-16.55
-9.59
-3.04
1.31
2.79
2.05
0.53
-0.45
-0.28
0.64
1.43
1.38
0.49
-0.58
-0.87
0.21
2.69
5.87
8.84
10.95
12.04
12.46
12.69
13.03
13.45
13.60
13.11
11.84
9.88
7.58
5.29
3.22
1.43
-0.26
-2.09
-4.31
-7.10
-10.41
-13.92
-17.01
-18.85
-18.74
-16.32
-11.83
-6.06
-0.06
5.21
9.16
11.73
13.18
13.88
14.04
13.71
12.82
11.44
9.85
8.49
7.80
7.99
8.93
10.14
11.06
11.25
10.53
9.10
7.28
5.39
3.50
1.51
-0.74
-3.33
-6.05
-8.54
-10.43
-11.54
-12.00
-12.23
-12.72
-13.90
-15.87
-18.33
-20.64
-22.07
-21.99
-20.16
-16.77
-12.43
-7.83
-3.54
0.19
3.30
5.84
7.78
8.99
9.32
8.83
7.86
6.87
6.29
6.35
6.91
7.75
8.59
9.36
10.18
11.12
12.11
12.86
12.92
11.95
9.94
7.20
4.35
1.94
0.28
-0.75
-1.60
-2.83
-4.84
-7.75
-11.34
-15.14
-18.55
-21.04
-22.23
-21.90
-20.07
-16.94
-12.89
-8.42
-4.07
-0.35
2.36
3.85
4.10
3.33
1.94
0.43
-0.72
-1.19
-0.91
0.01
1.31
2.72
4.07
5.29
6.31
7.04
7.31
6.98
6.04
4.65
3.14
1.84
0.92
0.35
-0.12
-0.86
-2.24
-4.47
-7.43
-10.74
-13.73
-15.68
-16.05
-14.65
-11.70
-7.70
-3.22
1.28
5.48
9.11
11.87
13.44
13.53
12.16
9.73
6.92
4.51
3.06
2.70
3.15
3.92
4.54
4.78
4.65
4.29
3.85
3.30
2.48
1.23
-0.49
-2.47
-4.47
-6.31
-8.10
-10.16
-12.88
-16.29
-19.93
-22.85
-24.00
-22.69
-18.94
-13.47
-7.38
-1.73
2.89
6.37
8.88
10.55
11.35
11.11
9.76
7.56
5.10
3.11
2.17
2.49
3.72
5.20
6.20
6.22
5.18
3.38
1.20
-1.00
-3.13
-5.28
-7.63
-10.27
-13.16
-16.15
-19.05
-21.76
-24.14
-25.94
-26.80
-26.18
-23.67
-19.17
-13.07
-6.22
0.33
5.65
9.30
11.32
12.18
12.32
12.08
11.57
10.81
9.91
9.22
9.12
9.84
11.11
12.30
12.64
11.62
9.32
6.38
3.64
1.67
0.44
-0.59
-2.13
-4.64
-8.10
-12.08
-16.03
-19.53
-22.49
-24.86
-26.47
-26.88
-25.54
-22.04
-16.57
-9.83
-3.06
2.62
6.58
8.91
10.24
11.42
12.98
14.96
16.85
18.01
18.04
17.06
15.63
14.58
14.39
15.07
15.98
16.23
15.15
12.64
9.23
5.82
3.19
1.68
0.96
0.37
-0.80
-2.88
-5.84
-9.32
-12.91
-16.25
-19.06
-21.05
-21.86
-21.17
-18.77
-14.79
-9.64
-3.94
1.64
6.52
10.34
12.91
14.13
14.14
13.24
11.95
10.82
10.25
10.34
10.85
11.31
11.30
10.63
9.36
7.80
6.17
4.45
2.27
-0.92
-5.55
-11.72
-19.06
-26.90
-34.46
-41.22
-47.01
-52.01
-56.55
-60.91
-65.21
-69.36
-73.14
-76.20
-78.00
-77.90
-75.20
-69.35
-60.22
-48.24
-34.43
-20.20
-7.03
3.87
11.78
16.62
18.84
19.26
18.73
17.90
17.06
16.17
14.99
13.32
11.09
8.44
5.53
2.40
-1.05
-4.96
-9.40
-14.21
-18.92
-22.92
-25.58
-26.45
-25.36
-22.46
-18.13
-12.84
-7.04
-1.04
4.87
10.43
15.27
19.01
21.37
22.33
22.34
22.23
23.01
25.37
29.43
34.50
39.37
42.73
43.77
42.42
39.55
36.62
35.25
36.79
41.91
50.47
61.71
74.44
87.40
99.50
109.96
118.22
123.93
126.95
127.38
125.53
121.93
117.17
111.73
106.05
100.49
95.46
91.16
87.31
82.97
76.76
67.63
55.61
42.28
30.25
22.04
18.72
19.32
21.34
22.01
19.77
14.90
9.05
4.27
1.58
0.67
0.13
-1.64
-5.42
-10.92
-16.88
-21.78
-24.73
-25.51
-24.54
-22.41
-19.51
-15.82
-11.25
-5.86
-0.31
4.39
7.25
7.71
6.00
3.06
0.11
-1.88
-2.75
-2.96
-3.36
-4.62
-6.81
-9.36
-11.42
-12.28
-12.01
-11.10
-10.12
-9.21
-7.87
-5.25
-0.82
5.24
11.69
16.96
19.84
20.13
18.66
16.81
15.68
15.67
16.21
16.38
15.49
13.58
11.33
9.65
9.13
9.87
11.21
12.29
12.46
11.48
9.59
7.32
5.19
3.62
2.68
2.18
1.79
1.09
-0.27
-2.47
-5.49
-8.99
-12.53
-15.61
-17.82
-18.95
-19.01
-18.12
-16.51
-14.42
-12.17
-10.14
-8.78
-8.57
-9.85
-12.64
-16.63
-21.15
-25.47
-29.02
-31.61
-33.46
-34.99
-36.60
-38.40
-40.13
-41.29
-41.42
-40.34
-38.29
-35.86
-33.70
-32.31
-31.81
-31.99
-32.44
-32.78
-32.86
-32.74
-32.65
-32.78
-33.17
-33.74
-34.32
-34.85
-35.46
-36.40
-37.82
-39.55
-40.91
-40.95
-38.87
-34.49
-28.44
-21.95
-16.35
-12.41
-10.13
-8.91
-8.06
-7.27
-6.72
-6.81
-7.84
-9.55
-11.24
-12.14
-11.85
-10.59
-9.17
-8.53
-9.36
-11.74
-15.07
-18.45
-21.10
-22.71
-23.61
-24.40
-25.68
-27.55
-29.44
-30.42
-29.69
-27.05
-23.08
-18.82
-15.28
-12.84
-11.01
-8.81
-5.29
-0.22
5.77
11.55
16.05
18.90
20.50
21.71
23.20
24.99
26.44
26.70
25.21
22.13
18.38
15.13
13.23
12.85
13.40
13.92
13.59
12.15
10.03
8.01
6.80
6.57
6.85
6.89
6.03
4.20
1.92
-0.02
-1.09
-1.29
-1.20
-1.53
-2.58
-4.01
-4.78
-3.70
-0.04
6.00
13.26
20.11
25.15
27.88
28.93
29.52
30.82
33.20
35.97
37.82
37.59
35.01
30.94
26.88
24.22
23.50
24.19
25.10
25.07
23.60
21.15
18.68
17.09
16.72
17.01
17.00
15.81
13.16
9.57
5.94
3.03
1.03
-0.56
-2.49
-5.26
-8.64
-11.72
-13.48
-13.42
-11.93
-10.22
-9.66
-11.01
-14.05
-17.56
-20.11
-20.73
-19.42
-17.11
-15.10
-14.37
-15.03
-16.31
-16.98
-15.98
-12.94
-8.32
-3.11
1.68
5.59
8.90
12.31
16.44
21.30
26.17
29.99
31.91
31.80
30.41
28.81
27.82
27.51
27.16
25.72
22.51
17.70
12.31
7.64
4.52
2.87
1.70
-0.23
-3.74
-8.54
-13.44
-16.96
-18.12
-17.02
-14.76
-12.75
-12.11
-13.01
-14.93
-17.06
-18.81
-20.17
-21.46
-22.94
-24.61
-26.09
-26.90
-26.90
-26.36
-25.95
-26.39
-27.97
-30.53
-33.42
-35.84
-37.17
-37.25
-36.33
-34.98
-33.71
-32.89
-32.45
-32.17
-31.76
-31.03
-29.93
-28.57
-26.95
-25.07
-22.70
-19.74
-16.09
-11.81
-7.05
-2.00
3.34
8.88
14.58
20.28
25.70
30.54
34.62
37.87
40.48
42.58
44.39
46.01
47.51
48.80
49.72
49.94
49.19
47.31
44.47
41.14
37.66
34.01
29.44
22.73
12.76
-0.81
-17.11
-34.35
-50.45
-64.07
-74.92
-83.73
-91.39
-98.33
-104.05
-107.35
-107.05
-102.77
-95.26
-86.26
-77.66
-70.86
-66.22
-63.09
-60.40
-57.37
-53.86
-50.43
-47.76
-46.25
-45.66
-45.23
-44.24
-42.49
-40.48
-39.11
-39.17
-40.79
-43.32
-45.65
-46.79
-46.49
-45.30
-44.41
-44.98
-47.55
-51.73
-56.26
-59.61
-60.49
-58.38
-53.63
-47.21
-40.22
-33.52
-27.47
-22.08
-17.20
-12.78
-8.95
-5.89
-3.57
-1.63
0.65
4.11
9.25
16.01
23.74
31.38
38.01
43.16
47.00
50.13
53.07
55.94
58.35
59.68
59.49
57.87
55.46
53.01
51.03
49.47
47.79
45.38
41.98
37.96
34.19
31.65
31.05
32.50
35.58
39.54
43.82
48.23
52.90
58.01
63.41
68.41
71.99
73.36
72.39
69.79
66.64
63.78
61.28
58.43
54.23
48.21
40.91
33.79
28.49
26.06
26.41
28.37
30.36
31.17
30.35
28.21
25.23
21.68
17.43
12.25
6.18
-0.31
-6.57
-12.14
-17.29
-22.69
-28.95
-36.04
-43.01
-48.33
-50.62
-49.33
-45.11
-39.45
-34.04
-30.17
-28.38
-28.62
-30.53
-33.58
-37.55
-42.09
-46.79
-51.05
-54.03
-54.95
-53.46
-49.84
-45.46
-42.01
-40.86
-42.36
-45.44
-48.14
-48.72
-46.56
-43.02
-40.54
-41.43
-46.46
-54.36
-62.37
-67.75
-69.11
-67.15
-63.87
-61.15
-59.61
-58.13
-54.72
-47.71
-36.74
-23.23
-9.49
2.41
11.59
18.58
24.72
31.33
39.09
47.55
55.69
62.51
67.54
70.99
73.47
75.62
77.87
79.93
81.18
80.85
78.38
73.72
67.30
59.95
52.65
46.10
40.50
35.58
30.73
25.44
19.57
13.63
8.64
5.67
5.46
7.99
12.52
17.94
23.23
27.84
31.83
35.52
39.19
42.71
45.60
47.29
47.49
46.39
44.62
42.90
41.68
40.89
40.00
38.37
35.61
31.86
27.71
23.90
20.98
18.98
17.51
15.98
13.98
11.42
8.58
5.80
3.22
0.63
-2.50
-6.61
-11.79
-17.57
-22.93
-26.70
-28.03
-26.71
-23.25
-18.65
-13.93
-9.81
-6.51
-3.88
-1.70
0.09
1.30
1.70
1.24
0.24
-0.66
-0.78
0.31
2.54
5.39
8.19
10.32
11.53
11.94
11.87
11.55
11.05
10.15
8.60
6.17
2.96
-0.65
-4.17
-7.23
-9.80
-12.26
-15.08
-18.52
-22.34
-25.79
-27.84
-27.76
-25.36
-21.15
-15.98
-10.76
-6.01
-1.78
2.11
5.74
8.89
11.10
11.92
11.26
9.47
7.37
5.85
5.53
6.47
8.11
9.68
10.45
10.12
8.89
7.27
5.73
4.44
3.14
1.34
-1.32
-4.90
-8.97
-12.96
-16.42
-19.34
-22.11
-25.11
-28.41
-31.45
-33.18
-32.52
-28.96
-22.89
-15.50
-8.26
-2.36
1.76
4.40
6.15
7.51
8.52
8.91
8.47
7.29
5.91
5.14
5.50
7.00
9.01
10.59
10.99
9.94
7.78
5.21
2.93
1.29
0.13
-1.06
-2.85
-5.60
-9.30
-13.58
-17.85
-21.53
-24.18
-25.55
-25.55
-24.16
-21.43
-17.43
-12.36
-6.61
-0.75
4.54
8.69
11.37
12.63
12.86
12.63
12.49
12.78
13.57
14.76
16.09
17.31
18.21
18.59
18.33
17.30
15.44
12.80
9.55
5.94
2.35
-0.96
-3.97
-6.96
-10.44
-14.81
-20.15
-25.89
-31.00
-34.32
-35.05
-33.01
-28.75
-23.21
-17.31
-11.58
-6.21
-1.11
3.76
8.19
11.83
14.38
15.77
16.23
16.19
16.02
15.95
15.93
15.86
15.61
15.17
14.70
14.26
13.87
13.39
12.57
11.16
9.06
6.36
3.29
0.08
-3.16
-6.48
-10.06
-14.05
-18.33
-22.44
-25.59
-27.08
-26.44
-23.68
-19.19
-13.58
-7.31
-0.83
5.63
11.59
16.50
19.86
21.43
21.47
20.77
20.18
20.36
21.30
22.50
23.27
23.22
22.49
21.67
21.29
21.56
21.96
21.65
19.94
16.75
12.71
8.92
6.22
4.84
4.11
2.94
0.42
-3.72
-8.98
-14.25
-18.47
-20.86
-21.16
-19.54
-16.35
-12.00
-6.96
-1.66
3.46
8.09
12.00
15.11
17.40
18.88
19.55
19.55
19.15
18.75
18.76
19.37
20.46
21.65
22.41
22.35
21.34
19.52
17.25
14.85
12.54
10.37
8.24
6.00
3.57
0.96
-1.69
-4.22
-6.55
-8.76
-11.12
-13.90
-17.13
-20.39
-22.78
-23.25
-21.05
-16.16
-9.40
-2.11
4.42
9.39
12.70
14.81
16.25
17.32
17.99
18.06
17.49
16.55
15.74
15.60
16.36
17.79
19.28
20.12
19.88
18.57
16.69
14.83
13.44
12.52
11.66
10.30
8.09
5.13
1.92
-0.97
-3.20
-4.88
-6.60
-9.02
-12.56
-17.10
-21.95
-26.10
-28.56
-28.74
-26.59
-22.55
-17.26
-11.36
-5.34
0.43
5.56
9.65
12.22
13.06
12.33
10.69
9.06
8.29
8.75
10.24
12.13
13.73
14.58
14.61
14.08
13.24
12.20
10.89
9.16
7.01
4.64
2.47
0.78
-0.41
-1.39
-2.67
-4.68
-7.56
-11.08
-14.81
-18.31
-21.38
-24.01
-26.25
-28.03
-29.03
-28.74
-26.58
-22.44
-16.61
-9.93
-3.58
1.43
4.59
5.98
6.20
5.75
4.89
3.62
1.94
0.24
-0.65
0.19
3.15
7.54
11.84
14.36
14.16
11.56
7.96
5.04
3.82
4.02
4.52
4.03
1.95
-1.33
-4.74
-7.37
-8.96
-10.49
-13.25
-18.06
-24.48
-30.73
-34.35
-33.53
-27.86
-19.04
-9.73
-2.42
1.78
3.50
4.51
6.45
9.88
13.72
16.18
15.88
12.79
8.42
4.96
4.14
6.40
10.49
14.44
16.52
16.06
13.64
10.50
7.75
5.94
4.66
3.18
0.91
-2.32
-6.17
-10.08
-13.64
-16.69
-19.56
-22.69
-26.48
-31.02
-35.92
-40.32
-43.20
-43.57
-41.08
-36.07
-29.50
-22.66
-16.58
-11.78
-8.17
-5.32
-2.90
-0.87
0.48
0.78
-0.12
-1.91
-3.98
-5.58
-6.22
-5.86
-4.88
-3.95
-3.67
-4.38
-6.01
-8.16
-10.37
-12.32
-14.00
-15.62
-17.40
-19.41
-21.41
-22.99
-23.82
-23.91
-23.59
-23.42
-23.81
-24.83
-26.08
-26.77
-26.10
-23.54
-19.00
-12.85
-5.74
1.58
8.51
14.76
20.31
25.31
29.92
34.16
37.92
41.06
43.60
45.90
48.45
51.73
55.88
60.61
65.34
69.51
72.97
76.12
79.76
84.65
91.10
98.71
106.52
113.32
118.11
120.40
120.09
117.29
112.01
104.26
94.37
83.28
72.43
63.10
55.54
48.47
39.42
25.84
6.66
-17.02
-42.19
-65.20
-83.41
-96.15
-104.72
-111.34
-117.84
-124.90
-131.95
-137.83
-141.64
-143.23
-143.12
-142.13
-140.40
-137.27
-131.63
-122.81
-111.39
-98.82
-86.34
-73.75
-59.26
-40.92
-18.66
4.64
24.12
35.65
38.53
36.13
33.91
35.90
42.03
48.25
49.05
40.92
24.24
2.67
-19.31
-38.80
-55.14
-69.15
-81.47
-91.70
-98.50
-100.73
-98.35
-92.69
-85.92
-79.92
-75.39
-71.41
-65.80
-56.05
-40.46
-18.97
6.69
33.71
59.19
81.13
98.76
112.29
122.26
129.03
132.63
133.04
130.50
125.64
119.29
112.19
104.62
96.53
87.73
78.16
67.98
57.49
46.96
36.43
25.75
14.78
3.67
-7.05
-16.56
-24.00
-29.00
-31.84
-33.53
-35.34
-38.26
-42.58
-47.76
-52.70
-56.24
-57.56
-56.39
-52.97
-47.93
-42.00
-36.01
-30.80
-27.15
-25.51
-25.87
-27.63
-29.86
-31.70
-32.80
-33.59
-35.01
-38.09
-43.30
-50.23
-57.53
-63.35
-66.10
-64.86
-59.66
-51.25
-40.78
-29.39
-18.12
-7.85
0.91
8.28
15.35
24.01
36.38
53.63
75.16
98.27
119.08
133.89
140.67
139.69
133.09
123.71
113.90
104.83
96.50
88.38
79.98
71.18
62.23
53.37
44.70
36.02
27.00
17.49
7.76
-1.52
-9.51
-15.62
-19.73
-22.53
-25.10
-28.54
-33.42
-39.56
-46.02
-51.56
-55.11
-56.30
-55.37
-52.94
-49.60
-45.58
-40.68
-34.79
-28.07
-21.39
-15.91
-12.58
-11.60
-12.24
-13.16
-13.22
-11.95
-9.82
-7.80
-6.64
-6.42
-6.54
-6.22
-5.17
-3.77
-2.98
-3.66
-5.99
-9.26
-12.27
-13.94
-13.92
-12.75
-11.63
-11.77
-13.84
-17.80
-22.96
-28.21
-32.47
-34.78
-34.52
-31.42
-25.64
-17.74
-8.63
0.71
9.46
17.17
23.66
28.92
32.90
35.39
36.17
35.22
32.91
29.98
27.25
25.34
24.34
23.84
23.16
21.73
19.35
16.32
13.20
10.58
8.70
7.39
6.11
4.28
1.52
-2.31
-6.95
-11.99
-16.93
-21.24
-24.40
-25.86
-25.22
-22.27
-17.12
-10.35
-2.90
4.18
9.95
13.87
15.90
16.45
16.13
15.50
14.90
14.35
13.68
12.81
11.78
10.89
10.47
10.67
11.28
11.81
11.75
10.78
8.98
6.77
4.67
3.01
1.75
0.56
-1.05
-3.43
-6.72
-10.71
-14.96
-18.88
-21.85
-23.41
-23.27
-21.39
-17.91
-13.10
-7.33
-1.09
5.07
10.59
14.94
17.82
19.19
19.34
18.72
17.81
16.90
16.12
15.46
14.86
14.30
13.84
13.47
13.12
12.57
11.58
10.02
7.98
5.71
3.58
1.66
-0.18
-2.38
-5.40
-9.40
-14.07
-18.68
-22.38
-24.57
-25.07
-24.04
-21.76
-18.45
-14.12
-8.73
-2.36
4.56
11.36
17.19
21.35
23.49
23.69
22.48
20.70
19.06
18.09
17.86
18.05
18.20
17.94
17.12
15.89
14.18
11.85
8.69
4.66
0.15
-4.08
-7.30
-9.21
-10.40
-11.96
-14.89
-19.39
-24.53
-28.56
-29.77
-27.38
-22.05
-15.45
-9.34
-4.76
-1.46
1.61
5.51
10.52
15.60
19.13
19.81
17.51
13.56
10.08
8.93
10.82
14.75
18.77
20.93
20.24
17.11
12.89
9.07
6.49
4.85
3.13
0.22
-4.38
-10.39
-16.97
-23.19
-28.40
-32.42
-35.25
-36.80
-36.77
-34.76
-30.60
-24.48
-16.93
-8.78
-0.75
6.62
13.02
18.22
22.02
24.22
24.83
24.05
22.28
19.93
17.23
14.20
10.69
6.74
2.73
-0.67
-2.84
-3.59
-3.36
-3.11
-3.89
-6.38
-10.66
-16.28
-22.66
-29.50
-36.82
-44.73
-53.13
-61.28
-67.87
-71.42
-70.84
-65.85
-57.20
-46.35
-35.11
-25.14
-17.69
-13.49
-12.81
-15.48
-20.89
-28.00
-35.53
-42.13
-46.71
-48.61
-47.77
-44.67
-40.22
-35.53
-31.74
-29.50
-28.85
-29.21
-29.80
-30.04
-29.87
-29.56
-29.38
-29.18
-28.29
-26.06
-22.34
-17.88
-14.09
-12.26
-12.86
-15.07
-17.16
-17.27
-14.33
-8.38
-0.50
8.00
16.01
23.11
29.37
34.90
39.50
42.60
43.51
42.10
38.96
35.34
32.64
31.79
32.79
34.84
36.77
37.78
37.61
36.67
35.76
35.52
36.10
37.19
38.07
38.15
37.05
34.83
31.82
28.45
24.97
21.52
18.12
14.97
12.50
11.30
11.87
14.39
18.54
23.62
28.65
32.78
35.45
36.52
36.29
35.30
34.11
33.04
32.06
30.93
29.40
27.41
25.27
23.32
21.75
20.42
18.89
16.79
14.07
11.03
8.13
5.66
3.49
1.11
-2.03
-6.26
-11.49
-17.28
-23.01
-28.16
-32.44
-35.82
-38.32
-39.87
-40.20
-38.87
-35.43
-29.73
-22.19
-13.66
-5.30
1.88
7.37
11.17
13.80
15.82
17.60
19.12
20.04
19.96
18.64
16.27
13.49
11.08
9.68
9.48
10.16
11.12
11.79
12.02
12.09
12.51
13.66
15.56
17.82
19.84
21.18
21.67
21.52
21.14
20.86
20.85
21.04
21.29
21.61
22.33
24.00
27.15
31.89
37.71
43.57
48.37
51.38
52.48
52.09
50.74
48.72
45.97
42.20
37.33
31.68
25.99
21.10
17.50
15.11
13.31
11.24
8.26
4.31
-0.09
-4.04
-6.73
-7.88
-7.83
-7.42
-7.43
-8.25
-9.59
-10.92
-11.67
-11.73
-11.43
-11.21
-11.08
-10.52
-8.65
-5.06
-0.12
5.03
9.00
11.01
11.31
10.81
10.39
9.99
8.62
4.95
-1.67
-10.58
-19.85
-27.37
-31.80
-33.40
-33.56
-33.97
-35.54
-38.00
-40.09
-40.56
-38.79
-35.48
-31.92
-29.20
-27.44
-25.61
-22.05
-15.67
-6.55
3.53
12.17
17.45
19.03
18.20
17.20
17.81
20.44
23.76
25.73
24.77
20.71
14.82
9.00
4.56
1.66
-0.86
-4.57
-10.47
-18.44
-27.32
-35.55
-41.99
-46.19
-48.59
-49.92
-50.86
-51.72
-52.54
-53.15
-53.44
-53.28
-52.68
-51.62
-50.03
-47.79
-44.66
-40.26
-34.10
-25.80
-15.26
-3.00
9.88
21.89
31.64
38.24
41.55
42.15
41.02
39.22
37.61
36.74
36.85
37.93
39.77
42.04
44.33
46.27
47.61
48.27
48.32
47.91
47.23
46.47
45.82
45.39
45.12
44.72
43.72
41.62
38.14
33.34
27.67
21.77
16.17
11.11
6.55
2.26
-1.85
-5.56
-8.33
-9.52
-8.71
-5.98
-1.92
2.50
6.31
8.80
9.67
8.89
6.51
2.57
-2.85
-9.41
-16.32
-22.44
-26.58
-27.98
-26.56
-22.97
-18.26
-13.42
-9.07
-5.40
-2.33
0.20
2.10
3.09
2.99
1.85
0.04
-1.80
-3.08
-3.43
-2.82
-1.56
-0.09
1.25
2.32
3.17
3.92
4.59
5.03
4.98
4.16
2.48
0.06
-2.77
-5.69
-8.51
-11.35
-14.56
-18.55
-23.45
-28.93
-34.11
-37.90
-39.38
-38.19
-34.74
-29.94
-24.88
-20.30
-16.39
-13.00
-9.78
-6.60
-3.61
-1.17
0.53
1.52
2.11
2.57
2.99
3.23
3.07
2.50
1.76
1.26
1.45
2.41
3.90
5.39
6.33
6.30
5.26
3.42
1.23
-1.04
-3.19
-5.21
-7.12
-8.90
-10.38
-11.42
-11.93
-12.37
-13.38
-15.51
-18.75
-22.29
-24.68
-24.59
-21.44
-16.00
-9.94
-5.01
-2.21
-1.30
-1.07
-0.23
1.80
4.32
5.97
5.54
2.83
-1.11
-4.51
-5.93
-4.98
-2.67
-0.71
-0.46
-2.30
-5.40
-8.41
-10.24
-10.69
-10.54
-10.96
-12.74
-15.94
-19.84
-23.46
-26.05
-27.37
-27.83
-28.11
-28.86
-30.46
-32.90
-35.82
-38.61
-40.54
-41.03
-39.76
-36.79
-32.55
-27.63
-22.56
-17.65
-12.94
-8.35
-3.96
-0.05
2.91
4.56
4.86
4.23
3.41
3.13
3.78
5.24
6.96
8.33
8.89
8.61
7.78
6.80
5.91
5.13
4.20
2.85
0.89
-1.65
-4.47
-7.21
-9.53
-11.33
-12.77
-14.22
-16.09
-18.60
-21.55
-24.38
-26.31
-26.67
-25.18
-22.08
-17.97
-13.60
-9.45
-5.72
-2.36
0.68
3.33
5.33
6.39
6.42
5.65
4.61
3.85
3.77
4.35
5.33
6.30
7.03
7.57
8.17
9.07
10.22
11.26
11.67
11.06
9.38
7.10
4.84
3.11
2.00
1.08
-0.31
-2.74
-6.40
-10.90
-15.50
-19.36
-21.84
-22.64
-21.80
-19.58
-16.28
-12.16
-7.51
-2.67
1.87
5.56
8.01
9.03
8.87
8.05
7.22
6.83
6.99
7.44
7.82
7.81
7.34
6.65
6.07
5.83
5.87
5.85
5.33
3.96
1.75
-0.96
-3.64
-5.85
-7.48
-8.76
-10.14
-12.00
-14.51
-17.43
-20.33
-22.70
-24.15
-24.49
-23.67
-21.77
-18.89
-15.13
-10.65
-5.75
-0.85
3.60
7.17
9.67
11.17
11.95
12.38
12.70
12.99
13.15
13.08
12.78
12.44
12.28
12.50
13.09
13.82
14.33
14.26
13.38
11.71
9.52
7.15
4.93
2.98
1.21
-0.61
-2.72
-5.26
-8.15
-11.26
-14.42
-17.45
-20.11
-22.04
-22.74
-21.72
-18.66
-13.74
-7.57
-1.13
4.58
8.83
11.39
12.49
12.70
12.62
12.66
12.93
13.35
13.73
14.00
14.26
14.71
15.45
16.34
17.00
16.92
15.74
13.40
10.29
7.06
4.30
2.36
1.16
0.23
-0.95
-2.79
-5.39
-8.57
-11.99
-15.36
-18.46
-21.11
-23.04
-23.86
-23.12
-20.48
-16.04
-10.33
-4.30
1.08
5.11
7.57
8.74
9.11
9.13
8.98
8.65
8.09
7.44
7.04
7.33
8.58
10.62
12.86
14.51
14.92
13.92
11.84
9.34
6.94
4.89
2.99
0.79
-2.05
-5.55
-9.45
-13.27
-16.75
-19.72
-22.13
-23.74
-24.05
-22.41
-18.54
-12.79
-6.38
-0.80
2.70
3.70
2.76
1.06
-0.37
-1.07
-1.49
-2.33
-4.06
-6.39
-8.41
-9.04
-7.80
-5.06
-2.19
-0.68
-1.43
-4.22
-7.89
-10.86
-12.09
-11.50
-10.09
-9.28
-10.20
-13.14
-17.60
-22.45
-26.62
-29.29
-30.21
-29.44
-27.23
-23.79
-19.34
-14.09
-8.37
-2.49
3.10
8.05
12.13
15.30
17.64
19.34
20.60
21.62
22.49
23.26
23.85
24.09
23.69
22.43
20.20
17.23
13.96
10.95
8.62
7.08
6.06
5.15
3.96
2.40
0.65
-1.07
-2.67
-4.31
-6.28
-8.67
-11.13
-12.85
-12.93
-10.76
-6.45
-0.85
4.82
9.42
12.39
13.88
14.52
14.97
15.62
16.41
17.07
17.38
17.39
17.44
17.94
19.07
20.61
21.96
22.41
21.44
18.93
15.20
10.85
6.43
2.30
-1.48
-5.08
-8.68
-12.39
-16.15
-19.81
-23.27
-26.46
-29.37
-31.87
-33.63
-34.11
-32.74
-29.11
-23.28
-15.80
-7.64
0.12
6.58
11.27
14.27
15.95
16.84
17.33
17.55
17.51
17.17
16.67
16.30
16.46
17.34
18.84
20.47
21.65
21.90
21.12
19.66
18.12
17.01
16.54
16.48
16.37
15.78
14.48
12.58
10.30
7.86
5.26
2.38
-0.82
-4.11
-6.94
-8.61
-8.64
-7.05
-4.44
-1.82
-0.15
0.03
-1.20
-3.19
-5.23
-6.77
-7.76
-8.58
-9.66
-11.16
-12.79
-13.97
-14.39
-14.17
-13.92
-14.39
-15.89
-18.05
-20.04
-20.97
-20.70
-19.75
-19.05
-19.35
-20.60
-22.10
-22.98
-22.88
-22.39
-22.65
-24.64
-28.41
-32.80
-35.95
-36.27
-33.14
-27.68
-21.81
-17.54
-15.90
-16.62
-18.56
-20.65
-22.51
-25.05
-29.57
-36.93
-46.71
-57.11
-65.73
-70.71
-71.61
-69.87
-67.76
-67.22
-68.83
-71.52
-73.34
-72.60
-68.81
-63.00
-56.90
-52.03
-48.87
-46.85
-44.93
-42.39
-39.14
-35.83
-33.14
-31.19
-29.42
-26.77
-22.28
-15.57
-6.81
3.27
13.90
24.54
35.00
45.29
55.48
65.44
74.99
83.79
91.70
98.82
105.55
112.50
120.24
129.06
138.73
148.53
157.34
164.07
167.94
168.74
166.86
163.10
158.37
153.26
147.89
141.80
134.23
124.49
112.28
97.91
82.18
66.12
50.59
36.06
22.60
10.09
-1.53
-11.95
-20.56
-26.60
-29.57
-29.49
-26.95
-22.90
-18.28
-13.66
-9.07
-4.27
0.91
6.24
11.00
14.32
15.58
14.84
12.92
11.00
10.09
10.61
12.21
14.11
15.55
16.18
16.22
16.23
16.65
17.50
18.32
18.47
17.40
15.04
11.86
8.58
5.82
3.77
2.09
0.21
-2.46
-6.12
-10.42
-14.66
-18.11
-20.30
-21.26
-21.21
-20.49
-19.23
-17.31
-14.53
-10.88
-6.64
-2.41
1.17
3.70
5.16
6.00
6.81
8.09
9.97
12.16
14.19
15.61
16.28
16.47
16.60
17.05
17.88
18.72
19.13
18.84
17.98
17.08
16.71
17.17
18.34
19.62
20.51
20.72
20.42
20.16
20.48
21.61
23.31
24.88
25.65
25.19
23.64
21.69
20.26
20.10
21.36
23.49
25.43
26.07
24.82
21.88
18.09
14.48
11.75
9.91
8.37
6.37
3.40
-0.50
-4.94
-9.56
-14.33
-19.67
-26.10
-33.84
-42.43
-50.72
-57.33
-61.18
-61.93
-60.16
-56.96
-53.52
-50.65
-48.52
-46.88
-45.41
-44.05
-43.15
-43.27
-44.86
-47.97
-52.18
-56.77
-61.10
-64.77
-67.73
-70.02
-71.60
-72.11
-71.02
-67.93
-62.90
-56.52
-49.72
-43.36
-37.82
-32.94
-28.19
-23.09
-17.54
-11.97
-7.04
-3.37
-1.19
-0.27
-0.04
0.20
1.09
2.98
5.85
9.27
12.55
14.96
16.05
15.79
14.56
12.95
11.35
9.86
8.28
6.41
4.29
2.22
0.55
-0.50
-1.05
-1.43
-1.99
-2.91
-4.39
-6.61
-10.01
-15.11
-22.11
-30.51
-39.13
-46.41
-51.44
-54.29
-56.07
-58.34
-62.08
-67.10
-72.12
-75.53
-76.21
-73.98
-69.31
-62.74
-54.32
-43.72
-30.73
-15.99
-1.05
12.01
21.50
26.75
28.39
27.92
27.03
27.15
28.70
31.50
34.80
37.72
39.71
40.67
41.01
41.43
42.17
43.11
43.70
43.37
42.02
40.20
38.64
37.89
37.73
37.40
36.18
33.95
31.46
29.96
30.35
32.59
35.46
37.28
36.76
33.73
29.18
24.67
21.39
19.72
18.93
17.90
15.81
12.66
9.18
6.44
5.07
5.05
5.53
5.48
4.18
1.64
-1.63
-4.83
-7.42
-9.20
-10.48
-11.62
-12.92
-14.42
-16.08
-17.81
-19.68
-21.81
-24.33
-27.19
-30.15
-32.81
-34.72
-35.41
-34.58
-32.05
-27.86
-22.31
-15.96
-9.52
-3.73
0.93
4.29
6.52
8.06
9.34
10.65
12.02
13.28
14.24
14.81
15.14
15.52
16.27
17.45
18.83
19.92
20.20
19.38
17.53
15.07
12.52
10.23
8.24
6.23
3.83
0.83
-2.67
-6.27
-9.56
-12.33
-14.73
-17.12
-19.78
-22.57
-24.86
-25.73
-24.41
-20.72
-15.26
-9.21
-3.87
-0.10
2.01
2.97
3.55
4.24
5.12
5.82
5.96
5.42
4.52
3.86
3.94
4.90
6.41
7.81
8.51
8.25
7.20
5.80
4.53
3.58
2.83
1.93
0.55
-1.36
-3.50
-5.38
-6.67
-7.42
-8.14
-9.53
-12.09
-15.76
-19.81
-23.11
-24.64
-23.88
-20.96
-16.60
-11.66
-6.85
-2.56
1.14
4.24
6.67
8.26
8.89
8.59
7.68
6.70
6.17
6.40
7.33
8.55
9.57
10.07
10.03
9.85
9.96
10.58
11.48
12.09
11.74
10.11
7.38
4.31
1.67
0.02
-0.69
-1.09
-2.00
-4.03
-7.30
-11.39
-15.79
-19.96
-23.52
-26.14
-27.31
-26.45
-23.15
-17.51
-10.56
-3.85
1.08
3.43
3.48
2.45
1.68
1.96
2.98
3.84
3.67
2.38
0.79
0.21
1.54
4.80
8.61
11.24
11.38
8.91
5.05
1.63
0.06
0.72
2.42
3.46
2.53
-0.55
-4.72
-8.35
-10.30
-10.46
-9.99
-10.40
-12.59
-16.23
-19.82
-21.52
-20.08
-15.41
-8.73
-1.82
3.72
7.09
8.34
8.09
7.09
5.96
4.88
3.85
2.84
1.89
1.19
0.93
1.28
2.28
3.65
4.94
5.60
5.25
3.81
1.62
-0.74
-2.68
-3.86
-4.35
-4.61
-5.28
-6.89
-9.64
-13.30
-17.23
-20.57
-22.61
-22.94
-21.61
-18.99
-15.59
-11.87
-8.06
-4.27
-0.57
2.81
5.49
7.03
7.16
5.97
3.95
1.83
0.35
-0.10
0.36
1.30
2.07
2.19
1.56
0.39
-0.95
-2.19
-3.30
-4.42
-5.79
-7.52
-9.53
-11.67
-13.78
-15.82
-17.83
-19.78
-21.54
-22.73
-22.84
-21.43
-18.32
-13.72
-8.27
-2.71
2.22
6.11
8.95
10.93
12.30
13.15
13.36
12.80
11.44
9.58
7.82
6.71
6.51
7.03
7.58
7.47
6.22
3.92
1.11
-1.45
-3.24
-4.24
-4.92
-5.89
-7.65
-10.30
-13.47
-16.61
-19.14
-20.67
-21.08
-20.31
-18.39
-15.37
-11.31
-6.41
-1.10
4.00
8.17
10.85
11.79
11.16
9.58
7.84
6.65
6.32
6.71
7.39
7.87
7.88
7.50
6.96
6.50
6.09
5.48
4.45
2.89
0.99
-0.85
-2.30
-3.31
-4.15
-5.33
-7.25
-9.97
-13.08
-15.75
-17.10
-16.53
-13.98
-9.97
-5.36
-1.00
2.59
5.39
7.61
9.52
11.13
12.16
12.31
11.46
9.91
8.31
7.34
7.41
8.40
9.73
10.61
10.43
9.01
6.72
4.23
2.17
0.85
0.11
-0.56
-1.64
-3.38
-5.57
-7.75
-9.45
-10.43
-10.72
-10.48
-9.78
-8.47
-6.23
-2.83
1.62
6.61
11.32
14.98
17.16
17.83
17.38
16.36
15.22
14.22
13.41
12.72
12.12
11.63
11.34
11.29
11.40
11.46
11.19
10.37
8.90
6.94
4.84
2.91
1.34
-0.01
-1.52
-3.60
-6.45
-9.78
-12.90
-14.90
-15.12
-13.43
-10.29
-6.51
-2.81
0.44
3.35
6.21
9.13
11.78
13.55
13.87
12.64
10.50
8.51
7.67
8.43
10.39
12.58
13.99
14.10
13.03
11.28
9.39
7.64
5.95
4.18
2.36
0.76
-0.41
-1.31
-2.49
-4.65
-8.08
-12.33
-16.20
-18.32
-17.85
-15.00
-10.84
-6.76
-3.67
-1.58
0.24
2.60
5.86
9.35
11.99
12.85
11.80
9.67
7.87
7.56
9.11
11.73
14.06
14.99
14.24
12.53
11.19
11.15
12.53
14.29
14.93
13.34
9.50
4.49
-0.04
-2.90
-3.84
-3.73
-3.85
-5.05
-7.27
-9.52
-10.53
-9.45
-6.19
-1.60
3.17
7.17
9.97
11.67
12.73
13.50
14.23
14.77
14.91
14.49
13.50
12.13
10.73
9.60
8.94
8.68
8.55
8.10
6.99
5.03
2.42
-0.38
-2.83
-4.52
-5.41
-5.80
-6.29
-7.38
-9.38
-12.16
-15.27
-18.08
-20.01
-20.70
-20.06
-18.28
-15.65
-12.51
-9.14
-5.73
-2.36
0.89
3.86
6.30
7.94
8.61
8.39
7.62
6.76
6.22
6.20
6.58
7.03
7.25
7.08
6.57
5.87
5.08
4.14
2.92
1.34
-0.56
-2.57
-4.42
-5.94
-7.18
-8.40
-9.92
-12.00
-14.64
-17.53
-20.08
-21.64
-21.74
-20.24
-17.40
-13.79
-10.01
-6.47
-3.25
-0.22
2.76
5.65
8.12
9.76
10.34
9.97
9.15
8.50
8.46
9.11
10.15
11.05
11.36
10.91
9.80
8.35
6.85
5.47
4.14
2.75
1.21
-0.39
-1.86
-3.05
-4.01
-5.04
-6.62
-9.12
-12.60
-16.62
-20.40
-23.05
-23.98
-23.07
-20.70
-17.52
-14.07
-10.60
-7.17
-3.69
-0.23
2.88
5.28
6.81
7.63
8.18
8.81
9.56
10.14
10.21
9.67
8.82
8.27
8.55
9.81
11.67
13.42
14.31
13.92
12.22
9.57
6.65
4.02
2.10
0.97
0.36
-0.13
-0.88
-2.11
-3.78
-6.10
-9.27
-13.49
-18.59
-23.76
-27.66
-28.92
-26.86
-22.07
-16.11
-10.78
-7.24
-5.36
-4.00
-1.84
1.75
6.09
9.71
11.27
10.40
8.07
6.03
5.78
7.81
11.03
13.71
14.39
12.76
9.88
7.45
6.84
8.36
10.91
12.82
12.78
10.53
6.98
3.54
1.34
0.75
1.15
1.48
0.86
-1.05
-3.97
-7.34
-10.69
-13.70
-16.41
-18.81
-20.75
-21.94
-21.99
-20.70
-18.11
-14.47
-10.25
-5.97
-2.10
0.96
3.00
4.04
4.34
4.41
4.78
5.79
7.48
9.49
11.32
12.55
13.07
13.17
13.26
13.65
14.36
15.06
15.24
14.53
12.85
10.51
8.03
5.90
4.36
3.24
2.15
0.72
-1.22
-3.50
-5.77
-7.71
-9.31
-10.88
-12.83
-15.32
-18.13
-20.51
-21.66
-21.02
-18.62
-15.10
-11.27
-7.87
-5.18
-3.01
-0.96
1.22
3.51
5.55
6.99
7.70
7.91
8.19
9.03
10.65
12.79
14.88
16.34
16.83
16.42
15.56
14.71
14.11
13.71
13.14
12.09
10.39
8.18
5.83
3.72
2.03
0.67
-0.73
-2.55
-5.01
-7.94
-10.77
-12.75
-13.26
-12.07
-9.53
-6.28
-3.11
-0.53
1.34
2.66
3.69
4.52
5.01
4.96
4.27
3.08
1.77
0.80
0.48
0.83
1.54
2.20
2.41
1.99
1.05
-0.08
-1.07
-1.69
-2.03
-2.37
-3.05
-4.30
-5.99
-7.81
-9.42
-10.73
-12.01
-13.68
-16.04
-18.89
-21.50
-22.88
-22.20
-19.32
-14.84
-9.88
-5.60
-2.68
-1.06
-0.19
0.57
1.56
2.64
3.34
3.31
2.60
1.71
1.38
2.07
3.73
5.75
7.25
7.59
6.60
4.72
2.61
0.83
-0.46
-1.51
-2.72
-4.34
-6.36
-8.45
-10.33
-11.95
-13.62
-15.85
-18.96
-22.82
-26.76
-29.76
-30.87
-29.64
-26.29
-21.56
-16.41
-11.60
-7.46
-3.91
-0.69
2.37
5.18
7.47
8.92
9.43
9.20
8.69
8.39
8.57
9.17
9.86
10.22
10.00
9.25
8.24
7.32
6.65
6.11
5.35
4.05
2.07
-0.38
-2.87
-4.99
-6.63
-8.05
-9.80
-12.37
-15.90
-19.94
-23.56
-25.71
-25.68
-23.38
-19.35
-14.45
-9.51
-4.99
-1.06
2.26
4.91
6.73
7.55
7.47
6.86
6.38
6.62
7.87
9.94
12.21
13.88
14.35
13.46
11.59
9.40
7.60
6.55
6.11
5.83
5.22
4.07
2.54
0.79
-1.08
-3.25
-6.00
-9.41
-13.03
-16.20
-18.15
-18.61
-17.78
-16.13
-14.05
-11.53
-8.18
-3.76
1.57
6.95
11.24
13.56
13.79
12.66
11.40
11.01
11.88
13.45
14.79
15.15
14.47
13.42
13.05
13.98
16.12
18.39
19.41
18.25
14.94
10.49
6.46
4.00
3.46
4.05
4.46
3.56
1.01
-2.76
-6.70
-9.89
-11.72
-12.18
-11.52
-10.04
-7.90
-5.17
-1.87
1.80
5.59
9.06
11.82
13.61
14.32
14.02
12.99
11.64
10.53
10.07
10.48
11.65
13.23
14.68
15.58
15.72
15.17
14.22
13.16
12.21
11.37
10.45
9.27
7.76
6.01
4.22
2.46
0.64
-1.54
-4.40
-8.02
-11.95
-15.31
-17.05
-16.37
-13.17
-8.11
-2.35
2.93
6.93
9.52
11.06
12.00
12.68
13.10
13.08
12.44
11.30
9.99
9.05
8.84
9.41
10.43
11.32
11.52
10.69
8.92
6.65
4.43
2.68
1.41
0.29
-1.18
-3.34
-6.23
-9.52
-12.77
-15.66
-18.02
-19.85
-20.98
-21.09
-19.73
-16.60
-11.86
-6.10
-0.28
4.72
8.42
10.82
12.30
13.32
14.15
14.77
15.04
14.83
14.22
13.51
13.02
12.93
13.15
13.32
12.99
11.90
10.09
7.96
6.03
4.66
3.86
3.21
2.13
0.10
-3.00
-6.87
-10.88
-14.38
-16.97
-18.50
-19.04
-18.71
-17.51
-15.42
-12.37
-8.49
-4.05
0.50
4.66
8.05
10.52
12.12
13.08
13.53
13.57
13.24
12.64
12.05
11.90
12.59
14.18
16.12
17.52
17.47
15.62
12.39
8.84
6.08
4.77
4.58
4.66
3.98
1.99
-1.11
-4.61
-7.75
-10.06
-11.89
-13.79
-16.15
-18.68
-20.39
-20.02
-16.77
-10.74
-3.43
3.17
7.40
8.73
8.08
7.16
7.52
9.70
12.75
15.03
15.18
13.05
9.84
7.44
7.32
9.78
13.48
16.50
17.23
15.27
11.62
7.95
5.66
5.22
5.86
6.23
5.26
2.68
-0.90
-4.45
-7.20
-8.92
-10.14
-11.57
-13.64
-16.14
-18.30
-19.15
-18.04
-14.87
-10.26
-5.17
-0.60
2.80
4.89
5.92
6.39
6.79
7.37
8.10
8.75
9.01
8.75
8.06
7.21
6.57
6.35
6.48
6.60
6.23
5.05
3.01
0.46
-2.06
-4.05
-5.28
-5.89
-6.26
-6.75
-7.60
-8.83
-10.31
-11.89
-13.49
-15.03
-16.47
-17.61
-18.20
-17.92
-16.50
-13.87
-10.27
-6.16
-2.12
1.31
3.80
5.32
6.09
6.44
6.64
6.82
6.99
7.12
7.15
7.10
7.05
7.07
7.14
7.14
6.84
6.03
4.59
2.62
0.42
-1.59
-3.09
-3.97
-4.52
-5.12
-6.24
-8.02
-10.26
-12.55
-14.50
-15.90
-16.80
-17.27
-17.31
-16.72
-15.15
-12.39
-8.54
-4.12
0.15
3.60
5.90
7.14
7.78
8.33
9.11
10.13
11.11
11.72
11.77
11.33
10.73
10.29
10.21
10.34
10.30
9.70
8.29
6.19
3.87
1.87
0.58
0.03
-0.14
-0.47
-1.45
-3.28
-5.76
-8.51
-11.20
-13.76
-16.38
-19.16
-21.96
-24.25
-25.24
-24.32
-21.38
-16.95
-11.97
-7.38
-3.74
-1.06
1.05
3.07
5.20
7.25
8.76
9.32
8.81
7.54
6.15
5.26
5.23
5.93
6.89
7.47
7.31
6.33
4.90
3.51
2.50
1.92
1.53
1.00
0.11
-1.12
-2.44
-3.58
-4.48
-5.34
-6.57
-8.55
-11.43
-14.94
-18.45
-21.14
-22.35
-21.76
-19.54
-16.18
-12.34
-8.57
-5.06
-1.85
1.14
3.82
5.90
7.02
6.99
6.04
4.83
4.19
4.73
6.50
8.95
11.24
12.66
12.95
12.45
11.70
11.19
10.97
10.76
10.11
8.75
6.85
4.80
3.13
2.03
1.39
0.72
-0.45
-2.32
-4.77
-7.39
-9.77
-11.70
-13.20
-14.33
-15.05
-15.07
-13.99
-11.55
-7.92
-3.69
0.27
3.15
4.61
4.81
4.34
3.84
3.73
4.05
4.53
4.87
4.99
5.08
5.50
6.47
7.89
9.29
10.02
9.61
8.00
5.57
2.97
0.71
-1.05
-2.52
-4.11
-6.10
-8.42
-10.76
-12.77
-14.42
-15.99
-17.92
-20.41
-23.15
-25.28
-25.87
-24.27
-20.68
-15.90
-11.04
-6.94
-3.76
-1.07
1.67
4.74
7.64
9.57
9.88
8.57
6.50
5.03
5.18
7.19
10.10
12.45
13.00
11.43
8.48
5.53
3.72
3.44
3.95
4.11
2.94
0.33
-3.01
-5.91
-7.56
-7.93
-7.94
-8.79
-11.27
-15.24
-19.67
-23.03
-24.14
-22.52
-18.70
-13.78
-8.89
-4.79
-1.74
0.46
2.10
3.43
4.46
5.13
5.38
5.27
4.91
4.51
4.26
4.36
4.85
5.69
6.65
7.34
7.35
6.42
4.57
2.16
-0.27
-2.26
-3.65
-4.66
-5.74
-7.32
-9.59
-12.47
-15.63
-18.78
-21.69
-24.27
-26.38
-27.74
-27.93
-26.54
-23.36
-18.57
-12.75
-6.71
-1.26
2.99
5.82
7.38
8.10
8.44
8.77
9.22
9.69
10.06
10.25
10.34
10.54
10.99
11.56
11.90
11.53
10.12
7.73
4.75
1.83
-0.54
-2.15
-3.20
-4.12
-5.38
-7.27
-9.77
-12.64
-15.56
-18.19
-20.27
-21.61
-22.00
-21.25
-19.14
-15.60
-10.82
-5.30
0.21
4.94
8.34
10.27
11.01
11.08
11.00
11.09
11.35
11.65
11.88
12.05
12.35
12.96
13.90
14.94
15.60
15.42
14.16
11.95
9.34
6.97
5.25
4.22
3.48
2.50
0.90
-1.31
-3.82
-6.31
-8.68
-11.11
-13.82
-16.72
-19.27
-20.51
-19.51
-15.85
-9.96
-2.98
3.60
8.59
11.44
12.39
12.29
11.98
12.07
12.62
13.28
13.60
13.46
13.12
13.09
13.52
14.11
14.17
13.06
10.72
7.82
5.46
4.44
4.65
5.17
4.75
2.65
-0.83
-4.62
-7.53
-9.02
-9.71
-10.80
-13.24
-17.06
-21.01
-23.22
-22.20
-17.50
-10.48
-3.24
2.21
5.04
5.88
6.30
7.73
10.63
13.93
15.93
15.33
12.15
7.95
4.90
4.66
7.46
11.74
15.19
15.93
13.43
8.79
3.93
0.55
-0.63
-0.31
0.05
-0.88
-3.69
-7.92
-12.55
-16.60
-19.50
-21.40
-22.72
-23.68
-24.09
-23.37
-20.91
-16.49
-10.41
-3.56
3.04
8.55
12.52
14.92
16.02
16.22
15.96
15.59
15.38
15.40
15.58
15.77
15.84
15.79
15.73
15.77
15.87
15.79
15.10
13.47
10.78
7.36
3.78
0.62
-1.84
-3.75
-5.65
-8.16
-11.69
-16.23
-21.27
-25.97
-29.42
-30.95
-30.28
-27.59
-23.38
-18.29
-12.89
-7.62
-2.73
1.61
5.18
7.81
9.40
10.01
9.97
9.79
9.94
10.69
11.99
13.55
14.95
15.87
16.24
16.19
15.87
15.42
14.75
13.69
12.06
9.86
7.27
4.60
2.04
-0.40
-2.99
-6.06
-9.86
-14.29
-18.84
-22.68
-24.93
-24.94
-22.62
-18.32
-12.82
-6.93
-1.23
4.01
8.74
12.99
16.60
19.36
20.96
21.39
20.99
20.32
19.97
20.22
20.91
21.59
21.78
21.18
19.92
18.35
16.87
15.64
14.43
12.86
10.58
7.55
4.10
0.86
-1.65
-3.29
-4.47
-5.89
-8.28
-12.00
-16.75
-21.75
-26.01
-28.65
-29.28
-27.89
-24.84
-20.60
-15.61
-10.25
-4.84
0.30
4.80
8.32
10.68
11.98
12.61
13.10
13.94
15.28
16.90
18.39
19.34
19.59
19.35
18.94
18.61
18.34
17.83
16.72
14.86
12.40
9.83
7.65
6.13
5.17
4.29
2.96
0.81
-2.22
-5.84
-9.67
-13.39
-16.82
-19.80
-22.07
-23.18
-22.59
-19.94
-15.29
-9.31
-3.01
2.54
6.60
8.99
10.00
10.21
10.18
10.24
10.50
10.90
11.39
11.90
12.51
13.28
14.20
15.20
16.09
16.56
16.31
15.16
13.15
10.63
8.03
5.76
3.96
2.44
0.82
-1.26
-3.92
-7.03
-10.30
-13.54
-16.70
-19.76
-22.58
-24.71
-25.51
-24.36
-21.07
-16.05
-10.22
-4.64
-0.14
3.00
5.02
6.44
7.73
9.04
10.25
11.05
11.21
10.77
10.06
9.57
9.68
10.42
11.43
12.06
11.75
10.23
7.74
4.70
1.64
-1.13
-3.55
-5.64
-7.37
-8.66
-9.47
-10.09
-11.10
-13.13
-16.49
-20.82
-25.06
-27.86
-28.08
-25.33
-20.10
-13.55
-7.04
-1.67
2.11
4.39
5.69
6.39
6.73
6.73
6.37
5.85
5.66
6.31
8.12
10.69
13.23
14.81
14.98
13.94
12.64
11.95
12.29
13.11
13.33
11.96
8.74
4.39
0.22
-2.68
-4.05
-4.76
-6.20
-9.46
-14.61
-20.52
-25.35
-27.52
-26.29
-22.20
-16.57
-10.77
-5.64
-1.25
2.83
7.00
11.33
15.39
18.54
20.31
20.68
19.98
18.81
17.66
16.89
16.52
16.42
16.35
16.07
15.38
14.17
12.48
10.46
8.41
6.55
4.97
3.53
1.96
-0.01
-2.47
-5.30
-8.25
-11.07
-13.73
-16.42
-19.39
-22.66
-25.85
-28.17
-28.67
-26.71
-22.33
-16.26
-9.70
-3.78
0.86
4.20
6.72
8.91
10.99
12.81
14.06
14.57
14.49
14.26
14.42
15.22
16.52
17.85
18.67
18.60
17.62
15.97
14.04
12.12
10.30
8.48
6.51
4.30
1.89
-0.52
-2.72
-4.61
-6.31
-8.16
-10.57
-13.76
-17.59
-21.44
-24.35
-25.43
-24.14
-20.57
-15.39
-9.50
-3.74
1.36
5.68
9.28
12.23
14.40
15.61
15.72
14.80
13.31
11.84
10.99
11.04
11.85
12.95
13.77
13.91
13.38
12.47
11.54
10.79
10.09
9.14
7.61
5.45
2.92
0.48
-1.49
-2.92
-4.11
-5.61
-7.91
-11.18
-15.07
-18.83
-21.65
-22.85
-22.22
-19.95
-16.49
-12.34
-7.82
-3.18
1.38
5.48
8.66
10.50
10.88
10.14
8.99
8.19
8.18
8.93
10.00
10.81
11.00
10.64
10.16
9.86
9.83
9.74
9.00
7.24
4.53
1.44
-1.26
-3.24
-4.62
-5.95
-7.80
-10.28
-12.98
-15.25
-16.70
-17.64
-18.72
-20.41
-22.51
-23.93
-23.24
-19.52
-13.03
-5.38
1.27
5.27
6.26
5.26
4.00
3.89
5.34
7.38
8.56
7.85
5.36
2.41
0.71
1.41
4.43
8.26
10.87
10.84
7.98
3.53
-0.71
-3.29
-3.79
-3.09
-2.63
-3.58
-6.33
-10.39
-14.83
-18.81
-21.80
-23.76
-24.76
-24.77
-23.56
-20.91
-16.80
-11.57
-5.74
-0.02
5.00
8.97
11.72
13.26
13.75
13.52
13.01
12.68
12.79
13.36
14.06
14.44
14.15
13.14
11.71
10.29
9.20
8.36
7.36
5.71
3.14
-0.23
-3.89
-7.24
-9.95
-12.10
-14.13
-16.61
-19.90
-23.93
-28.09
-31.50
-33.25
-32.77
-30.04
-25.53
-20.06
-14.43
-9.20
-4.55
-0.44
3.22
6.33
8.63
9.84
9.91
9.18
8.24
7.73
8.00
8.98
10.26
11.28
11.69
11.47
10.87
10.18
9.52
8.75
7.65
5.95
3.68
1.08
-1.51
-3.83
-5.88
-7.92
-10.24
-12.99
-15.95
-18.45
-19.69
-19.00
-16.16
-11.63
-6.26
-1.06
3.22
6.36
8.56
10.18
11.44
12.26
12.43
11.75
10.37
8.88
8.01
8.33
9.92
12.23
14.41
15.59
15.39
14.02
12.07
10.21
8.75
7.51
6.06
3.97
1.17
-2.03
-5.10
-7.67
-9.73
-11.69
-13.99
-16.81
-19.80
-22.11
-22.74
-21.01
-16.94
-11.30
-5.29
-0.08
3.62
5.78
6.89
7.53
8.02
8.26
7.93
6.80
5.05
3.31
2.30
2.51
3.79
5.46
6.63
6.66
5.52
3.77
2.15
1.20
0.92
0.75
-0.04
-1.92
-4.84
-8.33
-11.76
-14.72
-17.23
-19.49
-21.62
-23.41
-24.22
-23.30
-20.19
-15.10
-8.90
-2.82
2.03
5.01
6.12
5.91
5.11
4.33
3.87
3.76
3.85
4.00
4.20
4.56
5.13
5.77
6.18
5.96
4.81
2.77
0.13
-2.57
-4.88
-6.61
-7.93
-9.27
-11.11
-13.74
-17.09
-20.72
-23.90
-25.91
-26.23
-24.72
-21.63
-17.48
-12.87
-8.21
-3.73
0.45
4.22
7.31
9.40
10.24
9.87
8.73
7.47
6.68
6.68
7.29
8.05
8.45
8.17
7.27
6.03
4.75
3.49
2.06
0.18
-2.27
-5.11
-7.86
-10.12
-11.82
-13.31
-15.29
-18.23
-22.02
-25.77
-28.14
-27.94
-24.74
-19.21
-12.71
-6.64
-1.82
1.78
4.56
6.89
8.75
9.81
9.83
9.17
8.61
9.05
10.82
13.42
15.79
16.97
16.61
15.24
13.73
12.81
12.43
11.99
10.68
8.12
4.54
0.72
-2.64
-5.26
-7.74
-10.92
-15.38
-20.90
-26.26
-29.75
-29.97
-26.48
-20.30
-13.20
-6.97
-2.50
0.45
3.04
6.33
10.66
15.24
18.73
20.05
19.07
16.74
14.68
14.22
15.82
18.79
21.84
23.70
23.80
22.33
20.05
17.67
15.73
14.20
12.76
11.04
8.81
5.97
2.66
-0.98
-4.81
-8.79
-12.88
-16.98
-20.79
-23.82
-25.44
-25.12
-22.62
-18.18
-12.51
-6.52
-1.12
3.11
6.03
7.90
9.13
10.20
11.36
12.63
13.86
14.74
15.16
15.16
15.01
15.09
15.64
16.62
17.63
18.09
17.50
15.69
12.98
9.98
7.35
5.43
4.10
2.85
1.06
-1.75
-5.59
-10.09
-14.65
-18.58
-21.43
-22.90
-22.86
-21.26
-18.11
-13.51
-7.79
-1.58
4.30
8.99
11.93
12.97
12.52
11.31
10.15
9.58
9.77
10.50
11.42
12.22
12.79
13.19
13.46
13.49
13.07
11.99
10.21
7.93
5.57
3.53
1.98
0.79
-0.45
-2.18
-4.70
-8.04
-11.89
-15.79
-19.16
-21.49
-22.44
-21.90
-19.94
-16.81
-12.84
-8.44
-4.01
0.04
3.38
5.76
7.08
7.48
7.30
6.99
6.98
7.52
8.59
9.96
11.24
12.07
12.29
11.86
10.97
9.81
8.50
7.09
5.58
3.97
2.26
0.30
-2.17
-5.48
-9.85
-15.10
-20.66
-25.60
-29.02
-30.41
-29.83
-27.75
-24.76
-21.25
-17.32
-12.86
-7.74
-2.18
3.34
8.17
11.69
13.61
14.04
13.47
12.64
11.95
11.58
11.43
11.24
10.95
10.71
10.71
11.07
11.28
10.63
8.51
4.85
0.39
-3.58
-5.96
-6.39
-5.82
-5.89
-8.14
-13.10
-19.87
-26.53
-31.07
-32.30
-30.55
-27.15
-23.58
-20.63
-17.99
-14.67
-9.88
-3.57
3.12
8.63
11.79
12.44
11.50
10.42
10.37
11.82
14.24
16.67
18.21
18.49
17.78
16.67
15.75
15.34
15.20
14.86
13.82
11.80
8.94
5.69
2.59
0.07
-1.82
-3.45
-5.37
-8.14
-11.96
-16.52
-21.07
-24.56
-26.07
-25.08
-21.70
-16.59
-10.74
-5.08
-0.17
3.87
7.23
10.10
12.49
14.16
14.86
14.53
13.50
12.39
11.78
12.00
12.85
13.82
14.33
14.06
13.06
11.76
10.60
9.86
9.47
9.11
8.34
6.93
4.90
2.56
0.30
-1.68
-3.46
-5.48
-8.20
-11.88
-16.20
-20.27
-22.94
-23.21
-20.72
-15.94
-9.93
-3.95
1.12
4.97
7.81
10.02
11.85
13.21
13.94
13.89
13.24
12.50
12.24
12.88
14.41
16.47
18.45
19.77
20.13
19.60
18.53
17.28
16.04
14.68
12.94
10.54
7.52
4.28
1.35
-0.92
-2.61
-4.22
-6.44
-9.71
-13.96
-18.47
-22.18
-24.08
-23.56
-20.71
-16.17
-10.89
-5.82
-1.52
1.85
4.48
6.61
8.26
9.31
9.49
8.77
7.50
6.35
6.02
6.86
8.60
10.53
11.81
11.95
11.01
9.48
7.97
6.84
5.96
4.94
3.30
0.86
-2.17
-5.34
-8.24
-10.78
-13.27
-16.17
-19.75
-23.78
-27.46
-29.71
-29.61
-26.86
-21.92
-15.88
-9.95
-5.01
-1.32
1.35
3.44
5.17
6.43
6.91
6.40
5.10
3.66
2.90
3.41
5.20
7.63
9.72
10.59
9.89
7.97
5.54
3.37
1.79
0.63
-0.67
-2.70
-5.73
-9.53
-13.59
-17.41
-20.74
-23.64
-26.21
-28.32
-29.48
-28.96
-26.23
-21.36
-15.12
-8.74
-3.37
0.35
2.52
3.73
4.60
5.43
6.08
6.23
5.77
4.97
4.40
4.63
5.85
7.69
9.35
10.02
9.23
7.09
4.19
1.27
-1.11
-2.89
-4.39
-6.21
-8.87
-12.57
-17.10
-21.87
-26.18
-29.38
-31.04
-30.95
-29.08
-25.54
-20.53
-14.43
-7.74
-1.08
4.91
9.75
13.19
15.27
16.20
16.25
15.65
14.60
13.32
12.06
11.14
10.80
11.10
11.91
12.80
13.26
12.84
11.27
8.65
5.32
1.84
-1.31
-3.86
-5.92
-7.94
-10.47
-13.86
-18.07
-22.48
-26.42
-29.18
-30.30
-29.60
-27.02
-22.52
-16.28
-8.75
-0.84
6.30
11.71
14.96
16.42
17.01
17.62
18.72
20.05
21.01
21.08
20.26
19.09
18.39
18.62
19.71
20.78
20.80
19.11
15.86
11.96
8.66
6.73
6.19
6.07
5.09
2.35
-2.19
-7.76
-13.10
-17.20
-19.56
-20.34
-19.91
-18.56
-16.22
-12.72
-7.93
-2.14
4.06
9.79
14.34
17.34
18.83
19.14
18.77
18.18
17.80
17.88
18.49
19.50
20.60
21.35
21.43
20.74
19.43
17.85
16.29
14.86
13.43
11.72
9.55
6.93
4.09
1.34
-1.04
-3.08
-5.05
-7.45
-10.65
-14.74
-19.32
-23.47
-26.12
-26.37
-23.95
-19.35
-13.60
-7.87
-2.96
0.89
3.87
6.28
8.23
9.55
10.00
9.60
8.75
8.16
8.47
9.91
12.16
14.45
15.95
16.12
14.96
12.91
10.61
8.57
6.91
5.43
3.73
1.52
-1.23
-4.26
-7.24
-9.97
-12.52
-15.27
-18.57
-22.46
-26.45
-29.56
-30.68
-29.07
-24.72
-18.39
-11.28
-4.60
0.91
5.08
8.11
10.21
11.42
11.63
10.77
9.09
7.24
6.00
5.90
6.99
8.72
10.31
11.08
10.79
9.64
8.06
6.46
4.93
3.34
1.47
-0.75
-3.21
-5.63
-7.84
-9.88
-12.15
-15.14
-19.16
-24.04
-28.98
-32.77
-34.15
-32.40
-27.62
-20.76
-13.21
-6.30
-0.75
3.47
6.83
9.87
12.79
15.28
16.88
17.38
17.01
16.40
15.99
15.91
15.83
15.26
14.05
12.57
11.50
11.31
11.72
11.79
10.49
7.29
2.64
-2.15
-5.77
-7.50
-7.81
-7.93
-9.21
-12.42
-17.32
-22.86
-27.68
-30.54
-31.10
-29.52
-26.36
-22.14
-17.10
-11.26
-4.74
2.16
8.43
13.00
15.07
14.69
12.83
11.04
10.63
12.08
14.60
16.77
17.35
16.02
13.57
11.45
10.84
12.07
14.27
16.00
16.06
14.09
10.74
7.17
4.42
2.90
2.12
1.20
-0.73
-4.06
-8.63
-13.85
-19.08
-23.61
-27.00
-28.86
-28.85
-26.79
-22.77
-17.22
-10.80
-4.24
1.83
7.00
11.06
13.91
15.57
16.17
16.05
15.71
15.64
16.08
16.94
17.85
18.38
18.31
17.73
17.02
16.47
16.16
15.79
14.88
13.02
10.13
6.58
3.02
0.10
-1.88
-3.12
-4.23
-6.00
-9.03
-13.46
-18.83
-24.26
-28.71
-31.29
-31.50
-29.26
-24.93
-19.11
-12.49
-5.75
0.51
5.80
9.79
12.32
13.43
13.42
12.86
12.36
12.46
13.39
14.99
16.85
18.43
19.38
19.61
19.30
18.68
17.85
16.74
15.16
12.95
10.14
7.02
3.96
1.30
-0.87
-2.74
-4.67
-7.10
-10.28
-14.10
-18.10
-21.56
-23.70
-23.95
-22.08
-18.34
-13.28
-7.55
-1.74
3.70
8.41
12.01
14.16
14.64
13.52
11.31
8.85
7.02
6.46
7.23
8.96
10.93
12.51
13.34
13.38
12.76
11.61
9.90
7.61
4.76
1.55
-1.60
-4.36
-6.58
-8.49
-10.64
-13.54
-17.46
-22.17
-26.92
-30.64
-32.37
-31.56
-28.32
-23.26
-17.31
-11.38
-6.06
-1.58
2.02
4.75
6.52
7.22
6.84
5.61
4.07
2.87
2.55
3.31
4.93
6.85
8.39
9.08
8.75
7.57
5.85
3.85
1.69
-0.67
-3.33
-6.30
-9.46
-12.63
-15.75
-18.93
-22.37
-26.22
-30.29
-33.96
-36.29
-36.37
-33.66
-28.32
-21.18
-13.47
-6.41
-0.76
3.35
6.27
8.46
10.20
11.43
11.93
11.58
10.64
9.74
9.59
10.57
12.47
14.50
15.69
15.31
13.29
10.17
6.83
4.02
1.98
0.45
-1.15
-3.32
-6.24
-9.72
-13.43
-17.16
-20.86
-24.59
-28.20
-31.20
-32.73
-31.97
-28.48
-22.57
-15.23
-7.83
-1.48
3.36
6.97
9.98
12.89
15.61
17.57
18.08
16.85
14.32
11.53
9.61
9.27
10.43
12.30
13.87
14.42
13.80
12.33
10.41
8.25
5.73
2.64
-1.02
-4.86
-8.32
-11.00
-12.98
-14.98
-17.84
-22.04
-27.23
-32.17
-35.26
-35.21
-31.61
-25.11
-17.06
-8.96
-1.94
3.49
7.40
10.23
12.23
13.61
14.37
14.51
14.24
13.97
14.12
15.02
16.45
17.92
18.82
18.81
18.05
17.20
16.88
17.34
18.06
18.15
16.74
13.66
9.56
5.66
2.93
1.60
0.83
-0.78
-4.35
-10.05
-16.92
-23.25
-27.40
-28.36
-26.27
-21.95
-16.48
-10.64
-4.77
1.18
7.22
13.22
18.68
23.04
25.88
27.16
27.16
26.47
25.70
25.42
25.82
26.79
27.91
28.61
28.41
27.19
25.18
22.90
20.87
19.31
18.02
16.55
14.42
11.49
8.03
4.66
1.97
0.21
-0.83
-1.82
-3.52
-6.47
-10.74
-15.87
-21.01
-25.14
-27.43
-27.42
-25.11
-20.90
-15.44
-9.34
-3.09
3.03
8.81
13.97
18.15
20.94
22.16
21.98
21.02
20.07
19.83
20.56
22.00
23.55
24.57
24.74
24.12
23.12
22.19
21.59
21.24
20.77
19.76
17.96
15.48
12.71
10.07
7.85
5.98
4.15
1.96
-0.81
-4.05
-7.52
-10.96
-14.36
-17.85
-21.51
-25.04
-27.66
-28.38
-26.37
-21.54
-14.64
-7.06
-0.19
5.05
8.48
10.51
11.69
12.36
12.57
12.23
11.41
10.45
9.88
10.14
11.31
12.98
14.48
15.17
14.74
13.31
11.37
9.44
7.87
6.65
5.51
4.09
2.20
-0.09
-2.45
-4.55
-6.25
-7.74
-9.40
-11.68
-14.79
-18.58
-22.52
-25.94
-28.17
-28.75
-27.53
-24.64
-20.38
-15.19
-9.44
-3.56
2.02
6.81
10.28
12.06
12.07
10.67
8.73
7.17
6.74
7.62
9.34
11.10
12.19
12.25
11.45
9.99
8.05
5.63
2.70
-0.53
-3.55
-5.70
-6.60
-6.62
-6.64
-7.68
-10.28
-14.14
-18.29
-21.74
-24.05
-25.68
-27.51
-30.07
-33.01
-34.95
-34.25
-29.87
-22.06
-12.64
-3.96
2.13
5.15
6.09
6.72
8.44
11.66
15.33
17.91
18.27
16.46
13.73
11.81
11.90
14.13
17.28
19.59
19.69
17.28
13.16
8.78
5.34
3.45
2.67
2.14
0.98
-1.16
-4.06
-7.18
-10.02
-12.34
-14.47
-16.94
-20.22
-24.33
-28.72
-32.31
-33.97
-32.81
-28.75
-22.44
-15.09
-7.98
-2.00
2.60
6.08
8.94
11.52
13.82
15.55
16.40
16.29
15.51
14.56
14.00
14.17
15.02
16.18
17.16
17.53
17.06
15.83
14.08
12.11
10.10
8.05
5.81
3.22
0.28
-2.79
-5.59
-7.72
-9.05
-9.85
-10.74
-12.46
-15.45
-19.69
-24.45
-28.68
-31.28
-31.59
-29.56
-25.71
-20.85
-15.67
-10.50
-5.38
-0.26
4.77
9.30
12.80
14.82
15.34
14.87
14.23
14.14
14.97
16.49
18.16
19.33
19.66
19.24
18.46
17.75
17.29
16.89
16.11
14.50
11.91
8.68
5.38
2.66
0.78
-0.48
-1.61
-3.14
-5.36
-8.17
-11.27
-14.35
-17.31
-20.15
-22.75
-24.76
-25.59
-24.58
-21.42
-16.32
-10.04
-3.63
1.99
6.30
9.24
11.11
12.27
12.94
13.19
12.94
12.24
11.31
10.55
10.37
10.96
12.19
13.63
14.68
14.88
14.06
12.38
10.30
8.28
6.65
5.41
4.28
2.91
1.02
-1.39
-4.02
-6.50
-8.57
-10.28
-12.04
-14.38
-17.67
-21.87
-26.34
-30.08
-32.08
-31.68
-28.87
-24.17
-18.46
-12.59
-7.12
-2.28
1.90
5.35
7.90
9.28
9.31
8.14
6.32
4.59
3.66
3.85
4.99
6.53
7.79
8.33
8.10
7.36
6.45
5.54
4.46
2.94
0.75
-2.04
-5.00
-7.60
-9.47
-10.62
-11.46
-12.64
-14.67
-17.75
-21.58
-25.50
-28.67
-30.41
-30.33
-28.35
-24.74
-19.99
-14.58
-9.04
-3.85
0.55
3.72
5.40
5.58
4.54
2.90
1.37
0.53
0.66
1.66
3.14
4.63
5.75
6.33
6.35
5.87
4.93
3.51
1.58
-0.80
-3.46
-6.09
-8.47
-10.46
-12.18
-14.01
-16.41
-19.71
-23.83
-28.26
-32.10
-34.40
-34.53
-32.35
-28.27
-22.99
-17.16
-11.25
-5.50
-0.10
4.56
8.01
9.86
10.07
9.11
7.66
6.46
5.92
6.05
6.70
7.70
9.02
10.62
12.22
13.28
13.18
11.56
8.69
5.36
2.53
0.82
0.02
-0.71
-2.34
-5.48
-10.01
-15.16
-20.07
-24.13
-27.42
-30.24
-32.70
-34.40
-34.37
-31.60
-25.80
-17.60
-8.75
-1.18
3.77
5.94
6.31
6.50
7.66
10.12
12.99
15.02
15.30
13.94
12.02
11.02
11.89
14.56
17.83
20.14
20.31
18.18
14.55
10.71
7.63
5.70
4.50
3.29
1.47
-1.19
-4.59
-8.46
-12.63
-16.92
-21.12
-24.72
-26.98
-27.11
-24.70
-19.90
-13.48
-6.51
-0.06
5.19
8.96
11.28
12.32
12.27
11.36
9.98
8.69
8.06
8.46
9.86
11.79
13.64
14.88
15.39
15.38
15.20
15.02
14.62
13.52
11.35
8.09
4.20
0.42
-2.64
-4.82
-6.42
-8.12
-10.50
-13.88
-18.06
-22.48
-26.34
-28.85
-29.37
-27.55
-23.44
-17.46
-10.33
-2.88
4.07
9.94
14.35
17.16
18.45
18.43
17.51
16.25
15.20
14.79
15.16
16.09
17.16
17.92
18.09
17.66
16.77
15.53
13.96
11.93
9.28
5.98
2.27
-1.43
-4.68
-7.22
-9.16
-10.95
-13.18
-16.30
-20.36
-24.83
-28.81
-31.29
-31.55
-29.37
-25.15
-19.63
-13.60
-7.70
-2.29
2.38
6.11
8.63
9.78
9.59
8.52
7.28
6.61
6.93
8.20
9.99
11.67
12.78
13.15
12.86
12.09
10.92
9.29
7.09
4.34
1.22
-1.85
-4.61
-6.96
-9.15
-11.69
-15.02
-19.27
-24.10
-28.70
-32.16
-33.77
-33.20
-30.55
-26.22
-20.73
-14.58
-8.10
-1.66
4.37
9.60
13.62
16.17
17.31
17.41
17.12
16.90
17.06
17.60
18.29
19.00
19.74
20.62
21.69
22.42
22.08
19.98
16.00
10.86
5.89
2.34
0.67
0.12
-0.80
-3.57
-8.74
-15.66
-22.79
-28.51
-31.79
-32.74
-32.04
-30.36
-27.83
-23.96
-18.11
-10.22
-1.04
7.67
14.09
17.14
17.06
15.25
13.65
13.68
15.79
19.12
22.29
24.17
24.46
23.74
22.98
22.91
23.66
24.65
25.05
24.27
22.16
19.06
15.53
12.00
8.80
5.89
3.11
0.23
-3.00
-6.74
-11.05
-15.77
-20.43
-24.36
-26.85
-27.32
-25.57
-21.75
-16.39
-10.13
-3.60
2.70
8.33
12.91
16.13
17.78
17.94
17.01
15.75
14.96
15.19
16.58
18.74
21.00
22.71
23.50
23.41
22.75
21.90
21.04
20.00
18.47
16.16
13.06
9.53
6.14
3.40
1.45
-0.01
-1.55
-3.79
-7.06
-11.29
-16.11
-20.98
-25.38
-28.81
-30.73
-30.69
-28.31
-23.58
-16.89
-9.13
-1.37
5.33
10.31
13.40
14.88
15.33
15.35
15.46
15.90
16.73
17.83
19.00
20.08
20.95
21.56
21.86
21.75
21.11
19.78
17.66
14.79
11.44
8.01
4.87
2.28
0.15
-1.74
-3.73
-6.01
-8.64
-11.60
-14.92
-18.61
-22.68
-26.82
-30.37
-32.36
-31.80
-28.14
-21.59
-13.17
-4.44
3.12
8.46
11.35
12.22
11.90
11.12
10.35
9.68
9.07
8.56
8.37
8.83
10.12
12.11
14.31
15.96
16.41
15.34
12.91
9.73
6.52
3.86
1.94
0.47
-1.05
-3.08
-5.85
-9.22
-12.93
-16.80
-20.85
-25.17
-29.62
-33.63
-36.18
-36.22
-33.08
-26.95
-18.82
-10.22
-2.50
3.51
7.75
10.66
12.81
14.57
15.94
16.73
16.80
16.26
15.49
15.11
15.58
16.96
18.89
20.62
21.41
20.77
18.72
15.73
12.46
9.40
6.72
4.20
1.47
-1.74
-5.39
-9.18
-12.79
-16.12
-19.40
-23.07
-27.39
-32.15
-36.47
-39.05
-38.69
-34.85
-27.95
-19.26
-10.42
-2.79
2.98
7.03
9.93
12.21
14.09
15.38
15.82
15.37
14.37
13.51
13.46
14.55
16.56
18.80
20.47
20.98
20.22
18.51
16.34
14.07
11.80
9.35
6.52
3.28
-0.18
-3.44
-6.25
-8.61
-10.89
-13.63
-17.28
-21.92
-27.08
-31.82
-35.01
-35.71
-33.49
-28.65
-22.03
-14.70
-7.52
-0.93
4.96
10.14
14.44
17.47
18.85
18.55
17.13
15.57
14.92
15.79
17.98
20.75
23.17
24.61
24.98
24.42
23.19
21.41
19.12
16.45
13.73
11.35
9.58
8.16
6.57
4.23
0.93
-3.01
-6.94
-10.39
-13.34
-16.34
-20.00
-24.40
-28.75
-31.53
-31.18
-26.87
-19.00
-9.30
0.03
7.14
11.32
13.08
13.70
14.31
15.43
16.59
16.97
16.08
14.20
12.31
11.71
13.10
16.27
20.07
23.00
23.98
22.80
20.14
17.06
14.43
12.56
11.14
9.58
7.43
4.61
1.33
-2.05
-5.27
-8.25
-11.18
-14.31
-17.91
-22.06
-26.60
-30.96
-34.31
-35.64
-34.23
-29.90
-23.17
-15.19
-7.32
-0.65
4.24
7.30
8.86
9.30
8.93
7.91
6.42
4.77
3.42
2.90
3.59
5.53
8.36
11.38
13.74
14.80
14.29
12.43
9.78
6.96
4.45
2.33
0.35
-1.83
-4.47
-7.53
-10.79
-14.01
-17.17
-20.47
-24.14
-28.14
-31.90
-34.43
-34.61
-31.77
-26.02
-18.37
-10.30
-3.25
1.93
5.13
6.88
7.86
8.54
9.02
9.12
8.67
7.73
6.70
6.10
6.39
7.64
9.53
11.39
12.51
12.40
10.99
8.61
5.82
3.07
0.56
-1.82
-4.30
-7.02
-9.89
-12.69
-15.33
-17.96
-21.02
-24.86
-29.38
-33.77
-36.69
-36.77
-33.29
-26.56
-17.82
-8.77
-0.89
5.06
9.10
11.70
13.37
14.35
14.66
14.22
13.15
11.88
10.96
10.91
11.87
13.56
15.38
16.64
16.86
15.93
14.18
12.10
10.12
8.40
6.79
4.95
2.67
-0.05
-2.95
-5.86
-8.80
-12.07
-16.07
-21.00
-26.61
-32.15
-36.55
-38.87
-38.51
-35.43
-30.09
-23.20
-15.59
-7.99
-0.86
5.39
10.49
14.19
16.34
16.97
16.45
15.38
14.51
14.16
14.31
14.56
14.51
14.12
13.73
13.83
14.68
15.68
15.84
14.24
10.60
5.70
0.99
-2.22
-3.42
-3.38
-3.53
-5.21
-8.92
-14.06
-19.34
-23.61
-26.35
-28.02
-29.32
-30.58
-31.28
-30.22
-26.26
-19.09
-9.60
0.24
8.32
13.33
15.22
15.08
14.42
14.39
15.46
17.26
19.10
20.44
21.13
21.40
21.64
22.11
22.88
23.67
24.04
23.61
22.13
19.67
16.50
13.05
9.81
7.02
4.76
2.84
0.96
-1.13
-3.63
-6.62
-10.09
-14.03
-18.39
-22.96
-27.32
-30.75
-32.42
-31.67
-28.23
-22.41
-15.05
-7.24
-0.09
5.62
9.49
11.54
12.16
11.91
11.38
11.08
11.28
12.03
13.22
14.71
16.39
18.22
20.07
21.68
22.67
22.68
21.52
19.30
16.47
13.50
10.77
8.37
6.16
3.95
1.63
-0.77
-3.08
-5.27
-7.54
-10.27
-13.89
-18.47
-23.58
-28.23
-31.12
-31.17
-27.97
-21.99
-14.48
-6.94
-0.60
3.91
6.70
8.25
9.10
9.54
9.63
9.42
9.04
8.83
9.24
10.55
12.66
15.15
17.30
18.53
18.46
17.14
14.97
12.44
9.98
7.73
5.56
3.25
0.59
-2.47
-5.81
-9.27
-12.82
-16.59
-20.85
-25.63
-30.59
-34.92
-37.45
-37.15
-33.54
-27.00
-18.70
-10.17
-2.70
3.02
7.04
9.84
11.85
13.19
13.65
13.00
11.33
9.16
7.37
6.76
7.68
9.85
12.42
14.40
15.05
14.07
11.74
8.64
5.38
2.34
-0.38
-2.90
-5.37
-7.90
-10.45
-13.07
-15.90
-19.26
-23.45
-28.47
-33.80
-38.36
-40.77
-39.90
-35.36
-27.71
-18.40
-9.08
-1.12
4.87
9.07
12.11
14.56
16.67
18.28
19.12
19.04
18.31
17.52
17.22
17.69
18.78
19.94
20.60
20.36
19.19
17.39
15.32
13.24
11.18
8.94
6.33
3.28
-0.11
-3.56
-6.82
-9.82
-12.79
-16.17
-20.37
-25.51
-31.13
-36.21
-39.43
-39.69
-36.57
-30.58
-22.89
-14.91
-7.71
-1.67
3.34
7.71
11.64
14.98
17.40
18.73
19.18
19.35
19.89
21.18
23.07
24.98
26.25
26.52
25.84
24.66
23.38
22.13
20.64
18.46
15.28
11.20
6.79
2.71
-0.54
-2.89
-4.73
-6.61
-8.99
-12.12
-16.00
-20.53
-25.48
-30.37
-34.41
-36.63
-36.13
-32.52
-26.16
-18.10
-9.65
-1.99
4.24
8.92
12.27
14.58
16.12
17.01
17.49
17.90
18.61
19.91
21.90
24.31
26.66
28.27
28.66
27.71
25.75
23.47
21.64
20.64
20.33
19.97
18.65
15.80
11.52
6.60
2.14
-1.07
-2.93
-4.23
-6.17
-9.71
-15.07
-21.47
-27.46
-31.55
-32.70
-30.94
-26.97
-21.85
-16.43
-11.10
-5.74
-0.22
5.39
10.49
14.24
16.02
15.84
14.43
13.04
12.78
14.20
17.00
20.22
22.82
24.07
23.84
22.49
20.57
18.60
16.73
14.91
12.94
10.62
7.85
4.75
1.51
-1.50
-4.05
-6.07
-7.75
-9.57
-12.09
-15.67
-20.27
-25.31
-29.74
-32.39
-32.40
-29.52
-24.24
-17.57
-10.72
-4.59
0.47
4.51
7.83
10.55
12.52
13.49
13.33
12.31
11.11
10.50
10.95
12.38
14.21
15.64
16.06
15.33
13.74
11.81
9.95
8.23
6.43
4.21
1.37
-1.99
-5.50
-8.79
-11.63
-14.20
-16.96
-20.42
-24.86
-30.00
-35.05
-38.92
-40.59
-39.51
-35.73
-29.85
-22.73
-15.22
-7.95
-1.31
4.43
9.07
12.43
14.45
15.23
15.18
14.85
14.82
15.46
16.80
18.54
20.15
21.19
21.45
20.99
20.04
18.81
17.28
15.25
12.53
9.12
5.34
1.65
-1.56
-4.21
-6.57
-9.12
-12.31
-16.33
-21.05
-26.07
-30.80
-34.56
-36.69
-36.64
-34.16
-29.38
-22.81
-15.30
-7.77
-0.98
4.56
8.69
11.51
13.26
14.35
15.19
16.12
17.32
18.69
19.97
20.84
21.11
20.94
20.57
20.34
20.27
20.03
19.11
17.16
14.20
10.73
7.21
3.91
0.70
-2.77
-6.71
-10.84
-14.67
-17.76
-20.31
-23.06
-26.75
-31.54
-36.49
-39.79
-39.64
-35.23
-27.42
-18.22
-9.94
-3.98
-0.32
2.26
5.13
9.03
13.27
16.50
17.49
16.09
13.49
11.56
11.81
14.58
18.60
21.94
23.07
21.67
18.78
16.11
14.89
15.25
15.97
15.41
12.48
7.33
1.29
-3.92
-7.09
-8.12
-8.18
-8.90
-11.55
-16.43
-22.74
-28.96
-33.50
-35.13
-33.51
-28.99
-22.40
-14.82
-7.18
-0.18
5.86
10.93
15.02
18.12
20.12
20.92
20.64
19.67
18.67
18.32
19.00
20.58
22.49
23.94
24.32
23.49
21.79
19.79
18.02
16.60
15.29
13.63
11.23
8.06
4.41
0.78
-2.35
-4.82
-6.80
-8.72
-11.13
-14.42
-18.68
-23.57
-28.37
-32.09
-33.80
-32.90
-29.35
-23.68
-16.80
-9.67
-3.06
2.57
7.00
10.14
11.94
12.42
11.84
10.69
9.66
9.31
9.97
11.52
13.54
15.44
16.79
17.40
17.32
16.75
15.88
14.76
13.35
11.51
9.16
6.39
3.45
0.65
-1.80
-3.93
-5.96
-8.30
-11.32
-15.06
-19.28
-23.46
-26.97
-29.26
-29.92
-28.74
-25.64
-20.70
-14.21
-6.83
0.56
6.93
11.46
13.73
13.87
12.51
10.49
8.54
7.17
6.50
6.46
6.87
7.55
8.38
9.17
9.69
9.63
8.62
6.53
3.44
-0.27
-4.00
-7.20
-9.61
-11.33
-12.85
-14.71
-17.37
-20.94
-25.20
-29.68
-33.77
-36.88
-38.47
-38.08
-35.45
-30.63
-23.99
-16.25
-8.34
-1.17
4.53
8.34
10.22
10.45
9.57
8.22
6.97
6.25
6.13
6.54
7.24
8.03
8.84
9.60
10.23
10.50
10.05
8.58
5.99
2.49
-1.37
-4.98
-7.93
-10.18
-12.11
-14.34
-17.42
-21.55
-26.46
-31.47
-35.66
-38.18
-38.39
-36.06
-31.30
-24.64
-16.84
-8.78
-1.38
4.67
8.99
11.53
12.57
12.55
12.00
11.39
11.03
11.07
11.50
12.15
12.84
13.37
13.65
13.59
13.11
12.13
10.55
8.37
5.74
2.92
0.25
-2.08
-4.11
-6.08
-8.39
-11.35
-15.11
-19.54
-24.23
-28.60
-31.92
-33.50
-32.81
-29.66
-24.28
-17.30
-9.57
-2.05
4.51
9.58
12.98
14.79
15.36
15.14
14.68
14.42
14.65
15.36
16.36
17.35
18.06
18.46
18.60
18.62
18.54
18.20
17.32
15.66
13.15
10.02
6.60
3.21
0.01
-3.00
-5.94
-8.92
-12.06
-15.37
-18.89
-22.50
-25.87
-28.39
-29.30
-27.94
-24.04
-17.95
-10.58
-3.09
3.46
8.41
11.58
13.22
13.79
13.84
13.74
13.75
13.98
14.46
15.26
16.53
18.31
20.56
22.81
24.43
24.80
23.67
21.33
18.59
16.21
14.61
13.48
12.04
9.55
5.76
1.10
-3.55
-7.48
-10.57
-13.38
-16.68
-20.77
-25.01
-28.01
-28.18
-24.66
-17.72
-8.78
0.23
7.70
12.93
16.06
17.83
18.90
19.69
20.17
20.20
19.77
19.08
18.50
18.37
18.78
19.65
20.62
21.24
21.11
19.99
17.81
14.81
11.36
7.92
4.85
2.26
0.08
-1.94
-4.09
-6.62
-9.68
-13.31
-17.47
-21.96
-26.42
-30.30
-32.91
-33.59
-31.86
-27.65
-21.32
-13.63
-5.63
1.65
7.39
11.15
12.92
13.04
12.04
10.54
9.02
7.81
7.07
6.84
7.08
7.74
8.75
9.97
11.18
11.98
11.95
10.77
8.44
5.33
2.06
-0.78
-2.95
-4.65
-6.46
-9.00
-12.60
-17.17
-22.23
-27.11
-31.19
-33.96
-35.04
-34.15
-31.11
-25.95
-19.08
-11.22
-3.36
3.55
8.79
12.06
13.43
13.28
12.14
10.52
8.89
7.61
6.93
6.98
7.73
9.02
10.49
11.70
12.21
11.72
10.15
7.70
4.76
1.74
-1.07
-3.59
-5.96
-8.54
-11.65
-15.56
-20.30
-25.58
-30.79
-35.07
-37.53
-37.47
-34.63
-29.30
-22.26
-14.50
-6.99
-0.45
4.77
8.53
10.88
11.96
11.98
11.32
10.46
9.91
10.04
10.92
12.32
13.81
14.97
15.54
15.48
14.87
13.77
12.17
9.96
7.14
3.85
0.49
-2.65
-5.39
-7.96
-10.87
-14.66
-19.52
-25.04
-30.24
-34.08
-35.70
-34.75
-31.43
-26.18
-19.50
-11.88
-3.81
3.90
10.34
14.71
16.67
16.58
15.43
14.31
13.99
14.42
15.07
15.27
14.76
13.85
13.19
13.30
14.13
14.79
14.19
11.57
7.07
1.75
-2.91
-5.85
-6.89
-7.03
-7.85
-10.61
-15.68
-22.30
-28.99
-34.22
-36.94
-36.99
-34.77
-30.89
-25.80
-19.75
-12.84
-5.36
2.25
9.22
14.83
18.59
20.36
20.48
19.61
18.52
17.99
18.37
19.61
21.26
22.69
23.37
23.09
22.03
20.60
19.15
17.73
16.16
14.07
11.23
7.68
3.76
-0.06
-3.47
-6.46
-9.42
-12.89
-17.31
-22.65
-28.28
-33.03
-35.57
-34.94
-30.89
-24.08
-15.79
-7.51
-0.35
5.20
9.20
12.01
13.91
14.97
15.19
14.65
13.71
12.97
12.95
13.92
15.67
17.69
19.37
20.26
20.18
19.24
17.67
15.67
13.36
10.77
7.94
4.87
1.68
-1.41
-4.17
-6.45
-8.31
-10.10
-12.35
-15.54
-19.78
-24.56
-28.83
-31.34
-31.04
-27.66
-21.62
-14.00
-5.98
1.52
8.03
13.39
17.56
20.37
21.66
21.41
20.02
18.35
17.39
17.89
19.95
22.97
25.98
28.04
28.68
28.04
26.65
25.03
23.39
21.56
19.20
16.07
12.20
8.02
4.05
0.64
-2.15
-4.67
-7.41
-10.83
-15.06
-19.83
-24.47
-28.14
-29.99
-29.48
-26.47
-21.24
-14.43
-6.84
0.71
7.50
12.93
16.56
18.21
17.97
16.29
13.96
11.85
10.70
10.85
12.15
14.10
16.08
17.58
18.42
18.65
18.39
17.71
16.55
14.76
12.29
9.25
5.98
2.84
0.08
-2.29
-4.47
-6.81
-9.62
-13.07
-17.12
-21.51
-25.78
-29.33
-31.50
-31.72
-29.64
-25.26
-18.97
-11.52
-3.85
3.08
8.51
11.96
13.34
12.93
11.36
9.40
7.81
7.09
7.37
8.44
9.92
11.45
12.82
13.93
14.61
14.61
13.55
11.19
7.62
3.35
-0.84
-4.27
-6.64
-8.24
-9.75
-11.92
-15.22
-19.72
-24.98
-30.33
-34.97
-38.12
-39.13
-37.53
-33.23
-26.57
-18.31
-9.53
-1.33
5.40
10.21
13.09
14.31
14.31
13.52
12.33
11.06
10.03
9.52
9.74
10.68
12.14
13.73
14.90
15.20
14.31
12.21
9.16
5.61
2.08
-1.05
-3.68
-5.99
-8.37
-11.33
-15.25
-20.22
-25.92
-31.76
-36.82
-40.20
-41.18
-39.42
-34.91
-28.11
-19.79
-11.05
-2.96
3.63
8.33
11.31
13.21
14.70
16.20
17.59
18.46
18.43
17.58
16.48
16.00
16.73
18.67
21.04
22.72
22.73
20.71
17.06
12.68
8.49
5.02
2.05
-1.01
-4.74
-9.31
-14.37
-19.21
-23.33
-26.60
-29.49
-32.43
-35.37
-37.46
-37.36
-33.82
-26.61
-16.62
-5.86
3.52
10.05
13.47
14.60
14.78
15.08
15.94
17.14
18.13
18.58
18.60
18.64
19.23
20.56
22.42
24.16
25.11
24.80
23.21
20.61
17.49
14.26
11.21
8.39
5.75
3.15
0.45
-2.60
-6.21
-10.58
-15.73
-21.42
-27.11
-31.93
-34.92
-35.28
-32.67
-27.35
-20.12
-12.12
-4.44
2.09
7.03
10.33
12.16
12.87
12.91
12.78
12.99
13.87
15.47
17.52
19.51
21.01
21.77
21.86
21.52
20.96
20.16
18.92
16.94
14.14
10.72
7.21
4.11
1.74
0.03
-1.44
-3.24
-5.81
-9.34
-13.65
-18.31
-22.71
-26.13
-27.87
-27.35
-24.24
-18.62
-11.01
-2.37
6.11
13.33
18.48
21.27
21.92
21.04
19.44
17.84
16.72
16.26
16.37
16.87
17.56
18.31
19.05
19.66
19.99
19.78
18.79
16.89
14.17
10.93
7.62
4.66
2.24
0.29
-1.47
-3.41
-5.75
-8.58
-11.80
-15.30
-18.98
-22.71
-26.18
-28.77
-29.67
-28.06
-23.54
-16.46
-7.83
0.86
8.20
13.29
15.92
16.51
15.77
14.41
12.93
11.58
10.51
9.86
9.82
10.55
11.94
13.66
15.11
15.66
14.93
12.93
10.12
7.13
4.49
2.36
0.52
-1.47
-3.96
-7.01
-10.34
-13.50
-16.28
-18.76
-21.30
-24.22
-27.48
-30.40
-31.89
-30.82
-26.80
-20.31
-12.62
-5.24
0.76
5.09
8.06
10.19
11.47
11.53
9.85
6.50
2.38
-0.89
-1.86
0.04
3.97
8.16
10.85
11.09
9.27
6.65
4.52
3.46
2.88
1.60
-1.32
-5.94
-11.30
-15.98
-19.06
-20.62
-21.96
-24.56
-29.15
-35.05
-40.22
-42.27
-39.64
-32.30
-21.99
-11.23
-2.27
3.77
7.08
8.67
9.59
10.50
11.34
11.73
11.38
10.43
9.36
8.85
9.37
11.00
13.29
15.43
16.60
16.17
14.01
10.48
6.31
2.32
-0.95
-3.40
-5.38
-7.49
-10.24
-13.89
-18.38
-23.37
-28.46
-33.12
-36.78
-38.81
-38.59
-35.73
-30.35
-23.05
-14.86
-6.92
-0.09
5.15
8.77
10.98
12.10
12.48
12.50
12.49
12.74
13.39
14.42
15.65
16.86
17.90
18.67
19.04
18.86
17.88
15.97
13.16
9.76
6.25
3.04
0.29
-2.15
-4.68
-7.73
-11.60
-16.33
-21.66
-27.07
-31.83
-35.15
-36.33
-34.96
-31.04
-25.05
-17.77
-10.03
-2.54
4.22
9.95
14.46
17.60
19.36
19.96
19.83
19.53
19.51
19.93
20.64
21.38
21.91
22.24
22.52
22.81
23.03
22.79
21.70
19.57
16.52
13.03
9.62
6.61
3.99
1.42
-1.51
-5.12
-9.45
-14.29
-19.25
-23.79
-27.34
-29.38
-29.40
-27.12
-22.60
-16.21
-8.69
-0.90
6.27
12.15
16.32
18.73
19.63
19.52
18.99
18.59
18.68
19.31
20.33
21.46
22.43
23.11
23.49
23.55
23.24
22.41
20.97
18.90
16.40
13.76
11.25
9.01
6.91
4.69
2.03
-1.33
-5.43
-10.15
-15.23
-20.30
-24.85
-28.31
-30.02
-29.48
-26.44
-21.09
-14.04
-6.20
1.42
7.93
12.78
15.81
17.17
17.36
16.94
16.45
16.26
16.45
16.93
17.50
18.04
18.56
19.11
19.68
20.08
19.96
18.97
16.94
14.04
10.72
7.56
4.94
2.94
1.25
-0.58
-2.94
-6.00
-9.63
-13.62
-17.65
-21.44
-24.61
-26.65
-26.93
-24.92
-20.49
-14.08
-6.68
0.47
6.24
10.01
11.79
12.02
11.39
10.46
9.56
8.82
8.23
7.88
7.86
8.32
9.23
10.32
11.07
10.92
9.47
6.70
2.98
-1.05
-4.79
-7.85
-10.22
-12.17
-14.15
-16.58
-19.77
-23.83
-28.61
-33.67
-38.26
-41.38
-42.09
-39.86
-34.73
-27.38
-18.94
-10.56
-3.17
2.69
6.82
9.25
10.10
9.69
8.42
6.91
5.75
5.38
5.94
7.30
9.04
10.67
11.62
11.45
9.93
7.19
3.73
0.30
-2.49
-4.38
-5.73
-7.32
-9.91
-13.88
-18.99
-24.46
-29.36
-32.92
-34.79
-34.87
-33.22
-29.85
-24.78
-18.12
-10.39
-2.39
4.72
9.98
12.91
13.70
13.07
12.05
11.40
11.49
12.08
12.72
13.05
13.05
13.00
13.29
14.02
14.94
15.43
14.89
13.00
9.96
6.28
2.63
-0.61
-3.40
-6.08
-9.16
-13.05
-17.88
-23.42
-28.99
-33.59
-36.09
-35.64
-31.93
-25.44
-17.25
-8.78
-1.20
4.86
9.44
12.91
15.65
17.78
19.10
19.39
18.70
17.49
16.46
16.30
17.27
19.07
20.96
22.04
21.70
19.80
16.78
13.41
10.40
8.09
6.32
4.52
2.08
-1.35
-5.67
-10.45
-15.15
-19.41
-23.04
-26.00
-28.09
-28.82
-27.62
-24.07
-18.23
-10.80
-2.90
4.28
9.89
13.62
15.70
16.68
17.08
17.25
17.33
17.31
17.25
17.23
17.43
18.03
18.99
20.08
20.83
20.76
19.52
17.15
14.06
10.89
8.21
6.26
4.82
3.40
1.50
-1.14
-4.46
-8.16
-11.93
-15.51
-18.60
-20.81
-21.55
-20.25
-16.57
-10.77
-3.63
3.71
10.15
15.01
18.11
19.70
20.20
20.03
19.46
18.63
17.68
16.76
16.07
15.74
15.81
16.13
16.38
16.17
15.16
13.22
10.47
7.30
4.17
1.49
-0.58
-2.15
-3.61
-5.45
-8.08
-11.69
-16.05
-20.70
-24.91
-27.93
-29.28
-28.65
-26.01
-21.54
-15.61
-8.96
-2.50
2.81
6.28
7.80
7.88
7.38
7.10
7.31
7.73
7.87
7.48
6.79
6.43
6.99
8.57
10.51
11.74
11.35
9.04
5.33
1.25
-2.19
-4.42
-5.80
-7.13
-9.31
-12.87
-17.65
-22.96
-27.87
-31.60
-33.95
-34.99
-34.85
-33.41
-30.26
-24.95
-17.45
-8.45
0.53
7.82
12.20
13.53
12.70
11.25
10.48
10.99
12.39
13.76
14.30
13.81
12.81
12.07
12.09
12.81
13.44
13.04
11.05
7.64
3.62
-0.07
-2.82
-4.58
-5.97
-7.83
-10.80
-15.13
-20.50
-26.25
-31.41
-34.93
-35.94
-33.99
-29.22
-22.43
-14.78
-7.44
-1.15
3.94
8.07
11.55
14.44
16.49
17.43
17.21
16.24
15.25
15.00
15.82
17.50
19.37
20.62
20.73
19.61
17.70
15.57
13.68
12.10
10.50
8.46
5.67
2.19
-1.59
-5.24
-8.50
-11.54
-14.84
-18.85
-23.65
-28.66
-32.71
-34.49
-33.12
-28.54
-21.58
-13.59
-5.94
0.52
5.66
9.83
13.45
16.66
19.27
20.98
21.68
21.65
21.51
21.90
23.09
24.91
26.71
27.79
27.67
26.35
24.21
21.81
19.54
17.43
15.23
12.61
9.38
5.66
1.83
-1.63
-4.43
-6.62
-8.57
-10.78
-13.71
-17.48
-21.68
-25.50
-27.88
-27.91
-25.17
-19.86
-12.81
-5.12
2.24
8.63
13.81
17.74
20.42
21.80
21.91
20.95
19.46
18.11
17.50
17.84
18.85
20.02
20.78
20.79
20.11
18.98
17.66
16.20
14.41
12.03
8.98
5.41
1.78
-1.40
-3.89
-5.77
-7.57
-9.85
-13.06
-17.21
-21.92
-26.54
-30.35
-32.72
-33.27
-31.77
-28.29
-23.09
-16.66
-9.64
-2.80
3.13
7.55
10.12
10.86
10.15
8.63
7.04
5.98
5.72
6.22
7.18
8.22
9.07
9.68
10.03
10.07
9.68
8.58
6.61
3.82
0.55
-2.71
-5.52
-7.71
-9.46
-11.24
-13.54
-16.72
-20.79
-25.43
-30.03
-33.83
-36.06
-36.13
-33.75
-29.05
-22.56
-15.05
-7.37
-0.30
5.58
9.86
12.35
13.03
12.20
10.43
8.51
7.16
6.82
7.52
8.89
10.44
11.74
12.59
12.94
12.71
11.79
9.94
7.09
3.44
-0.49
-4.06
-6.81
-8.68
-10.05
-11.62
-14.06
-17.73
-22.55
-27.93
-33.01
-36.80
-38.49
-37.63
-34.24
-28.76
-21.94
-14.66
-7.67
-1.52
3.43
7.03
9.28
10.33
10.45
9.97
9.31
8.78
8.64
9.03
10.02
11.52
13.31
14.96
15.98
15.97
14.78
12.65
10.07
7.56
5.48
3.87
2.53
1.10
-0.72
-3.17
-6.32
-10.18
-14.63
-19.52
-24.53
-29.08
-32.43
-33.70
-32.16
-27.61
-20.41
-11.78
-3.29
3.67
8.34
10.89
12.18
13.22
14.63
16.30
17.65
18.13
17.66
16.75
16.26
16.81
18.39
20.27
21.38
20.92
18.84
15.77
12.76
10.56
9.35
8.58
7.41
5.24
2.05
-1.62
-5.00
-7.66
-9.68
-11.69
-14.40
-18.02
-22.09
-25.52
-26.99
-25.59
-21.08
-14.13
-5.98
2.02
8.78
13.73
16.79
18.24
18.50
17.94
16.90
15.64
14.39
13.41
12.90
12.98
13.61
14.62
15.70
16.50
16.66
15.93
14.25
11.76
8.82
5.88
3.31
1.21
-0.58
-2.45
-4.79
-7.81
-11.44
-15.47
-19.59
-23.56
-27.13
-29.94
-31.44
-31.02
-28.21
-23.02
-16.02
-8.35
-1.21
4.35
7.86
9.32
9.14
7.87
6.04
4.11
2.42
1.25
0.75
1.00
1.95
3.40
5.05
6.51
7.36
7.27
6.11
3.98
1.26
-1.61
-4.27
-6.61
-8.78
-11.15
-14.07
-17.80
-22.31
-27.25
-32.04
-35.90
-38.05
-37.92
-35.30
-30.43
-23.87
-16.41
-8.83
-1.82
4.10
8.53
11.26
12.26
11.75
10.23
8.33
6.67
5.68
5.49
5.99
6.92
7.98
8.88
9.39
9.28
8.40
6.73
4.37
1.59
-1.30
-4.05
-6.62
-9.12
-11.87
-15.10
-18.97
-23.38
-27.96
-32.12
-35.14
-36.30
-35.16
-31.58
-25.90
-18.75
-10.96
-3.31
3.52
9.04
12.93
15.03
15.39
14.32
12.49
10.62
9.43
9.32
10.23
11.81
13.59
15.16
16.25
16.56
15.80
13.73
10.31
5.97
1.53
-2.10
-4.40
-5.69
-6.91
-9.20
-13.28
-18.98
-25.34
-31.07
-35.14
-37.27
-37.63
-36.56
-34.19
-30.27
-24.48
-16.93
-8.27
0.05
6.58
10.38
11.47
10.84
9.95
9.94
11.29
13.37
15.20
15.99
15.62
14.78
14.41
15.13
16.82
18.45
18.78
16.99
13.19
8.38
3.91
0.75
-0.82
-1.48
-2.28
-4.15
-7.46
-11.93
-16.81
-21.23
-24.37
-25.76
-25.18
-22.67
-18.53
-13.18
-7.21
-1.17
4.54
9.54
13.60
16.53
18.22
18.69
18.20
17.22
16.38
16.18
16.88
18.36
20.15
21.70
22.56
22.54
21.75
20.39
18.65
16.55
14.02
10.98
7.52
3.86
0.31
-2.92
-5.80
-8.54
-11.55
-15.13
-19.28
-23.54
-27.03
-28.71
-27.81
-24.11
-18.12
-10.90
-3.68
2.60
7.57
11.34
14.28
16.63
18.34
19.22
19.10
18.22
17.17
16.66
17.17
18.68
20.65
22.35
23.18
22.96
21.92
20.46
18.89
17.20
15.20
12.70
9.63
6.28
3.02
0.19
-2.16
-4.28
-6.66
-9.76
-13.70
-18.06
-21.92
-24.16
-23.87
-20.72
-15.19
-8.26
-1.13
5.27
10.51
14.63
17.84
20.28
21.89
22.59
22.37
21.53
20.64
20.27
20.77
22.09
23.75
25.12
25.58
24.86
23.08
20.65
18.07
15.67
13.46
11.22
8.65
5.61
2.21
-1.23
-4.44
-7.36
-10.27
-13.55
-17.46
-21.75
-25.59
-27.86
-27.61
-24.49
-19.00
-12.29
-5.67
-0.15
3.93
6.79
8.90
10.56
11.72
12.15
11.66
10.46
9.13
8.38
8.71
10.15
12.23
14.19
15.39
15.50
14.66
13.24
11.65
10.11
8.54
6.75
4.59
2.10
-0.48
-2.91
-5.15
-7.50
-10.49
-14.48
-19.40
-24.47
-28.46
-30.08
-28.59
-24.10
-17.57
-10.33
-3.61
1.96
6.30
9.69
12.36
14.35
15.49
15.61
14.80
13.43
12.16
11.50
11.69
12.58
13.66
14.34
14.18
13.05
11.13
8.83
6.54
4.45
2.45
0.23
-2.51
-5.90
-9.78
-13.87
-17.92
-21.91
-25.87
-29.80
-33.33
-35.76
-36.22
-34.12
-29.47
-22.96
-15.73
-8.87
-3.06
1.60
5.44
8.81
11.79
14.15
15.55
15.82
15.22
14.38
14.05
14.70
16.26
18.11
19.37
19.30
17.70
14.95
11.78
8.93
6.69
4.86
2.90
0.32
-3.03
-6.94
-11.06
-15.18
-19.30
-23.55
-27.79
-31.47
-33.70
-33.59
-30.78
-25.65
-19.14
-12.34
-6.04
-0.41
4.74
9.60
13.99
17.33
19.00
18.78
17.11
15.03
13.64
13.67
14.97
16.81
18.22
18.54
17.67
16.05
14.26
12.70
11.23
9.44
6.96
3.78
0.35
-2.57
-4.50
-5.45
-6.21
-7.88
-11.30
-16.49
-22.50
-27.63
-30.29
-29.59
-25.80
-20.04
-13.67
-7.73
-2.52
2.21
6.79
11.32
15.35
18.26
19.61
19.46
18.33
17.05
16.26
16.25
16.86
17.70
18.36
18.63
18.39
17.67
16.51
14.95
13.02
10.79
8.30
5.56
2.58
-0.63
-3.99
-7.30
-10.40
-13.24
-16.00
-19.02
-22.63
-26.81
-31.01
-34.26
-35.52
-34.05
-29.87
-23.64
-16.46
-9.37
-3.06
2.27
6.67
10.23
12.91
14.56
15.10
14.68
13.74
12.89
12.67
13.35
14.80
16.60
18.17
19.00
18.87
17.84
16.22
14.39
12.58
10.78
8.78
6.39
3.59
0.61
-2.13
-4.30
-5.80
-6.93
-8.20
-10.15
-13.06
-16.84
-21.04
-24.95
-27.86
-29.16
-28.55
-26.03
-21.85
-16.43
-10.27
-3.90
2.23
7.62
11.85
14.60
15.82
15.78
15.03
14.18
13.72
13.84
14.40
15.07
15.57
15.84
16.01
16.27
16.65
16.93
16.72
15.62
13.53
10.67
7.53
4.63
2.28
0.46
-1.10
-2.71
-4.60
-6.81
-9.25
-11.89
-14.75
-17.91
-21.26
-24.46
-26.84
-27.58
-26.16
-22.48
-17.09
-10.95
-5.09
-0.20
3.50
6.13
7.82
8.64
8.49
7.38
5.63
3.89
2.91
3.21
4.81
7.23
9.67
11.35
11.82
11.03
9.32
7.24
5.20
3.42
1.80
0.08
-1.96
-4.28
-6.59
-8.50
-10.02
-11.50
-13.57
-16.72
-20.90
-25.29
-28.67
-29.87
-28.53
-25.01
-20.25
-15.11
-10.03
-4.93
0.39
5.83
10.64
13.75
14.31
12.29
8.65
4.98
2.79
2.80
4.46
6.54
7.75
7.50
6.17
4.70
3.95
4.16
4.62
4.29
2.40
-1.07
-5.34
-9.31
-12.21
-13.97
-15.31
-17.29
-20.64
-25.36
-30.67
-35.28
-37.92
-37.69
-34.49
-28.83
-21.70
-14.18
-7.14
-1.10
3.74
7.43
10.01
11.50
11.84
11.07
9.40
7.29
5.35
4.20
4.17
5.22
6.90
8.51
9.35
9.00
7.42
4.99
2.30
-0.14
-2.06
-3.59
-5.11
-7.02
-9.53
-12.60
-16.04
-19.73
-23.64
-27.79
-31.97
-35.61
-37.82
-37.64
-34.48
-28.46
-20.41
-11.68
-3.59
2.90
7.38
10.06
11.40
11.86
11.78
11.27
10.42
9.35
8.38
7.87
8.13
9.13
10.54
11.70
12.01
11.10
9.07
6.39
3.69
1.41
-0.41
-2.06
-3.97
-6.52
-9.81
-13.74
-18.08
-22.61
-27.01
-30.82
-33.40
-34.05
-32.27
-27.93
-21.49
-13.85
-6.06
0.94
6.54
10.49
12.82
13.77
13.69
13.00
12.12
11.39
11.04
11.14
11.66
12.60
13.94
15.54
17.10
18.08
17.94
16.32
13.29
9.38
5.33
1.76
-1.14
-3.70
-6.49
-10.07
-14.64
-19.92
-25.24
-29.73
-32.66
-33.59
-32.45
-29.45
-24.98
-19.41
-13.16
-6.67
-0.45
4.90
8.86
11.12
11.77
11.28
10.36
9.67
9.62
10.21
11.20
12.26
13.14
13.79
14.20
14.37
14.14
13.27
11.56
9.01
5.93
2.80
0.06
-2.09
-3.86
-5.76
-8.31
-11.75
-15.84
-19.80
-22.64
-23.44
-21.77
-17.79
-12.17
-5.83
0.41
6.01
10.70
14.41
17.01
18.37
18.38
17.15
15.10
12.98
11.57
11.41
12.63
14.79
17.17
18.99
19.73
19.30
17.99
16.24
14.43
12.63
10.70
8.35
5.35
1.75
-2.31
-6.51
-10.60
-14.33
-17.43
-19.50
-20.01
-18.48
-14.68
-8.88
-1.80
5.50
12.05
17.17
20.60
22.45
23.03
22.65
21.60
20.12
18.53
17.19
16.42
16.39
16.96
17.73
18.14
17.74
16.30
13.97
11.11
8.18
5.46
2.99
0.54
-2.22
-5.55
-9.50
-13.82
-17.99
-21.44
-23.62
-24.21
-23.10
-20.40
-16.35
-11.21
-5.38
0.72
6.58
11.57
15.14
17.00
17.19
16.17
14.52
12.86
11.65
11.08
11.23
12.06
13.43
15.03
16.33
16.68
15.62
13.12
9.65
6.05
3.06
0.91
-0.86
-3.15
-6.76
-11.88
-17.90
-23.56
-27.52
-28.84
-27.47
-24.05
-19.50
-14.61
-9.73
-4.72
0.55
5.99
10.93
14.46
15.89
15.18
13.09
10.93
9.86
10.40
12.09
13.82
14.50
13.60
11.40
8.78
6.61
5.30
4.55
3.64
1.89
-0.98
-4.72
-8.77
-12.60
-15.93
-18.82
-21.36
-23.49
-24.80
-24.78
-22.95
-19.26
-14.07
-8.15
-2.30
2.84
6.97
10.00
12.04
13.18
13.54
13.28
12.68
12.12
11.94
12.28
13.07
13.96
14.59
14.69
14.21
13.25
11.90
10.20
8.06
5.47
2.58
-0.35
-3.03
-5.43
-7.79
-10.54
-14.00
-18.02
-21.89
-24.50
-24.86
-22.51
-17.74
-11.45
-4.76
1.48
6.91
11.57
15.62
19.08
21.71
23.19
23.41
22.59
21.32
20.34
20.09
20.59
21.38
21.79
21.24
19.55
16.98
14.08
11.39
9.14
7.24
5.35
3.14
0.51
-2.38
-5.26
-8.00
-10.72
-13.68
-17.02
-20.54
-23.60
-25.30
-24.89
-22.08
-17.21
-11.09
-4.65
1.42
6.73
11.22
14.91
17.78
19.71
20.59
20.51
19.78
18.88
18.26
18.21
18.69
19.39
19.91
19.92
19.33
18.28
17.11
16.11
15.39
14.74
13.73
11.92
9.12
5.54
1.75
-1.60
-4.08
-5.74
-7.15
-9.08
-12.10
-16.26
-20.94
-25.25
-28.27
-29.45
-28.75
-26.40
-22.73
-18.01
-12.44
-6.36
-0.24
5.31
9.75
12.81
14.62
15.60
16.27
16.93
17.64
18.24
18.53
18.46
18.13
17.75
17.56
17.44
17.16
16.35
14.79
12.61
10.26
8.27
7.01
6.21
5.28
3.57
0.79
-2.70
-6.05
-8.45
-9.62
-10.23
-11.41
-14.10
-18.35
-23.00
-26.20
-26.38
-23.01
-17.13
-10.66
-5.40
-2.10
-0.18
1.68
4.61
8.81
13.31
16.70
17.93
16.98
14.81
12.82
12.04
12.78
14.38
15.85
16.37
15.67
14.11
12.34
10.91
10.09
9.60
8.97
7.79
5.93
3.62
1.31
-0.63
-2.02
-3.08
-4.26
-6.05
-8.80
-12.53
-16.83
-20.96
-24.00
-25.18
-24.06
-20.78
-15.98
-10.60
-5.48
-1.12
2.42
5.33
7.79
9.81
11.20
11.75
11.50
10.72
9.94
9.55
9.73
10.28
10.80
10.83
10.16
8.81
7.05
5.18
3.42
1.81
0.22
-1.53
-3.56
-5.84
-8.15
-10.30
-12.18
-13.90
-15.80
-18.20
-21.24
-24.73
-28.05
-30.41
-31.11
-29.82
-26.71
-22.35
-17.48
-12.75
-8.51
-4.82
-1.61
1.16
3.41
4.95
5.64
5.54
4.98
4.40
4.21
4.58
5.34
6.14
6.54
6.27
5.33
3.97
2.48
1.09
-0.17
-1.44
-2.88
-4.60
-6.47
-8.30
-9.96
-11.52
-13.31
-15.72
-18.98
-22.78
-26.30
-28.49
-28.49
-26.05
-21.64
-16.23
-10.78
-5.96
-1.87
1.61
4.63
7.06
8.60
8.98
8.27
6.93
5.65
5.07
5.44
6.54
7.81
8.62
8.53
7.44
5.59
3.37
1.15
-0.88
-2.77
-4.66
-6.76
-9.18
-11.89
-14.69
-17.36
-19.76
-21.92
-23.96
-25.99
-27.82
-28.99
-28.82
-26.74
-22.66
-17.10
-10.99
-5.36
-0.86
2.41
4.79
6.77
8.60
10.24
11.43
11.92
11.74
11.21
10.78
10.78
11.23
11.81
12.05
11.58
10.38
8.72
7.01
5.54
4.27
2.94
1.20
-1.13
-3.88
-6.67
-9.12
-11.09
-12.76
-14.64
-17.23
-20.69
-24.73
-28.55
-31.11
-31.54
-29.53
-25.40
-19.96
-14.14
-8.59
-3.51
1.24
5.78
10.01
13.52
15.81
16.65
16.24
15.22
14.32
14.04
14.43
15.14
15.65
15.62
15.01
14.09
13.17
12.38
11.58
10.37
8.41
5.58
2.14
-1.44
-4.65
-7.23
-9.27
-11.15
-13.35
-16.18
-19.72
-23.77
-27.96
-31.84
-34.93
-36.70
-36.61
-34.28
-29.68
-23.26
-15.92
-8.70
-2.45
2.45
6.13
9.00
11.46
13.70
15.65
17.19
18.23
18.81
19.05
19.06
18.96
18.78
18.60
18.51
18.53
18.54
18.35
17.70
16.46
14.54
11.98
8.91
5.53
2.14
-0.85
-3.18
-4.75
-5.91
-7.27
-9.46
-12.83
-17.22
-21.87
-25.86
-28.36
-29.04
-27.96
-25.44
-21.75
-16.95
-11.01
-4.15
3.12
9.75
14.69
17.22
17.39
16.02
14.37
13.49
13.87
15.17
16.63
17.52
17.55
16.96
16.30
15.95
15.92
15.69
14.66
12.38
8.99
5.00
1.22
-1.77
-3.72
-4.81
-5.46
-6.08
-7.01
-8.45
-10.52
-13.27
-16.57
-20.11
-23.27
-25.27
-25.36
-23.15
-18.68
-12.49
-5.35
1.89
8.53
14.04
18.12
20.65
21.69
21.49
20.47
19.13
17.91
17.10
16.74
16.66
16.59
16.30
15.71
14.82
13.73
12.47
10.99
9.16
6.88
4.23
1.47
-1.00
-2.81
-3.81
-4.23
-4.60
-5.55
-7.60
-10.83
-14.84
-18.78
-21.71
-22.85
-21.89
-19.00
-14.68
-9.60
-4.26
0.93
5.67
9.57
12.31
13.60
13.47
12.30
10.70
9.34
8.64
8.67
9.21
9.87
10.39
10.67
10.83
10.93
10.91
10.49
9.31
7.09
3.88
0.06
-3.84
-7.31
-10.13
-12.45
-14.64
-17.14
-20.27
-24.07
-28.31
-32.50
-35.91
-37.75
-37.35
-34.38
-29.00
-21.84
-13.85
-6.06
0.71
5.95
9.52
11.53
12.32
12.38
12.23
12.30
12.83
13.78
14.91
15.98
16.89
17.71
18.57
19.49
20.21
20.27
19.22
16.88
13.50
9.77
6.38
3.84
2.13
0.71
-1.09
-3.82
-7.64
-12.25
-17.31
-22.39
-27.15
-31.16
-33.70
-33.86
-30.92
-24.79
-16.40
-7.42
0.39
5.86
8.97
10.60
11.89
13.52
15.24
16.23
15.78
13.89
11.51
9.97
10.32
12.79
16.33
19.46
20.86
20.10
17.75
15.06
13.13
12.40
12.24
11.48
9.16
5.07
-0.01
-4.76
-8.17
-10.10
-11.51
-13.72
-17.42
-22.07
-25.89
-26.75
-23.38
-16.00
-6.47
2.65
9.32
12.71
13.30
12.33
10.92
9.70
8.61
7.40
6.01
4.76
4.20
4.66
6.08
7.96
9.52
10.11
9.49
7.82
5.53
3.07
0.70
-1.48
-3.59
-5.82
-8.41
-11.55
-15.36
-19.68
-24.01
-27.50
-29.17
-28.28
-24.68
-18.94
-12.13
-5.46
0.18
4.40
7.26
9.00
9.80
9.69
8.65
6.76
4.36
2.07
0.49
-0.02
0.43
1.27
1.73
1.15
-0.75
-3.74
-7.29
-10.86
-14.17
-17.37
-20.85
-25.02
-30.09
-35.87
-41.79
-47.10
-51.01
-52.93
-52.49
-49.70
-44.90
-38.69
-31.79
-24.97
-18.87
-14.01
-10.69
-9.00
-8.79
-9.60
-10.76
-11.56
-11.46
-10.28
-8.24
-5.86
-3.68
-2.12
-1.26
-0.98
-1.02
-1.23
-1.55
-2.15
-3.18
-4.76
-6.90
-9.51
-12.43
-15.44
-18.10
-19.82
-19.77
-17.11
-11.27
-2.29
9.18
21.91
34.55
45.95
55.41
62.69
67.78
70.72
71.53
70.28
67.29
63.11
58.52
54.27
50.87
48.36
46.39
44.34
41.63
37.94
33.33
28.17
22.91
17.89
13.12
8.36
3.28
-2.31
-8.19
-13.72
-18.04
-20.34
-20.23
-17.85
-13.85
-9.14
-4.58
-0.75
2.14
4.05
5.04
5.11
4.28
2.67
0.63
-1.32
-2.69
-3.15
-2.77
-1.90
-1.07
-0.78
-1.26
-2.44
-4.00
-5.58
-6.91
-7.97
-8.90
-10.00
-11.47
-13.39
-15.69
-18.22
-20.79
-23.18
-25.05
-25.97
-25.43
-23.05
-18.71
-12.70
-5.69
1.46
7.89
12.96
16.34
18.07
18.44
17.97
17.18
16.50
16.18
16.16
16.22
16.06
15.48
14.42
12.88
10.85
8.24
4.91
0.88
-3.61
-8.13
-12.28
-15.85
-19.04
-22.19
-25.52
-28.80
-31.25
-31.89
-29.94
-25.24
-18.38
-10.46
-2.68
4.03
9.17
12.65
14.61
15.30
15.02
14.11
12.98
12.10
11.91
12.68
14.44
16.91
19.59
21.88
23.31
23.75
23.34
22.39
21.11
19.44
17.06
13.67
9.28
4.43
-0.00
-3.03
-4.01
-2.88
0.00
4.03
8.63
13.37
17.74
21.16
22.97
22.71
20.43
16.76
12.73
9.34
7.17
6.18
5.86
5.55
4.81
3.49
1.77
0.01
-1.61
-2.96
-4.20
-5.62
-7.55
-10.14
-13.36
-16.86
-20.23
-23.00
-24.69
-24.91
-23.30
-19.63
-14.05
-7.12
0.04
6.25
10.59
12.80
13.35
13.15
13.02
13.28
13.62
13.38
12.07
9.69
6.82
4.32
2.81
2.40
2.51
2.30
1.05
-1.41
-4.72
-8.22
-11.39
-14.00
-16.20
-18.11
-19.58
-20.05
-18.86
-15.54
-10.27
-3.70
3.14
9.26
14.05
17.33
19.24
20.11
20.29
20.10
19.78
19.43
19.00
18.36
17.34
15.92
14.22
12.49
10.94
9.52
7.97
5.90
3.02
-0.68
-4.92
-9.22
-13.10
-16.12
-17.98
-18.46
-17.40
-14.75
-10.63
-5.42
0.31
5.93
10.85
14.68
17.25
18.56
18.76
18.12
17.03
15.89
15.03
14.54
14.27
13.90
13.08
11.63
9.61
7.24
4.73
2.14
-0.65
-3.84
-7.56
-11.72
-16.12
-20.44
-24.30
-27.32
-29.12
-29.36
-27.87
-24.73
-20.36
-15.35
-10.38
-5.99
-2.48
0.04
1.64
2.44
2.64
2.48
2.22
2.15
2.41
2.99
3.73
4.41
4.84
4.91
4.57
3.81
2.60
0.97
-1.05
-3.32
-5.70
-8.16
-10.79
-13.80
-17.38
-21.43
-25.49
-28.73
-30.28
-29.55
-26.54
-21.82
-16.26
-10.68
-5.48
-0.66
4.01
8.54
12.69
15.99
18.07
19.00
19.32
19.80
21.02
23.07
25.50
27.52
28.51
28.25
27.00
25.31
23.70
22.38
21.23
19.89
18.04
15.55
12.50
9.22
5.90
2.64
-0.67
-4.21
-7.93
-11.42
-14.01
-14.98
-14.09
-11.58
-8.19
-4.73
-1.72
0.87
3.37
6.17
9.14
11.76
13.32
13.42
12.28
10.73
9.71
9.79
10.77
11.90
12.36
11.77
10.38
8.92
8.01
7.83
7.77
6.94
4.76
1.27
-2.73
-6.14
-8.18
-8.78
-8.78
-9.41
-11.63
-15.59
-20.47
-24.80
-27.15
-26.69
-23.57
-18.74
-13.38
-8.42
-4.19
-0.55
2.83
6.11
9.09
11.33
12.47
12.47
11.64
10.52
9.63
9.32
9.57
10.13
10.64
10.79
10.39
9.43
8.01
6.39
4.74
3.15
1.58
-0.07
-1.91
-3.94
-6.05
-8.09
-10.02
-11.98
-14.21
-16.94
-20.08
-23.17
-25.43
-26.03
-24.48
-20.86
-15.78
-10.21
-5.14
-1.22
1.29
2.54
2.87
2.66
2.15
1.46
0.60
-0.38
-1.35
-2.05
-2.27
-1.94
-1.23
-0.59
-0.50
-1.32
-3.05
-5.39
-7.81
-9.86
-11.39
-12.55
-13.71
-15.24
-17.27
-19.71
-22.31
-24.82
-27.09
-29.02
-30.45
-31.18
-30.91
-29.35
-26.42
-22.30
-17.48
-12.56
-8.12
-4.56
-2.01
-0.36
0.64
1.28
1.76
2.15
2.44
2.61
2.75
3.08
3.83
5.09
6.70
8.22
9.23
9.37
8.66
7.46
6.20
5.24
4.65
4.15
3.37
2.01
0.00
-2.45
-5.08
-7.67
-10.18
-12.70
-15.16
-17.21
-18.26
-17.60
-14.81
-10.04
-3.99
2.20
7.48
11.21
13.27
14.08
14.19
14.07
13.95
13.79
13.47
12.95
12.31
11.78
11.55
11.72
12.12
12.43
12.27
11.44
9.95
8.09
6.19
4.49
2.97
1.43
-0.38
-2.59
-5.10
-7.63
-9.91
-11.87
-13.67
-15.63
-17.98
-20.54
-22.73
-23.68
-22.60
-19.18
-13.86
-7.68
-1.90
2.44
4.95
5.89
5.95
5.80
5.77
5.83
5.81
5.61
5.38
5.46
6.15
7.47
9.09
10.45
11.03
10.56
9.18
7.31
5.44
3.90
2.74
1.78
0.73
-0.62
-2.27
-3.99
-5.53
-6.73
-7.69
-8.79
-10.47
-12.96
-16.09
-19.23
-21.54
-22.31
-21.25
-18.61
-15.02
-11.16
-7.56
-4.43
-1.77
0.43
2.10
3.08
3.28
2.79
1.97
1.35
1.40
2.32
3.94
5.80
7.38
8.34
8.60
8.42
8.10
7.82
7.56
7.10
6.20
4.79
3.05
1.35
-0.00
-0.95
-1.74
-2.85
-4.69
-7.38
-10.63
-13.88
-16.57
-18.28
-18.86
-18.35
-16.71
-13.86
-9.69
-4.38
1.58
7.38
12.18
15.44
17.17
17.77
17.78
17.49
16.94
16.00
14.66
13.24
12.35
12.52
13.84
15.75
17.24
17.38
15.76
12.76
9.28
6.33
4.50
3.58
2.94
1.87
0.09
-2.10
-4.00
-5.09
-5.28
-5.32
-6.24
-8.79
-12.92
-17.65
-21.34
-22.62
-20.87
-16.68
-11.43
-6.52
-2.72
0.13
2.82
6.03
9.80
13.35
15.59
15.85
14.29
11.90
10.01
9.47
10.44
12.23
13.89
14.70
14.48
13.50
12.22
10.96
9.86
8.79
7.56
6.10
4.41
2.54
0.63
-1.19
-2.79
-4.18
-5.48
-7.02
-9.16
-12.14
-15.82
-19.60
-22.58
-23.84
-22.83
-19.64
-14.96
-9.86
-5.39
-2.22
-0.53
-0.11
-0.55
-1.54
-2.89
-4.47
-6.17
-7.70
-8.68
-8.72
-7.66
-5.61
-3.05
-0.60
1.19
1.98
1.78
0.81
-0.61
-2.25
-4.01
-5.89
-7.89
-9.96
-11.97
-13.84
-15.62
-17.45
-19.45
-21.54
-23.35
-24.27
-23.67
-21.16
-16.85
-11.27
-5.29
0.26
4.73
7.89
9.79
10.66
10.72
10.16
9.12
7.84
6.66
5.97
6.09
7.07
8.66
10.35
11.48
11.57
10.40
8.10
5.13
2.06
-0.63
-2.70
-4.26
-5.71
-7.57
-10.27
-13.96
-18.38
-22.93
-26.80
-29.24
-29.71
-28.03
-24.34
-19.07
-12.80
-6.23
-0.10
4.92
8.34
9.99
10.07
9.16
7.95
7.06
6.85
7.32
8.25
9.37
10.43
11.35
11.99
12.20
11.80
10.72
9.08
7.18
5.39
4.00
2.92
1.78
0.07
-2.67
-6.54
-11.29
-16.36
-21.05
-24.78
-27.06
-27.61
-26.30
-23.18
-18.49
-12.63
-6.18
0.18
5.79
10.15
13.00
14.39
14.70
14.48
14.32
14.49
14.96
15.47
15.77
15.82
15.87
16.25
17.10
18.07
18.45
17.56
15.15
11.68
8.13
5.47
4.20
3.92
3.68
2.46
-0.26
-4.29
-8.90
-13.27
-16.85
-19.63
-21.78
-23.25
-23.63
-22.21
-18.43
-12.34
-4.77
2.78
8.83
12.43
13.53
12.86
11.52
10.49
10.38
11.20
12.62
14.25
15.77
17.08
18.17
19.11
19.89
20.36
20.33
19.61
18.09
15.85
13.11
10.18
7.42
5.00
2.90
0.90
-1.39
-4.33
-8.11
-12.55
-17.08
-20.90
-23.22
-23.51
-21.68
-18.08
-13.31
-8.01
-2.68
2.31
6.71
10.26
12.73
13.98
14.16
13.74
13.40
13.73
15.00
17.02
19.28
21.15
22.17
22.18
21.38
20.10
18.63
17.09
15.38
13.32
10.69
7.44
3.70
-0.27
-4.21
-8.01
-11.75
-15.65
-19.94
-24.61
-29.31
-33.41
-36.16
-36.93
-35.46
-31.91
-26.84
-20.96
-14.92
-9.22
-4.16
0.04
3.18
5.12
5.80
5.41
4.38
3.31
2.74
3.00
4.05
5.62
7.30
8.74
9.76
10.38
10.69
10.71
10.39
9.66
8.40
6.67
4.64
2.58
0.75
-0.75
-2.05
-3.44
-5.24
-7.63
-10.51
-13.48
-15.96
-17.36
-17.25
-15.42
-11.98
-7.30
-1.86
3.75
9.04
13.57
17.02
19.19
20.08
19.78
18.62
17.07
15.63
14.70
14.49
15.01
16.11
17.50
18.86
19.86
20.21
19.73
18.36
16.27
13.78
11.31
9.23
7.78
6.97
6.60
6.24
5.41
3.68
0.85
-2.91
-7.08
-10.88
-13.53
-14.52
-13.70
-11.28
-7.72
-3.52
0.86
5.03
8.62
11.25
12.63
12.63
11.46
9.69
7.99
6.93
6.70
7.11
7.68
8.00
7.88
7.39
6.76
6.08
5.23
3.91
1.85
-1.01
-4.41
-7.90
-11.08
-13.79
-16.24
-18.88
-22.14
-26.23
-30.97
-35.84
-40.11
-43.08
-44.25
-43.39
-40.56
-36.11
-30.50
-24.30
-18.08
-12.31
-7.37
-3.49
-0.68
1.18
2.40
3.42
4.65
6.41
8.78
11.54
14.26
16.49
17.95
18.69
18.90
18.82
18.52
17.88
16.71
14.96
12.81
10.62
8.79
7.50
6.63
5.82
4.64
2.84
0.39
-2.55
-5.74
-8.86
-11.59
-13.52
-14.18
-13.17
-10.28
-5.67
0.08
6.06
11.31
15.14
17.30
18.10
18.23
18.41
19.12
20.42
21.98
23.36
24.25
24.68
24.90
25.04
25.04
24.64
23.59
21.95
20.17
18.77
18.14
17.97
17.56
16.14
13.41
9.79
6.25
3.69
2.39
1.71
0.42
-2.54
-7.43
-13.45
-19.05
-22.65
-23.30
-21.22
-17.37
-12.94
-8.68
-4.62
-0.28
4.67
10.09
15.04
18.36
19.34
18.24
16.25
15.00
15.61
18.24
21.86
24.93
26.25
25.50
23.30
20.82
18.96
18.02
17.50
16.60
14.73
11.80
8.24
4.72
1.72
-0.57
-2.46
-4.39
-6.84
-10.11
-14.24
-18.97
-23.80
-27.98
-30.74
-31.47
-29.95
-26.43
-21.63
-16.41
-11.51
-7.35
-4.01
-1.43
0.46
1.63
1.99
1.61
0.80
0.12
0.19
1.38
3.61
6.33
8.80
10.31
10.56
9.69
8.13
6.35
4.63
2.95
1.13
-1.04
-3.61
-6.42
-9.25
-11.96
-14.65
-17.56
-20.96
-24.87
-28.91
-32.31
-34.22
-34.00
-31.51
-27.20
-21.88
-16.43
-11.49
-7.36
-4.06
-1.47
0.47
1.76
2.40
2.45
2.13
1.75
1.62
2.01
2.97
4.36
5.88
7.12
7.75
7.61
6.78
5.49
4.02
2.50
0.99
-0.60
-2.31
-4.10
-5.84
-7.43
-8.91
-10.47
-12.46
-15.11
-18.39
-21.84
-24.68
-26.00
-25.15
-21.95
-16.77
-10.46
-3.92
2.12
7.28
11.48
14.81
17.29
18.90
19.63
19.61
19.22
18.98
19.33
20.44
22.09
23.82
25.04
25.40
24.90
23.77
22.35
20.76
18.88
16.46
13.35
9.64
5.71
1.98
-1.28
-3.96
-6.23
-8.22
-9.99
-11.51
-12.66
-13.41
-13.80
-13.77
-13.09
-11.31
-8.00
-2.92
3.75
11.34
18.94
25.65
30.81
34.17
35.85
36.24
35.89
35.19
34.42
33.65
32.80
31.76
30.49
29.07
27.65
26.20
24.56
22.46
19.75
16.60
13.49
10.98
9.36
8.34
7.23
5.29
2.18
-1.75
-5.68
-8.80
-10.81
-12.28
-14.15
-17.23
-21.50
-25.97
-29.06
-29.39
-26.42
-20.85
-14.18
-8.03
-3.43
-0.56
1.08
2.16
3.09
3.78
3.90
3.25
1.97
0.62
-0.16
0.07
1.37
3.33
5.32
6.75
7.26
6.85
5.74
4.27
2.78
1.44
0.21
-1.07
-2.62
-4.58
-7.01
-9.83
-12.91
-16.16
-19.54
-23.03
-26.49
-29.62
-31.91
-32.78
-31.74
-28.69
-23.99
-18.45
-13.12
-8.93
-6.45
-5.76
-6.44
-7.86
-9.42
-10.71
-11.60
-12.08
-12.17
-11.80
-10.83
-9.24
-7.23
-5.28
-3.97
-3.78
-4.85
-6.89
-9.34
-11.66
-13.58
-15.22
-17.01
-19.41
-22.70
-26.79
-31.22
-35.30
-38.30
-39.67
-39.16
-36.83
-32.99
-28.09
-22.65
-17.15
-12.05
-7.74
-4.54
-2.57
-1.79
-1.95
-2.57
-3.17
-3.32
-2.79
-1.59
0.11
2.01
3.78
5.22
6.17
6.58
6.46
5.81
4.74
3.31
1.69
0.05
-1.47
-2.85
-4.26
-6.07
-8.62
-12.08
-16.24
-20.40
-23.57
-24.80
-23.60
-20.14
-15.08
-9.41
-3.97
0.84
4.97
8.56
11.66
14.07
15.49
15.71
14.84
13.35
11.92
11.15
11.30
12.21
13.42
14.36
14.61
14.07
12.84
11.23
9.43
7.47
5.29
2.82
0.11
-2.65
-5.23
-7.53
-9.74
-12.26
-15.48
-19.45
-23.76
-27.51
-29.64
-29.36
-26.45
-21.42
-15.26
-9.05
-3.62
0.72
4.04
6.56
8.46
9.67
10.11
9.77
8.95
8.20
8.11
8.98
10.70
12.69
14.25
14.80
14.20
12.73
10.94
9.29
7.96
6.76
5.30
3.28
0.71
-2.15
-4.92
-7.40
-9.73
-12.29
-15.43
-19.05
-22.52
-24.72
-24.61
-21.62
-16.05
-8.97
-1.78
4.31
8.70
11.47
13.10
14.08
14.68
14.83
14.40
13.43
12.24
11.37
11.24
11.98
13.26
14.44
14.91
14.32
12.72
10.58
8.42
6.67
5.43
4.47
3.45
2.07
0.19
-2.12
-4.76
-7.69
-11.00
-14.69
-18.54
-21.99
-24.20
-24.38
-22.17
-17.80
-12.06
-6.00
-0.51
3.88
7.10
9.27
10.53
10.94
10.54
9.51
8.26
7.34
7.29
8.34
10.32
12.65
14.64
15.71
15.63
14.54
12.87
11.03
9.38
7.95
6.56
4.91
2.84
0.32
-2.51
-5.64
-9.15
-13.18
-17.65
-22.06
-25.44
-26.76
-25.26
-21.14
-15.31
-9.14
-3.75
0.43
3.73
6.66
9.52
11.99
13.43
13.36
11.89
9.92
8.63
8.90
10.87
13.65
16.03
16.98
16.32
14.66
13.08
12.38
12.73
13.50
13.74
12.78
10.56
7.63
4.80
2.60
1.04
-0.46
-2.64
-5.94
-10.20
-14.63
-18.08
-19.46
-18.10
-14.17
-8.45
-2.17
3.52
7.83
10.52
11.84
12.27
12.25
12.00
11.60
11.04
10.38
9.82
9.60
9.96
10.94
12.36
13.79
14.71
14.66
13.49
11.35
8.70
6.08
3.87
2.19
0.86
-0.50
-2.26
-4.66
-7.72
-11.28
-14.98
-18.39
-21.01
-22.39
-22.18
-20.28
-16.84
-12.25
-7.03
-1.75
3.02
6.87
9.47
10.75
10.85
10.15
9.20
8.47
8.31
8.78
9.74
10.91
12.02
12.86
13.29
13.19
12.48
11.12
9.23
7.01
4.82
2.93
1.45
0.21
-1.16
-3.10
-5.92
-9.69
-14.12
-18.60
-22.36
-24.66
-24.95
-23.04
-19.12
-13.72
-7.53
-1.26
4.52
9.41
13.14
15.60
16.81
16.96
16.47
15.88
15.65
16.03
16.97
18.17
19.25
19.91
20.06
19.76
19.16
18.34
17.29
15.88
13.99
11.67
9.10
6.57
4.32
2.40
0.56
-1.62
-4.55
-8.35
-12.68
-16.84
-19.96
-21.29
-20.48
-17.68
-13.37
-8.22
-2.80
2.44
7.23
11.31
14.39
16.21
16.73
16.18
15.13
14.16
13.67
13.67
13.82
13.81
13.57
13.29
13.31
13.65
13.96
13.61
12.13
9.53
6.38
3.55
1.61
0.51
-0.43
-2.02
-4.79
-8.56
-12.64
-16.25
-18.89
-20.73
-22.19
-23.56
-24.60
-24.57
-22.66
-18.51
-12.54
-6.05
-0.50
3.09
4.54
4.56
4.26
4.55
5.77
7.51
9.02
9.71
9.50
8.90
8.69
9.45
11.18
13.25
14.67
14.65
12.98
10.10
6.86
4.00
1.94
0.52
-0.68
-2.09
-3.95
-6.29
-9.10
-12.44
-16.30
-20.55
-24.73
-28.07
-29.78
-29.31
-26.56
-21.95
-16.16
-9.97
-4.08
1.01
4.98
7.69
9.18
9.68
9.52
9.06
8.61
8.33
8.24
8.29
8.46
8.72
9.08
9.46
9.69
9.48
8.53
6.69
4.06
0.95
-2.14
-4.80
-6.83
-8.36
-9.75
-11.46
-13.80
-16.87
-20.49
-24.26
-27.65
-30.13
-31.24
-30.64
-28.21
-24.02
-18.36
-11.76
-4.92
1.45
6.70
10.48
12.69
13.60
13.67
13.44
13.36
13.65
14.25
14.88
15.22
15.04
14.35
13.38
12.44
11.74
11.21
10.57
9.43
7.57
5.09
2.42
0.03
-1.79
-3.16
-4.52
-6.44
-9.31
-13.11
-17.42
-21.60
-25.02
-27.28
-28.06
-27.25
-24.72
-20.45
-14.67
-7.87
-0.92
5.25
9.88
12.62
13.67
13.58
13.04
12.60
12.53
12.79
13.20
13.56
13.72
13.73
13.64
13.49
13.22
12.70
11.76
10.30
8.35
6.08
3.75
1.52
-0.50
-2.42
-4.40
-6.58
-9.07
-11.81
-14.76
-17.89
-21.25
-24.86
-28.50
-31.66
-33.51
-33.23
-30.32
-24.93
-17.88
-10.43
-3.73
1.49
5.10
7.48
9.12
10.39
11.36
11.94
12.08
11.93
11.81
12.09
12.96
14.30
15.77
16.92
17.35
16.94
15.81
14.28
12.69
11.26
10.01
8.76
7.29
5.41
3.11
0.56
-2.05
-4.57
-7.10
-9.95
-13.39
-17.53
-22.02
-26.07
-28.66
-28.90
-26.46
-21.72
-15.66
-9.46
-4.06
0.13
3.21
5.49
7.16
8.14
8.26
7.45
6.00
4.52
3.64
3.77
4.83
6.32
7.67
8.40
8.42
7.94
7.23
6.43
5.50
4.20
2.35
-0.04
-2.74
-5.33
-7.45
-8.96
-10.08
-11.26
-13.01
-15.64
-19.00
-22.51
-25.34
-26.64
-25.89
-23.11
-18.73
-13.50
-8.12
-3.11
1.29
4.95
7.78
9.66
10.51
10.44
9.79
9.04
8.63
8.86
9.79
11.30
13.23
15.40
17.60
19.46
20.50
20.27
18.50
15.42
11.66
7.98
4.97
2.70
0.75
-1.47
-4.40
-8.18
-12.50
-16.97
-21.16
-24.91
-28.05
-30.24
-31.04
-29.87
-26.39
-20.81
-13.88
-6.88
-1.10
2.60
4.12
4.07
3.51
3.38
4.12
5.45
6.73
7.44
7.52
7.42
7.84
9.14
11.10
12.82
13.25
11.76
8.53
4.46
0.78
-1.68
-2.79
-3.33
-4.48
-7.20
-11.75
-17.58
-23.45
-28.13
-30.68
-30.91
-29.17
-26.02
-22.00
-17.39
-12.30
-6.87
-1.37
3.69
7.68
10.20
11.13
10.78
9.82
8.98
8.84
9.60
11.05
12.71
14.02
14.52
14.02
12.54
10.31
7.63
4.78
1.89
-1.05
-4.12
-7.48
-11.21
-15.30
-19.56
-23.66
-27.17
-29.65
-30.72
-30.14
-27.85
-23.99
-18.85
-12.90
-6.65
-0.66
4.58
8.63
11.26
12.46
12.55
12.04
11.53
11.46
11.98
12.92
13.94
14.68
14.97
14.79
14.22
13.30
11.99
10.25
8.03
5.44
2.67
-0.15
-3.06
-6.29
-10.12
-14.75
-20.00
-25.31
-29.80
-32.54
-32.91
-30.77
-26.52
-20.95
-14.90
-9.02
-3.59
1.33
5.81
9.76
12.93
15.04
15.97
15.99
15.69
15.74
16.60
18.27
20.35
22.22
23.32
23.40
22.50
20.89
18.83
16.53
14.06
11.47
8.77
6.04
3.29
0.45
-2.66
-6.25
-10.42
-14.97
-19.39
-22.85
-24.52
-23.85
-20.82
-15.93
-10.04
-4.01
1.51
6.25
10.20
13.44
15.99
17.80
18.77
18.96
18.65
18.33
18.49
19.44
21.08
22.92
24.25
24.51
23.50
21.54
19.15
16.90
15.05
13.47
11.83
9.90
7.64
5.27
2.84
0.21
-3.03
-7.27
-12.52
-18.15
-23.07
-26.06
-26.40
-24.08
-19.81
-14.59
-9.24
-4.11
0.81
5.64
10.14
13.78
15.99
16.55
15.87
14.91
14.63
15.63
17.60
19.70
20.95
20.83
19.56
17.92
16.66
16.17
16.01
15.42
13.73
10.87
7.44
4.40
2.50
1.86
1.85
1.47
-0.19
-3.47
-8.05
-13.14
-17.83
-21.31
-23.13
-23.09
-21.21
-17.70
-12.91
-7.32
-1.54
3.91
8.55
12.07
14.36
15.43
15.48
14.76
13.67
12.67
12.14
12.28
13.05
14.12
15.05
15.46
15.15
14.20
12.84
11.34
9.81
8.20
6.37
4.19
1.73
-0.78
-3.07
-4.99
-6.63
-8.38
-10.72
-14.00
-18.20
-22.83
-26.98
-29.64
-30.01
-27.80
-23.33
-17.36
-10.85
-4.62
0.83
5.30
8.76
11.22
12.65
13.07
12.67
11.83
11.07
10.86
11.43
12.70
14.36
15.98
17.23
17.97
18.21
18.04
17.52
16.62
15.25
13.39
11.11
8.65
6.26
4.11
2.15
0.09
-2.45
-5.82
-10.06
-14.77
-19.12
-22.18
-23.18
-21.88
-18.63
-14.25
-9.64
-5.45
-1.95
0.89
3.17
4.80
5.57
5.33
4.21
2.77
1.72
1.68
2.81
4.77
6.85
8.36
8.85
8.29
6.92
5.08
2.99
0.68
-1.90
-4.77
-7.88
-11.04
-14.03
-16.79
-19.45
-22.36
-25.78
-29.68
-33.54
-36.40
-37.23
-35.33
-30.76
-24.35
-17.34
-10.90
-5.71
-1.76
1.37
4.11
6.61
8.65
9.86
10.09
9.59
8.97
8.89
9.69
11.25
12.96
14.09
14.12
12.99
11.09
9.06
7.44
6.42
5.73
4.89
3.38
0.96
-2.29
-6.05
-9.94
-13.75
-17.37
-20.68
-23.36
-24.82
-24.36
-21.53
-16.40
-9.66
-2.42
4.21
9.54
13.40
16.12
18.15
19.83
21.18
22.06
22.29
21.93
21.26
20.71
20.61
21.01
21.63
21.96
21.53
20.12
17.83
15.06
12.30
9.89
7.84
5.95
3.86
1.36
-1.56
-4.72
-7.87
-10.93
-13.96
-17.04
-20.06
-22.54
-23.74
-22.94
-19.87
-14.81
-8.68
-2.63
2.45
6.13
8.56
10.17
11.37
12.35
13.08
13.45
13.49
13.39
13.45
13.94
14.85
15.96
16.84
17.07
16.47
15.08
13.20
11.19
9.32
7.65
6.01
4.11
1.74
-1.16
-4.39
-7.68
-10.80
-13.76
-16.74
-19.84
-22.85
-25.12
-25.76
-24.14
-20.15
-14.42
-8.05
-2.12
2.76
6.50
9.33
11.38
12.54
12.59
11.48
9.65
7.87
6.95
7.32
8.67
10.29
11.34
11.39
10.58
9.42
8.44
7.89
7.43
6.51
4.70
1.96
-1.20
-4.00
-5.88
-6.74
-7.32
-8.65
-11.50
-15.91
-20.94
-25.01
-26.67
-25.19
-21.03
-15.48
-9.99
-5.52
-2.11
0.81
3.87
7.25
10.35
12.25
12.26
10.44
7.66
5.23
4.22
5.03
7.20
9.74
11.65
12.31
11.64
10.00
7.83
5.55
3.26
0.88
-1.73
-4.63
-7.76
-10.99
-14.22
-17.44
-20.78
-24.35
-28.08
-31.61
-34.31
-35.43
-34.39
-31.06
-25.78
-19.33
-12.66
-6.63
-1.89
1.25
2.74
2.81
1.85
0.36
-1.11
-2.12
-2.38
-1.86
-0.73
0.73
2.14
3.23
3.72
3.46
2.39
0.59
-1.79
-4.42
-6.98
-9.24
-11.19
-13.06
-15.28
-18.28
-22.25
-26.94
-31.63
-35.32
-37.03
-36.15
-32.66
-27.12
-20.40
-13.45
-6.94
-1.27
3.42
7.03
9.50
10.74
10.81
9.96
8.73
7.72
7.41
7.93
9.08
10.37
11.30
11.56
11.10
10.09
8.74
7.22
5.58
3.77
1.75
-0.51
-3.00
-5.77
-8.91
-12.53
-16.64
-20.98
-25.03
-27.96
-28.92
-27.33
-23.09
-16.78
-9.44
-2.24
3.90
8.55
11.77
13.91
15.25
15.91
15.85
15.02
13.65
12.26
11.44
11.63
12.79
14.41
15.68
15.93
14.86
12.73
10.10
7.49
5.18
3.11
1.00
-1.40
-4.18
-7.22
-10.40
-13.64
-16.98
-20.44
-23.81
-26.60
-28.07
-27.44
-24.33
-18.96
-12.16
-5.13
1.01
5.58
8.55
10.40
11.62
12.58
13.25
13.44
13.12
12.63
12.58
13.53
15.52
17.95
19.88
20.45
19.40
17.20
14.68
12.60
11.07
9.68
7.76
4.95
1.40
-2.26
-5.46
-8.01
-10.45
-13.51
-17.59
-22.32
-26.44
-28.39
-26.99
-22.06
-14.72
-6.75
0.10
4.84
7.54
8.99
10.10
11.43
12.83
13.80
13.91
13.21
12.27
11.92
12.67
14.56
16.94
18.94
19.88
19.49
18.06
16.09
14.08
12.30
10.65
8.92
6.83
4.25
1.17
-2.29
-6.02
-9.85
-13.70
-17.42
-20.74
-23.27
-24.46
-23.81
-21.05
-16.28
-10.08
-3.31
3.10
8.37
12.06
14.13
14.77
14.45
13.65
12.82
12.31
12.25
12.61
13.22
13.81
14.24
14.36
14.10
13.39
12.12
10.24
7.80
5.02
2.27
-0.10
-1.94
-3.36
-4.72
-6.47
-9.01
-12.45
-16.54
-20.76
-24.35
-26.60
-26.94
-25.09
-21.14
-15.54
-8.96
-2.21
3.93
8.86
12.16
13.77
13.90
13.03
11.85
11.02
10.96
11.75
13.16
14.81
16.31
17.40
17.99
18.04
17.51
16.30
14.40
11.90
9.03
6.09
3.38
1.05
-0.90
-2.64
-4.48
-6.69
-9.56
-13.15
-17.24
-21.29
-24.54
-26.19
-25.70
-22.87
-18.03
-11.86
-5.16
1.35
7.07
11.66
14.84
16.53
16.75
15.75
14.05
12.35
11.31
11.37
12.51
14.35
16.26
17.69
18.31
18.09
17.21
15.87
14.13
11.99
9.43
6.49
3.43
0.51
-2.07
-4.32
-6.53
-9.13
-12.55
-16.92
-21.96
-26.97
-30.99
-33.10
-32.74
-29.82
-24.78
-18.42
-11.62
-5.14
0.49
4.94
8.05
9.82
10.36
9.94
9.05
8.22
7.91
8.38
9.56
11.14
12.70
13.88
14.49
14.54
14.11
13.27
11.98
10.16
7.75
4.84
1.73
-1.22
-3.74
-5.80
-7.68
-9.85
-12.74
-16.51
-20.86
-25.13
-28.42
-29.91
-29.13
-26.02
-20.99
-14.70
-7.91
-1.27
4.68
9.56
13.12
15.16
15.67
14.89
13.33
11.66
10.55
10.43
11.32
12.91
14.63
15.97
16.62
16.49
15.70
14.33
12.48
10.17
7.49
4.63
1.89
-0.51
-2.51
-4.29
-6.24
-8.76
-12.12
-16.29
-20.91
-25.36
-28.83
-30.54
-29.89
-26.68
-21.14
-13.93
-6.00
1.64
8.11
12.83
15.60
16.52
15.95
14.46
12.66
11.16
10.35
10.33
10.92
11.75
12.45
12.85
12.85
12.53
11.85
10.73
9.02
6.74
4.04
1.27
-1.44
-4.08
-6.85
-10.01
-13.55
-17.25
-20.80
-23.97
-26.82
-29.47
-31.79
-33.15
-32.61
-29.29
-23.01
-14.56
-5.62
2.06
7.28
9.87
10.54
10.36
10.10
10.01
9.69
8.69
6.93
4.90
3.43
3.35
4.84
7.41
9.79
10.70
9.39
6.01
1.58
-2.50
-5.22
-6.34
-6.63
-7.29
-9.36
-13.16
-18.23
-23.56
-28.23
-31.54
-33.32
-33.53
-32.12
-28.96
-23.99
-17.47
-10.08
-2.75
3.62
8.44
11.56
13.17
13.58
13.17
12.29
11.44
11.09
11.59
13.03
15.11
17.20
18.61
18.81
17.65
15.39
12.44
9.28
6.22
3.34
0.61
-2.09
-4.89
-7.87
-11.17
-14.94
-19.31
-24.25
-29.38
-33.88
-36.68
-36.76
-33.65
-27.66
-19.90
-11.83
-4.76
0.59
4.24
6.69
8.48
9.94
11.06
11.69
11.86
11.83
12.11
13.15
15.08
17.57
19.93
21.38
21.42
19.97
17.43
14.44
11.62
9.28
7.36
5.54
3.44
0.81
-2.36
-5.97
-9.89
-14.10
-18.58
-23.09
-27.00
-29.36
-29.17
-25.85
-19.67
-11.72
-3.55
3.41
8.41
11.53
13.36
14.61
15.64
16.45
16.91
16.98
16.94
17.19
18.04
19.49
21.13
22.45
22.96
22.50
21.21
19.38
17.39
15.50
13.81
12.24
10.59
8.65
6.28
3.54
0.63
-2.24
-4.97
-7.76
-10.93
-14.77
-19.23
-23.71
-27.15
-28.41
-26.69
-21.92
-14.82
-6.64
1.33
8.16
13.47
17.28
19.72
20.90
20.92
20.03
18.83
18.09
18.45
20.04
22.40
24.63
25.92
25.94
24.96
23.63
22.55
21.89
21.40
20.58
19.07
16.81
14.13
11.46
9.23
7.41
5.72
3.70
0.95
-2.65
-6.91
-11.49
-16.04
-20.41
-24.47
-27.91
-30.06
-30.04
-27.08
-21.01
-12.56
-3.31
4.94
10.82
13.89
14.69
14.36
13.98
14.17
14.88
15.71
16.27
16.54
16.79
17.42
18.58
20.05
21.20
21.40
20.34
18.19
15.52
13.01
11.10
9.85
8.93
7.81
6.09
3.67
0.72
-2.46
-5.53
-8.35
-11.04
-13.88
-17.20
-21.09
-25.26
-29.00
-31.32
-31.27
-28.39
-22.89
-15.67
-8.05
-1.29
3.81
7.00
8.53
8.84
8.33
7.22
5.72
4.07
2.67
1.96
2.31
3.72
5.87
8.12
9.80
10.49
10.04
8.62
6.60
4.28
1.87
-0.55
-3.04
-5.64
-8.31
-10.96
-13.46
-15.75
-17.88
-20.10
-22.71
-25.97
-29.92
-34.19
-37.96
-40.20
-39.98
-36.89
-31.21
-23.85
-15.99
-8.69
-2.57
2.15
5.54
7.70
8.74
8.81
8.20
7.45
7.18
7.87
9.68
12.35
15.27
17.79
19.37
19.86
19.45
18.56
17.61
16.81
16.05
15.03
13.37
10.90
7.75
4.35
1.21
-1.39
-3.54
-5.68
-8.45
-12.35
-17.36
-22.99
-28.28
-32.15
-33.74
-32.62
-28.90
-23.10
-15.94
-8.19
-0.59
6.23
11.70
15.48
17.39
17.61
16.68
15.30
14.21
13.93
14.56
15.89
17.53
19.04
20.21
21.01
21.47
21.65
21.42
20.63
19.16
17.01
14.41
11.64
8.93
6.37
3.87
1.31
-1.37
-4.11
-6.80
-9.42
-12.15
-15.29
-19.11
-23.53
-28.04
-31.68
-33.38
-32.33
-28.36
-22.03
-14.47
-6.92
-0.39
4.67
8.27
10.72
12.30
13.11
13.16
12.47
11.31
10.16
9.64
10.15
11.74
14.00
16.23
17.78
18.24
17.66
16.47
15.17
14.15
13.36
12.46
10.96
8.57
5.44
2.17
-0.49
-2.06
-2.55
-2.61
-3.15
-4.96
-8.31
-12.94
-18.18
-23.23
-27.43
-30.28
-31.41
-30.53
-27.52
-22.58
-16.28
-9.54
-3.35
1.50
4.67
6.25
6.67
6.44
6.02
5.76
5.83
6.35
7.32
8.71
10.42
12.31
14.15
15.68
16.66
16.84
16.13
14.60
12.43
9.90
7.24
4.64
2.14
-0.26
-2.66
-5.12
-7.64
-10.19
-12.75
-15.33
-18.11
-21.31
-25.03
-29.14
-33.12
-36.16
-37.38
-36.22
-32.64
-27.14
-20.61
-13.98
-7.95
-2.98
0.72
3.05
4.00
3.63
2.22
0.33
-1.23
-1.77
-0.86
1.40
4.40
7.36
9.67
11.11
11.83
12.03
11.76
10.90
9.27
6.96
4.40
2.11
0.49
-0.66
-1.97
-4.13
-7.54
-11.98
-16.76
-21.18
-24.81
-27.72
-30.13
-32.06
-33.02
-32.15
-28.68
-22.53
-14.53
-6.38
0.12
3.82
4.65
3.55
1.94
0.90
0.82
1.26
1.60
1.51
1.28
1.58
2.97
5.38
8.10
9.93
9.91
7.75
3.97
-0.42
-4.44
-7.55
-9.80
-11.67
-13.78
-16.58
-20.27
-24.82
-29.94
-35.15
-39.64
-42.51
-42.91
-40.36
-35.04
-27.75
-19.69
-12.04
-5.60
-0.66
2.87
5.25
6.70
7.30
7.16
6.52
5.84
5.65
6.37
8.09
10.45
12.79
14.44
14.93
14.23
12.67
10.78
8.95
7.29
5.57
3.43
0.59
-2.96
-6.95
-11.08
-15.19
-19.39
-23.95
-28.95
-33.99
-38.15
-40.27
-39.42
-35.39
-28.77
-20.75
-12.63
-5.38
0.59
5.34
9.11
12.07
14.19
15.41
15.80
15.69
15.61
16.12
17.51
19.74
22.35
24.69
26.18
26.49
25.62
23.86
21.59
19.15
16.70
14.22
11.59
8.66
5.37
1.76
-2.12
-6.28
-10.80
-15.69
-20.73
-25.26
-28.29
-28.86
-26.39
-21.06
-13.78
-5.87
1.44
7.43
11.97
15.29
17.68
19.25
19.99
19.97
19.48
19.04
19.24
20.40
22.43
24.86
26.99
28.27
28.43
27.57
26.08
24.34
22.56
20.71
18.51
15.73
12.30
8.42
4.53
0.95
-2.25
-5.41
-9.03
-13.45
-18.39
-22.93
-25.76
-25.85
-22.93
-17.55
-10.89
-4.08
2.14
7.59
12.38
16.44
19.50
21.13
21.20
20.19
19.05
18.79
19.95
22.19
24.59
26.12
26.14
24.73
22.51
20.17
18.20
16.44
14.50
11.97
8.79
5.31
2.16
-0.19
-1.67
-2.83
-4.54
-7.59
-12.24
-17.97
-23.57
-27.62
-28.93
-27.17
-22.80
-16.83
-10.33
-3.99
1.92
7.43
12.54
16.91
20.00
21.36
20.98
19.40
17.62
16.57
16.88
18.47
20.74
22.92
24.34
24.68
23.97
22.46
20.47
18.18
15.67
12.95
9.98
6.81
3.59
0.43
-2.54
-5.46
-8.65
-12.50
-17.28
-22.76
-28.18
-32.31
-33.89
-32.17
-27.15
-19.74
-11.32
-3.29
3.40
8.42
11.96
14.38
15.93
16.64
16.45
15.41
13.86
12.37
11.54
11.77
13.01
14.79
16.36
16.95
16.12
13.85
10.62
7.12
3.95
1.39
-0.75
-2.93
-5.64
-9.10
-13.23
-17.75
-22.39
-26.94
-31.22
-34.79
-36.98
-36.94
-34.06
-28.31
-20.39
-11.57
-3.23
3.60
8.47
11.48
13.07
13.69
13.62
13.04
12.08
11.06
10.35
10.34
11.25
12.88
14.74
16.11
16.36
15.22
12.82
9.64
6.34
3.43
1.15
-0.58
-2.10
-3.77
-5.96
-8.92
-12.72
-17.27
-22.27
-27.15
-31.16
-33.45
-33.31
-30.43
-24.95
-17.54
-9.17
-0.90
6.40
12.17
16.22
18.65
19.80
20.13
20.09
20.07
20.28
20.78
21.53
22.42
23.36
24.23
24.94
25.26
24.87
23.50
21.01
17.57
13.64
9.78
6.41
3.65
1.21
-1.42
-4.72
-8.95
-14.01
-19.47
-24.74
-29.15
-32.10
-33.03
-31.59
-27.66
-21.51
-13.82
-5.59
2.10
8.38
12.76
15.27
16.34
16.60
16.66
16.89
17.46
18.31
19.29
20.28
21.22
22.11
22.87
23.29
23.03
21.80
19.40
16.00
11.99
7.95
4.34
1.36
-1.18
-3.63
-6.41
-9.73
-13.64
-18.04
-22.73
-27.41
-31.66
-34.83
-36.15
-34.95
-30.95
-24.46
-16.34
-7.79
0.08
6.43
10.90
13.50
14.56
14.51
13.90
13.24
12.91
13.10
13.79
14.86
16.15
17.51
18.82
19.89
20.43
20.16
18.86
16.60
13.68
10.53
7.53
4.81
2.24
-0.41
-3.37
-6.72
-10.48
-14.57
-18.94
-23.41
-27.63
-30.93
-32.50
-31.60
-27.85
-21.50
-13.39
-4.74
3.21
9.46
13.53
15.36
15.35
14.05
12.11
10.18
8.78
8.29
8.91
10.61
13.12
15.92
18.36
19.79
19.81
18.35
15.71
12.42
9.07
6.08
3.53
1.25
-1.12
-3.99
-7.60
-12.05
-17.20
-22.84
-28.59
-33.92
-38.13
-40.43
-40.07
-36.72
-30.55
-22.55
-14.07
-6.49
-0.69
3.16
5.56
7.19
8.54
9.57
9.98
9.57
8.60
7.76
7.90
9.45
12.12
14.85
16.38
15.84
13.23
9.32
5.31
2.07
-0.11
-1.74
-3.65
-6.48
-10.36
-14.89
-19.44
-23.63
-27.40
-31.02
-34.61
-37.79
-39.66
-39.12
-35.45
-28.80
-20.17
-11.13
-3.13
2.94
6.94
9.27
10.50
11.02
11.02
10.58
9.83
9.09
8.74
9.01
9.93
11.26
12.57
13.46
13.62
12.94
11.43
9.18
6.32
3.06
-0.37
-3.70
-6.72
-9.37
-11.83
-14.51
-17.83
-22.06
-27.04
-32.12
-36.27
-38.42
-37.83
-34.39
-28.60
-21.34
-13.58
-6.09
0.68
6.46
11.13
14.49
16.46
17.06
16.62
15.69
14.89
14.65
15.09
16.02
17.04
17.80
18.11
17.94
17.37
16.44
15.11
13.29
10.99
8.32
5.57
3.05
0.95
-0.81
-2.56
-4.77
-7.87
-12.01
-16.96
-22.05
-26.30
-28.74
-28.65
-25.84
-20.64
-13.82
-6.30
1.07
7.65
13.02
16.93
19.25
20.10
19.76
18.83
18.00
17.87
18.67
20.26
22.21
23.98
25.17
25.65
25.46
24.73
23.52
21.78
19.44
16.48
13.00
9.25
5.48
1.91
-1.37
-4.40
-7.36
-10.49
-14.00
-17.96
-22.26
-26.55
-30.27
-32.70
-33.21
-31.32
-26.96
-20.42
-12.41
-3.87
4.15
10.72
15.19
17.36
17.51
16.37
14.79
13.55
13.11
13.51
14.52
15.82
17.17
18.45
19.44
19.85
19.32
17.60
14.74
11.22
7.73
4.88
2.78
1.10
-0.75
-3.23
-6.37
-9.81
-13.09
-16.02
-18.96
-22.48
-26.92
-31.89
-36.23
-38.36
-37.08
-32.13
-24.57
-16.19
-8.75
-3.31
0.20
2.53
4.56
6.68
8.53
9.38
8.74
6.82
4.57
3.19
3.55
5.69
8.71
11.30
12.39
11.63
9.52
6.99
4.90
3.64
2.97
2.28
1.03
-1.02
-3.72
-6.77
-9.96
-13.26
-16.90
-21.16
-26.01
-31.08
-35.55
-38.39
-38.68
-35.92
-30.25
-22.48
-13.86
-5.73
0.89
5.47
8.09
9.23
9.49
9.41
9.31
9.25
9.19
9.11
9.10
9.39
10.09
11.14
12.18
12.64
12.01
10.03
6.89
3.19
-0.42
-3.50
-6.00
-8.27
-10.81
-13.99
-17.92
-22.42
-27.22
-32.05
-36.68
-40.81
-43.93
-45.35
-44.35
-40.47
-33.81
-25.14
-15.65
-6.69
0.74
6.14
9.59
11.55
12.60
13.22
13.72
14.26
14.99
16.01
17.43
19.33
21.64
24.10
26.28
27.64
27.75
26.38
23.64
19.93
15.83
11.89
8.38
5.31
2.44
-0.59
-4.06
-8.16
-12.98
-18.50
-24.56
-30.77
-36.37
-40.40
-41.79
-39.82
-34.43
-26.35
-16.87
-7.54
0.42
6.30
10.04
12.09
13.02
13.38
13.52
13.58
13.67
13.93
14.54
15.67
17.32
19.27
21.06
22.07
21.87
20.27
17.50
14.09
10.59
7.38
4.54
1.83
-1.02
-4.22
-7.77
-11.52
-15.33
-19.23
-23.36
-27.81
-32.33
-36.19
-38.36
-37.80
-34.04
-27.36
-18.85
-9.99
-2.12
3.93
7.98
10.38
11.61
12.12
12.18
11.95
11.66
11.55
11.86
12.75
14.18
15.95
17.70
19.01
19.54
19.03
17.43
14.91
11.86
8.71
5.78
3.18
0.79
-1.65
-4.31
-7.24
-10.44
-13.93
-17.80
-22.17
-26.82
-31.04
-33.73
-33.65
-30.04
-23.00
-13.61
-3.55
5.53
12.54
17.19
19.86
21.19
21.76
21.87
21.60
21.06
20.43
20.08
20.37
21.50
23.39
25.62
27.57
28.65
28.49
27.10
24.75
21.94
19.04
16.21
13.37
10.34
7.02
3.47
-0.15
-3.78
-7.61
-11.95
-16.99
-22.49
-27.56
-30.96
-31.49
-28.58
-22.55
-14.51
-5.95
1.78
7.89
12.15
14.81
16.24
16.75
16.49
15.54
14.08
12.46
11.24
10.88
11.68
13.49
15.73
17.61
18.45
17.96
16.28
13.81
10.97
8.05
5.06
1.97
-1.19
-4.32
-7.34
-10.42
-13.95
-18.41
-23.97
-30.24
-36.13
-40.24
-41.30
-38.76
-32.98
-25.09
-16.54
-8.57
-1.86
3.38
7.30
9.82
10.84
10.23
8.25
5.69
3.73
3.50
5.51
9.19
13.26
16.23
17.14
15.97
13.54
10.88
8.68
6.79
4.51
1.17
-3.41
-8.69
-13.68
-17.68
-20.66
-23.42
-26.98
-31.86
-37.52
-42.40
-44.55
-42.60
-36.33
-26.90
-16.25
-6.23
2.01
8.19
12.66
15.84
17.97
19.02
18.95
18.00
16.70
15.70
15.53
16.37
18.05
20.14
22.08
23.36
23.55
22.37
19.80
16.09
11.77
7.44
3.54
0.19
-2.88
-6.17
-10.17
-15.13
-20.90
-27.01
-32.67
-36.99
-39.12
-38.45
-34.71
-28.15
-19.49
-9.83
-0.42
7.67
13.76
17.67
19.63
20.13
19.76
19.07
18.50
18.36
18.81
19.81
21.20
22.66
23.86
24.50
24.41
23.51
21.81
19.46
16.58
13.39
10.10
6.89
3.81
0.82
-2.32
-5.91
-10.19
-15.27
-20.92
-26.53
-31.18
-33.86
-33.76
-30.60
-24.71
-16.98
-8.56
-0.48
6.54
12.22
16.52
19.47
21.12
21.51
20.88
19.76
18.80
18.63
19.50
21.22
23.24
24.88
25.67
25.48
24.40
22.60
20.16
17.04
13.18
8.72
4.00
-0.56
-4.61
-8.11
-11.36
-14.85
-19.00
-23.92
-29.18
-33.93
-37.07
-37.62
-35.07
-29.52
-21.70
-12.72
-3.72
4.40
11.11
16.17
19.56
21.36
21.74
21.07
19.94
19.02
18.89
19.79
21.52
23.58
25.37
26.46
26.74
26.32
25.36
23.89
21.80
18.94
15.30
11.08
6.73
2.66
-0.88
-3.96
-6.94
-10.30
-14.38
-19.27
-24.63
-29.92
-34.35
-37.03
-37.20
-34.27
-28.18
-19.43
-9.10
1.26
10.12
16.43
19.86
20.88
20.45
19.57
18.95
18.73
18.71
18.63
18.46
18.47
19.04
20.30
21.94
23.16
23.05
21.11
17.49
13.00
8.67
5.28
3.04
1.42
-0.32
-2.83
-6.28
-10.40
-14.79
-19.12
-23.27
-27.24
-30.83
-33.48
-34.40
-32.79
-28.34
-21.39
-12.86
-4.06
3.80
9.86
13.76
15.56
15.67
14.65
13.17
11.81
11.03
11.05
11.82
13.11
14.55
15.82
16.67
16.96
16.57
15.44
13.51
10.82
7.52
3.91
0.38
-2.75
-5.35
-7.60
-10.00
-13.12
-17.43
-22.96
-29.11
-34.78
-38.69
-39.74
-37.51
-32.28
-24.95
-16.70
-8.51
-1.06
5.32
10.45
14.13
16.14
16.33
14.93
12.59
10.29
8.95
9.09
10.65
13.00
15.28
16.74
16.98
15.92
13.78
10.81
7.24
3.35
-0.64
-4.48
-7.97
-11.05
-13.89
-16.86
-20.45
-25.06
-30.78
-37.21
-43.35
-47.85
-49.36
-47.04
-40.91
-31.85
-21.37
-11.04
-2.01
5.18
10.53
14.33
16.84
18.29
18.80
18.62
18.16
17.94
18.39
19.67
21.58
23.65
25.27
25.99
25.68
24.49
22.71
20.61
18.23
15.51
12.33
8.70
4.81
0.89
-2.88
-6.63
-10.72
-15.50
-21.09
-27.08
-32.52
-36.15
-36.83
-34.01
-27.99
-19.87
-11.12
-3.10
3.40
8.24
11.68
14.08
15.54
16.03
15.55
14.42
13.24
12.76
13.44
15.22
17.55
19.63
20.83
20.88
19.94
18.36
16.43
14.24
11.71
8.71
5.23
1.44
-2.32
-5.71
-8.63
-11.27
-14.10
-17.65
-22.15
-27.27
-32.09
-35.31
-35.74
-32.83
-26.82
-18.73
-9.91
-1.58
5.47
10.95
14.88
17.39
18.60
18.71
18.03
17.09
16.48
16.63
17.68
19.41
21.32
22.93
23.85
23.92
23.17
21.71
19.67
17.15
14.24
10.98
7.47
3.84
0.25
-3.15
-6.30
-9.32
-12.46
-16.04
-20.30
-25.07
-29.71
-33.14
-34.20
-32.10
-26.79
-19.02
-10.14
-1.53
5.81
11.43
15.37
17.83
18.96
18.85
17.70
15.98
14.38
13.57
13.94
15.35
17.28
19.02
19.99
19.94
18.91
17.07
14.54
11.42
7.78
3.80
-0.25
-4.02
-7.24
-9.90
-12.26
-14.85
-18.20
-22.62
-27.91
-33.23
-37.38
-39.03
-37.31
-32.20
-24.50
-15.57
-6.84
0.65
6.35
10.09
11.98
12.19
11.05
9.15
7.18
5.86
5.54
6.20
7.43
8.79
9.94
10.82
11.34
11.37
10.52
8.42
4.99
0.58
-4.08
-8.21
-11.42
-13.86
-16.36
-19.85
-24.99
-31.64
-38.82
-44.93
-48.41
-48.21
-44.36
-37.77
-29.81
-21.78
-14.43
-7.85
-1.86
3.63
8.21
11.19
12.04
10.82
8.34
6.01
5.07
6.19
9.06
12.64
15.65
17.15
16.81
14.90
12.05
8.93
5.96
3.30
0.86
-1.56
-4.20
-7.20
-10.65
-14.53
-18.92
-23.75
-28.81
-33.57
-37.15
-38.56
-37.03
-32.41
-25.27
-16.78
-8.28
-0.83
4.97
9.10
11.76
13.29
13.96
14.04
13.83
13.65
13.82
14.48
15.65
17.13
18.66
19.94
20.66
20.55
19.48
17.45
14.69
11.51
8.26
5.09
1.94
-1.46
-5.42
-10.16
-15.62
-21.47
-27.14
-31.92
-35.07
-35.99
-34.34
-30.18
-23.98
-16.53
-8.75
-1.48
4.72
9.57
13.03
15.21
16.28
16.50
16.25
15.96
16.07
16.81
18.20
19.95
21.66
22.94
23.54
23.36
22.43
20.83
18.65
16.03
13.13
10.15
7.24
4.40
1.46
-1.89
-5.93
-10.81
-16.35
-21.96
-26.75
-29.74
-30.12
-27.60
-22.53
-15.74
-8.32
-1.23
4.92
9.82
13.48
15.90
17.12
17.27
16.64
15.75
15.19
15.41
16.52
18.23
20.02
21.34
21.81
21.39
20.19
18.46
16.39
14.08
11.53
8.77
5.86
2.96
0.12
-2.71
-5.79
-9.43
-13.87
-18.95
-24.06
-28.25
-30.49
-30.10
-26.94
-21.53
-14.75
-7.58
-0.80
5.13
9.86
13.19
15.00
15.31
14.45
13.05
11.87
11.54
12.23
13.67
15.30
16.62
17.36
17.60
17.52
17.27
16.59
15.17
12.70
9.21
5.15
1.24
-1.87
-3.90
-5.21
-6.59
-8.90
-12.64
-17.63
-23.01
-27.59
-30.26
-30.50
-28.41
-24.52
-19.48
-13.79
-7.74
-1.57
4.40
9.61
13.42
15.38
15.52
14.36
12.78
11.64
11.53
12.46
14.03
15.64
16.75
17.09
16.67
15.67
14.40
12.97
11.42
9.69
7.71
5.51
3.19
0.89
-1.29
-3.37
-5.56
-8.13
-11.39
-15.42
-20.01
-24.48
-27.86
-29.16
-27.70
-23.43
-17.01
-9.59
-2.40
3.64
8.16
11.26
13.22
14.31
14.61
14.14
13.08
11.84
11.04
11.20
12.50
14.65
16.93
18.54
18.84
17.64
15.23
12.19
9.13
6.46
4.23
2.25
0.22
-2.06
-4.62
-7.40
-10.37
-13.60
-17.21
-21.13
-24.96
-27.89
-28.95
-27.43
-23.17
-16.82
-9.53
-2.61
2.92
6.63
8.64
9.39
9.35
8.79
7.83
6.59
5.26
4.27
4.08
5.01
6.93
9.25
11.06
11.50
10.13
7.16
3.33
-0.42
-3.41
-5.49
-7.04
-8.64
-10.85
-13.94
-17.83
-22.24
-26.77
-30.95
-34.26
-36.04
-35.74
-33.05
-28.06
-21.38
-13.95
-6.77
-0.66
3.95
6.98
8.60
9.15
8.97
8.42
7.84
7.47
7.56
8.16
9.26
10.69
12.16
13.34
13.85
13.36
11.75
9.13
5.81
2.27
-1.10
-4.10
-6.80
-9.54
-12.68
-16.53
-21.15
-26.29
-31.40
-35.70
-38.38
-38.80
-36.63
-32.01
-25.50
-17.96
-10.31
-3.32
2.52
6.96
9.97
11.63
12.18
11.98
11.46
11.07
11.12
11.64
12.51
13.46
14.25
14.77
15.00
14.89
14.34
13.16
11.24
8.63
5.61
2.54
-0.29
-2.82
-5.26
-7.99
-11.33
-15.39
-19.94
-24.43
-28.08
-30.09
-29.84
-27.15
-22.34
-16.21
-9.73
-3.72
1.40
5.60
9.06
11.88
13.98
15.13
15.23
14.53
13.60
13.10
13.46
14.69
16.33
17.79
18.54
18.36
17.35
15.75
13.81
11.65
9.32
6.80
4.14
1.44
-1.22
-3.80
-6.43
-9.36
-12.85
-16.99
-21.46
-25.54
-28.23
-28.65
-26.35
-21.59
-15.15
-8.13
-1.55
3.95
8.08
10.87
12.50
13.19
13.16
12.73
12.28
12.17
12.66
13.77
15.28
16.82
17.99
18.55
18.45
17.75
16.59
15.07
13.22
10.98
8.30
5.23
1.96
-1.33
-4.46
-7.42
-10.39
-13.67
-17.42
-21.58
-25.61
-28.81
-30.39
-29.83
-27.00
-22.20
-15.97
-9.00
-2.01
4.22
8.96
11.69
12.30
11.28
9.58
8.25
8.01
8.84
10.20
11.37
11.93
11.94
11.87
12.09
12.64
12.92
12.16
9.90
6.33
2.29
-1.16
-3.32
-4.18
-4.53
-5.43
-7.72
-11.55
-16.45
-21.50
-25.83
-28.79
-30.14
-29.84
-27.90
-24.42
-19.59
-13.81
-7.73
-2.07
2.47
5.44
6.65
6.24
4.56
2.19
-0.20
-1.88
-2.36
-1.48
0.47
2.84
4.92
6.10
6.16
5.21
3.59
1.66
-0.37
-2.48
-4.80
-7.43
-10.36
-13.47
-16.57
-19.61
-22.63
-25.80
-29.17
-32.49
-35.08
-36.04
-34.58
-30.41
-23.96
-16.28
-8.61
-2.04
2.84
6.00
7.73
8.42
8.32
7.62
6.53
5.37
4.62
4.66
5.66
7.44
9.43
10.96
11.40
10.46
8.24
5.16
1.79
-1.43
-4.27
-6.78
-9.25
-12.03
-15.45
-19.65
-24.55
-29.69
-34.34
-37.62
-38.72
-37.19
-33.11
-27.00
-19.70
-12.02
-4.66
1.95
7.53
11.88
14.84
16.44
16.87
16.60
16.18
16.09
16.58
17.64
19.07
20.59
21.96
22.90
23.19
22.64
21.15
18.80
15.91
12.90
10.14
7.77
5.59
3.16
-0.01
-4.27
-9.63
-15.63
-21.49
-26.19
-28.88
-28.99
-26.47
-21.72
-15.43
-8.34
-1.15
5.55
