1552680458.00
64.000000
-0.00
-0.00
-0.00
-0.00
-0.00
-0.00
-0.00
-0.00
-0.00
-0.00
0.00
0.01
0.01
-0.00
-0.03
-0.05
-0.05
0.00
0.13
0.36
0.66
1.01
1.37
1.72
2.06
2.40
2.79
3.24
3.80
4.42
5.06
5.66
6.20
6.68
7.15
7.68
8.31
9.14
10.09
11.04
11.88
12.56
13.14
13.76
14.65
15.96
17.91
20.32
22.90
25.38
27.58
29.57
31.68
34.32
37.81
42.54
48.15
54.10
59.83
64.97
69.58
74.14
79.34
85.71
93.76
103.00
112.62
121.73
129.77
136.75
143.30
150.75
157.77
166.64
177.95
191.79
206.97
220.57
228.25
225.36
208.53
176.87
132.76
80.05
23.07
-34.94
-92.44
-149.16
-205.23
-260.37
-313.74
-363.87
-409.83
-450.91
-486.50
-515.74
-537.23
-549.22
-549.96
-538.37
-514.21
-478.67
-433.88
-382.45
-327.02
-269.84
-212.63
-156.66
-102.95
-52.37
-5.90
35.58
71.43
101.35
125.50
144.38
158.69
169.15
176.37
180.75
182.57
182.07
179.51
175.23
169.65
163.18
156.15
148.81
141.30
133.69
126.02
118.33
110.69
103.16
95.80
88.68
81.83
75.25
68.95
62.95
57.25
51.86
46.78
42.03
37.59
33.45
29.61
26.07
22.81
19.83
17.11
14.67
12.48
10.54
8.83
7.35
6.07
4.97
4.05
3.27
2.62
2.09
1.65
1.30
1.01
0.79
0.61
0.48
0.37
0.29
0.24
0.20
0.18
0.17
0.17
0.19
0.21
0.24
0.27
0.31
0.35
0.39
0.44
0.48
0.53
0.58
0.63
0.69
0.75
0.81
0.88
0.95
1.03
1.13
1.23
1.34
1.47
1.61
1.78
1.96
2.15
2.38
2.62
2.90
3.20
3.52
3.89
4.28
4.71
5.17
5.67
6.20
6.78
7.42
8.09
8.81
9.53
10.27
11.00
11.74
12.54
13.41
14.39
15.48
16.65
17.85
19.06
20.21
21.29
22.25
23.04
23.55
23.65
23.17
21.93
19.83
16.85
13.10
8.72
3.99
-0.83
-5.55
-10.09
-14.42
-18.50
-22.24
-25.46
-27.91
-29.39
-29.84
-29.44
-28.61
-27.86
-27.60
-27.99
-28.83
-29.68
-30.06
-29.71
-28.75
-27.72
-27.26
-27.89
-29.69
-32.25
-34.77
-36.53
-37.12
-36.71
-35.87
-35.32
-35.68
-37.24
-40.14
-44.19
-48.65
-51.99
-52.07
-46.70
-34.74
-16.97
3.85
23.90
39.77
49.83
54.56
55.78
55.37
54.16
51.76
47.28
40.35
31.70
22.99
15.94
11.47
9.31
8.36
7.25
5.24
2.43
-0.48
-2.66
-3.90
-4.61
-5.53
-7.25
-9.82
-12.77
-15.35
-17.02
-17.62
-17.33
-16.31
-14.49
-11.67
-7.81
-3.21
1.55
5.99
10.24
15.03
21.36
29.72
39.44
48.63
54.88
56.34
52.67
45.28
36.66
29.23
24.38
22.08
21.32
20.91
20.26
19.47
18.99
18.88
18.47
16.51
11.95
4.55
-4.77
-14.29
-22.27
-27.61
-30.15
-30.43
-29.19
-27.04
-24.40
-21.64
-19.27
-17.91
-17.98
-19.57
-22.25
-25.38
-28.36
-30.85
-32.75
-34.09
-34.84
-34.84
-33.89
-31.97
-29.36
-26.65
-24.44
-23.18
-22.84
-22.89
-22.54
-21.04
-18.06
-13.89
-9.36
-5.47
-3.04
-2.36
-3.11
-4.61
-6.18
-7.49
-8.63
-9.95
-11.80
-14.24
-16.99
-19.60
-21.69
-23.05
-23.50
-22.75
-20.26
-15.58
-8.68
-0.39
7.75
14.00
17.33
18.19
18.43
20.74
27.49
39.81
57.19
77.84
99.38
119.64
137.04
150.61
159.89
164.77
165.54
162.91
157.76
150.86
142.37
131.75
118.01
100.39
78.97
55.00
30.62
8.35
-9.47
-20.97
-24.95
-20.98
-9.63
7.30
26.75
44.91
58.05
63.56
60.68
50.65
36.24
20.88
7.71
-1.28
-5.60
-6.32
-5.75
-6.81
-12.38
-24.54
-43.92
-69.30
-97.59
-124.39
-145.43
-158.08
-162.43
-161.02
-157.37
-153.90
-150.89
-146.73
-139.69
-129.75
-119.22
-111.71
-110.06
-114.47
-122.19
-128.94
-131.26
-128.13
-121.08
-112.84
-105.42
-99.24
-93.16
-85.77
-76.49
-65.90
-54.93
-43.52
-29.81
-10.79
15.72
48.83
83.60
112.16
126.82
123.33
102.76
71.02
36.35
6.22
-14.84
-25.94
-28.95
-27.09
-23.73
-21.81
-23.58
-30.05
-40.63
-52.65
-61.85
-63.66
-55.33
-37.53
-14.67
6.67
20.39
23.50
17.50
7.65
0.74
2.20
14.11
34.79
59.95
84.79
105.79
121.65
133.07
141.98
150.39
159.44
169.02
177.79
183.77
185.19
181.22
172.34
160.14
146.77
134.12
123.26
114.08
105.56
96.45
85.83
73.63
60.59
47.79
36.20
26.19
17.52
9.61
2.01
-5.23
-11.52
-16.16
-18.83
-19.97
-20.63
-21.99
-24.73
-28.68
-33.05
-36.86
-39.57
-41.35
-42.91
-45.12
-48.50
-53.00
-58.04
-62.82
-66.61
-68.99
-69.91
-69.55
-68.22
-66.22
-63.87
-61.48
-59.29
-57.41
-55.70
-53.75
-51.01
-47.15
-42.22
-36.74
-31.43
-26.90
-23.47
-21.21
-20.23
-20.75
-23.09
-27.23
-32.59
-37.92
-41.67
-42.67
-40.48
-35.63
-29.25
-22.72
-17.23
-13.66
-12.51
-13.83
-17.23
-21.78
-26.30
-29.65
-31.16
-30.82
-29.23
-27.30
-25.87
-25.34
-25.63
-26.24
-26.44
-25.54
-23.04
-18.81
-13.15
-6.68
-0.19
5.65
10.43
14.01
16.51
18.02
18.62
18.30
17.10
15.20
13.05
11.19
10.08
9.88
10.32
10.86
10.97
10.43
9.44
8.42
7.75
7.50
7.41
7.00
5.93
4.10
1.71
-0.89
-3.41
-5.69
-7.79
-9.82
-11.89
-13.93
-15.68
-16.69
-16.43
-14.50
-10.83
-5.86
-0.40
4.54
8.24
10.39
11.16
11.02
10.42
9.61
8.67
7.58
6.45
5.51
5.05
5.33
6.37
8.02
9.97
11.90
13.63
15.09
16.24
17.00
17.21
16.68
15.30
13.15
10.52
7.78
5.23
2.91
0.69
-1.69
-4.36
-7.15
-9.62
-11.13
-11.09
-9.23
-5.59
-0.61
5.05
10.61
15.43
19.00
21.11
21.77
21.18
19.66
17.60
15.41
13.46
12.00
11.21
11.11
11.68
12.82
14.37
16.10
17.70
18.82
19.19
18.62
17.11
14.74
11.69
8.13
4.28
0.38
-3.28
-6.46
-9.08
-11.26
-13.30
-15.62
-18.52
-22.02
-25.81
-29.28
-31.67
-32.28
-30.64
-26.69
-20.84
-13.91
-6.94
-0.92
3.42
5.79
6.36
5.57
4.03
2.27
0.74
-0.25
-0.53
0.01
1.30
3.17
5.31
7.33
8.89
9.69
9.62
8.67
6.95
4.60
1.73
-1.64
-5.50
-9.93
-15.00
-20.69
-26.88
-33.31
-39.66
-45.64
-51.08
-55.86
-59.99
-63.46
-66.22
-68.15
-69.03
-68.49
-66.06
-61.28
-53.85
-43.78
-31.45
-17.58
-3.13
10.97
23.87
34.95
43.81
50.31
54.56
56.93
58.01
58.48
58.93
59.67
60.67
61.66
62.23
62.10
61.17
59.58
57.57
55.41
53.30
51.32
49.40
47.43
45.29
42.93
40.45
38.05
35.98
34.32
33.00
31.78
30.41
28.78
26.97
25.05
23.04
20.73
17.85
14.26
10.11
5.92
2.33
-0.10
-1.11
-0.74
0.83
3.43
7.02
11.58
16.96
22.71
28.08
32.19
34.29
34.08
31.87
28.47
24.99
22.42
21.31
21.62
22.90
24.44
25.57
25.69
24.33
21.13
15.91
8.77
0.27
-8.55
-16.43
-22.24
-25.38
-26.00
-24.89
-23.17
-21.81
-21.33
-21.66
-22.31
-22.71
-22.55
-21.87
-21.07
-20.53
-20.38
-20.39
-20.05
-18.84
-16.55
-13.35
-9.73
-6.22
-3.24
-1.01
0.38
0.92
0.58
-0.56
-2.31
-4.37
-6.32
-7.78
-8.45
-8.21
-7.13
-5.48
-3.68
-2.21
-1.47
-1.63
-2.61
-4.10
-5.74
-7.26
-8.54
-9.56
-10.30
-10.72
-10.69
-10.17
-9.22
-8.07
-7.05
-6.47
-6.55
-7.34
-8.71
-10.40
-12.07
-13.33
-13.81
-13.26
-11.58
-8.90
-5.54
-1.95
1.41
4.14
5.97
6.75
6.48
5.24
3.27
0.93
-1.32
-3.04
-3.83
-3.49
-2.11
-0.02
2.30
4.33
5.70
6.27
6.11
5.40
4.31
2.94
1.30
-0.63
-2.80
-5.12
-7.41
-9.54
-11.34
-12.75
-13.71
-14.26
-14.58
-14.96
-15.81
-17.45
-19.99
-23.12
-26.21
-28.48
-29.22
-28.12
-25.23
-21.01
-16.10
-11.20
-6.91
-3.68
-1.73
-1.03
-1.37
-2.32
-3.47
-4.47
-5.14
-5.50
-5.63
-5.63
-5.48
-5.19
-4.72
-4.13
-3.51
-2.94
-2.44
-2.02
-1.71
-1.67
-2.11
-3.25
-5.17
-7.69
-10.43
-12.96
-14.92
-16.23
-16.99
-17.46
-17.95
-18.69
-19.84
-21.43
-23.43
-25.68
-27.91
-29.72
-30.70
-30.51
-29.00
-26.33
-22.94
-19.52
-16.72
-15.06
-14.74
-15.66
-17.53
-19.99
-22.72
-25.45
-27.95
-29.92
-31.09
-31.17
-29.96
-27.34
-23.22
-17.60
-10.57
-2.36
6.61
15.87
24.90
33.29
40.74
47.00
51.89
55.26
57.07
57.42
56.62
55.01
52.98
50.72
48.28
45.55
42.38
38.72
34.64
30.35
26.11
22.30
19.26
17.32
16.68
17.28
18.80
20.67
22.24
22.98
22.65
21.32
19.33
17.05
14.75
12.52
10.35
8.21
6.19
4.49
3.41
3.13
3.68
4.82
6.15
7.23
7.77
7.68
7.15
6.47
5.90
5.51
5.16
4.55
3.48
1.90
0.05
-1.68
-2.94
-3.65
-3.98
-4.28
-4.91
-6.07
-7.75
-9.77
-11.80
-13.48
-14.36
-14.07
-12.35
-9.28
-5.28
-1.12
2.38
4.49
4.97
4.04
2.32
0.53
-0.74
-1.32
-1.43
-1.47
-1.81
-2.44
-3.09
-3.27
-2.66
-1.28
0.52
2.25
3.51
4.18
4.34
4.15
3.65
2.72
1.27
-0.74
-3.12
-5.48
-7.43
-8.70
-9.31
-9.54
-9.78
-10.37
-11.45
-12.90
-14.38
-15.52
-16.03
-15.76
-14.67
-12.82
-10.29
-7.26
-3.98
-0.84
1.75
3.46
4.19
4.11
3.53
2.86
2.34
2.07
1.97
1.92
1.90
2.01
2.37
3.06
3.97
4.86
5.46
5.58
5.20
4.47
3.59
2.67
1.69
0.55
-0.80
-2.30
-3.70
-4.76
-5.37
-5.67
-5.98
-6.66
-7.84
-9.32
-10.61
-11.07
-10.24
-8.00
-4.65
-0.73
3.15
6.49
9.02
10.62
11.30
11.10
10.13
8.52
6.50
4.37
2.43
0.94
0.00
-0.44
-0.54
-0.48
-0.33
-0.09
0.27
0.71
1.12
1.31
1.13
0.55
-0.34
-1.41
-2.61
-3.94
-5.48
-7.25
-9.18
-11.09
-12.75
-14.01
-14.82
-15.26
-15.37
-15.07
-14.06
-11.84
-7.87
-1.83
6.14
15.37
24.76
33.05
39.19
42.45
42.59
39.79
34.58
27.69
19.96
12.21
5.06
-1.05
-5.94
-9.56
-12.06
-13.59
-14.39
-14.71
-14.76
-14.71
-14.55
-14.23
-13.71
-13.05
-12.45
-12.13
-12.20
-12.61
-13.22
-13.80
-14.28
-14.68
-15.16
-15.89
-17.03
-18.61
-20.55
-22.65
-24.55
-25.85
-26.14
-25.05
-22.36
-18.08
-12.46
-5.97
0.75
7.04
12.31
16.20
18.63
19.73
19.81
19.19
18.16
16.94
15.70
14.63
13.89
13.55
13.54
13.70
13.79
13.63
13.18
12.54
11.88
11.32
10.89
10.46
9.88
9.00
7.81
6.38
4.82
3.26
1.79
0.47
-0.69
-1.69
-2.61
-3.62
-4.92
-6.67
-8.88
-11.31
-13.50
-14.92
-15.16
-14.03
-11.63
-8.28
-4.39
-0.43
3.19
6.09
8.01
8.88
8.87
8.26
7.44
6.62
5.86
5.08
4.23
3.39
2.77
2.59
2.88
3.51
4.21
4.74
5.07
5.27
5.49
5.75
5.89
5.67
4.89
3.47
1.60
-0.43
-2.27
-3.63
-4.35
-4.47
-4.24
-4.04
-4.28
-5.22
-6.86
-9.03
-11.33
-13.35
-14.72
-15.17
-14.56
-12.86
-10.21
-6.93
-3.45
-0.29
2.15
3.63
4.10
3.66
2.46
0.61
-1.77
-4.54
-7.42
-10.04
-12.01
-13.00
-13.01
-12.28
-11.33
-10.67
-10.71
-11.54
-13.02
-14.86
-16.78
-18.67
-20.58
-22.68
-25.12
-27.97
-31.17
-34.56
-37.98
-41.29
-44.37
-47.11
-49.28
-50.55
-50.49
-48.72
-45.05
-39.57
-32.61
-24.56
-15.69
-6.05
4.34
15.35
26.47
36.85
45.50
51.66
55.05
55.99
55.13
53.14
50.51
47.48
44.19
40.87
37.92
35.80
34.74
34.61
34.80
34.62
33.58
31.67
29.39
27.43
26.25
25.87
25.82
25.44
24.21
21.98
18.96
15.55
12.08
8.69
5.35
1.92
-1.72
-5.64
-9.83
-14.25
-18.70
-22.80
-25.96
-27.53
-26.98
-24.10
-19.11
-12.58
-5.36
1.65
7.67
12.13
14.78
15.62
14.96
13.22
10.88
8.36
5.96
3.85
2.14
0.90
0.21
0.15
0.70
1.75
3.04
4.25
5.13
5.52
5.49
5.10
4.45
3.49
2.18
0.51
-1.44
-3.47
-5.41
-7.13
-8.64
-9.95
-11.05
-11.93
-12.65
-13.40
-14.44
-15.94
-17.85
-19.72
-20.99
-21.13
-19.95
-17.62
-14.55
-11.12
-7.55
-3.88
-0.15
3.49
6.72
9.23
10.81
11.48
11.42
10.85
9.94
8.80
7.56
6.40
5.58
5.41
6.02
7.37
9.18
11.06
12.59
13.50
13.69
13.25
12.36
11.25
10.06
8.89
7.72
6.53
5.26
3.86
2.30
0.57
-1.28
-3.21
-5.17
-7.15
-9.19
-11.30
-13.48
-15.58
-17.37
-18.59
-19.02
-18.57
-17.27
-15.23
-12.58
-9.45
-5.93
-2.21
1.49
4.82
7.44
9.08
9.68
9.37
8.44
7.20
5.87
4.58
3.40
2.48
2.07
2.43
3.71
5.71
8.02
10.07
11.44
12.03
11.96
11.52
10.90
10.16
9.24
8.13
6.91
5.71
4.62
3.55
2.29
0.63
-1.42
-3.61
-5.56
-6.98
-7.81
-8.28
-8.77
-9.61
-10.94
-12.68
-14.51
-16.09
-17.07
-17.22
-16.39
-14.50
-11.54
-7.68
-3.30
1.05
4.67
7.03
7.92
7.58
6.54
5.42
4.58
4.07
3.73
3.37
3.03
2.95
3.43
4.64
6.44
8.43
10.16
11.28
11.69
11.46
10.77
9.77
8.54
7.12
5.54
3.81
2.02
0.27
-1.33
-2.69
-3.77
-4.59
-5.29
-6.01
-6.95
-8.20
-9.73
-11.38
-12.91
-14.14
-14.99
-15.58
-16.02
-16.32
-16.24
-15.40
-13.40
-10.18
-6.04
-1.63
2.36
5.43
7.46
8.60
9.10
9.08
8.55
7.48
5.95
4.23
2.74
1.87
1.77
2.42
3.54
4.81
5.96
6.87
7.48
7.83
7.92
7.68
7.01
5.80
4.01
1.75
-0.75
-3.16
-5.17
-6.52
-7.17
-7.20
-6.86
-6.47
-6.34
-6.66
-7.39
-8.34
-9.12
-9.36
-8.73
-7.12
-4.63
-1.50
1.92
5.26
8.18
10.44
11.90
12.54
12.37
11.47
9.97
8.10
6.18
4.56
3.52
3.18
3.49
4.26
5.29
6.47
7.73
8.98
10.06
10.69
10.64
9.73
7.99
5.59
2.75
-0.30
-3.38
-6.30
-8.90
-11.01
-12.52
-13.50
-14.15
-14.85
-15.97
-17.81
-20.40
-23.53
-26.69
-29.24
-30.61
-30.39
-28.44
-24.96
-20.33
-15.08
-9.75
-4.88
-0.88
1.97
3.63
4.25
4.18
3.79
3.30
2.82
2.32
1.80
1.39
1.34
1.92
3.27
5.24
7.50
9.63
11.26
12.25
12.57
12.30
11.55
10.38
8.91
7.29
5.69
4.23
2.97
1.82
0.60
-0.91
-2.85
-5.23
-7.90
-10.57
-12.98
-14.89
-16.15
-16.65
-16.34
-15.10
-12.84
-9.56
-5.40
-0.71
4.00
8.14
11.21
12.93
13.27
12.44
10.80
8.74
6.61
4.63
3.00
1.87
1.47
1.99
3.54
5.98
8.94
11.85
14.12
15.41
15.61
14.96
13.81
12.52
11.30
10.21
9.14
7.94
6.49
4.72
2.63
0.30
-2.21
-4.82
-7.48
-10.12
-12.63
-14.86
-16.67
-17.97
-18.63
-18.51
-17.40
-15.06
-11.38
-6.50
-0.91
4.68
9.57
13.28
15.71
17.06
17.57
17.43
16.64
15.17
13.15
10.95
9.14
8.18
8.31
9.32
10.74
12.06
12.95
13.33
13.33
13.08
12.58
11.71
10.23
8.03
5.17
1.94
-1.23
-3.95
-5.94
-7.19
-7.92
-8.47
-9.16
-10.21
-11.64
-13.26
-14.79
-15.84
-16.08
-15.29
-13.37
-10.41
-6.63
-2.42
1.75
5.43
8.24
9.97
10.57
10.12
8.78
6.71
4.10
1.21
-1.59
-3.90
-5.31
-5.60
-4.81
-3.20
-1.18
0.87
2.69
4.15
5.21
5.83
5.99
5.73
5.06
4.03
2.68
1.02
-0.92
-3.07
-5.30
-7.51
-9.63
-11.67
-13.66
-15.66
-17.68
-19.70
-21.64
-23.36
-24.63
-25.21
-24.83
-23.39
-20.91
-17.53
-13.50
-9.02
-4.32
0.37
4.68
8.27
10.84
12.31
12.83
12.69
12.15
11.36
10.36
9.22
8.16
7.54
7.75
8.94
10.92
13.19
15.15
16.34
16.62
16.15
15.26
14.16
12.94
11.51
9.76
7.70
5.50
3.42
1.68
0.37
-0.62
-1.49
-2.46
-3.75
-5.44
-7.54
-9.90
-12.32
-14.45
-15.99
-16.65
-16.36
-15.12
-12.99
-10.07
-6.46
-2.34
1.94
5.93
9.16
11.34
12.35
12.32
11.43
9.88
7.84
5.52
3.21
1.34
0.38
0.68
2.30
4.97
8.11
11.02
13.10
14.06
13.92
13.03
11.79
10.53
9.32
8.14
6.86
5.48
4.01
2.50
0.94
-0.74
-2.56
-4.41
-6.06
-7.31
-8.07
-8.51
-8.99
-9.84
-11.25
-13.09
-15.02
-16.53
-17.14
-16.49
-14.41
-11.00
-6.58
-1.68
3.09
7.22
10.34
12.35
13.32
13.41
12.79
11.65
10.21
8.74
7.60
7.02
7.12
7.73
8.58
9.35
9.83
9.96
9.84
9.55
9.18
8.69
8.00
6.98
5.61
3.82
1.65
-0.84
-3.50
-6.07
-8.27
-9.81
-10.62
-10.88
-11.00
-11.43
-12.51
-14.18
-16.09
-17.69
-18.45
-18.07
-16.51
-13.91
-10.55
-6.71
-2.72
1.04
4.20
6.47
7.74
8.11
7.83
7.16
6.28
5.19
3.86
2.24
0.44
-1.25
-2.53
-3.10
-2.83
-1.83
-0.40
1.01
1.95
2.17
1.64
0.61
-0.60
-1.73
-2.76
-3.85
-5.24
-7.10
-9.37
-11.83
-14.20
-16.27
-18.02
-19.60
-21.25
-23.19
-25.54
-28.29
-31.28
-34.26
-36.92
-39.00
-40.27
-40.64
-40.02
-38.44
-36.04
-33.12
-30.13
-27.58
-25.90
-25.28
-25.59
-26.48
-27.52
-28.41
-28.93
-29.02
-28.47
-26.92
-23.85
-18.76
-11.46
-2.23
8.17
18.71
28.34
36.30
42.29
46.43
49.06
50.55
51.11
50.77
49.50
47.32
44.38
40.99
37.51
34.23
31.29
28.63
26.05
23.24
19.96
16.08
11.72
7.21
2.99
-0.46
-2.81
-3.88
-3.69
-2.35
-0.06
2.89
6.13
9.23
11.80
13.58
14.53
14.78
14.54
13.91
12.90
11.45
9.59
7.53
5.67
4.48
4.29
5.15
6.82
8.76
10.41
11.35
11.47
10.92
10.02
9.10
8.31
7.63
6.86
5.86
4.55
3.02
1.48
0.11
-1.01
-1.97
-2.94
-4.18
-5.83
-7.88
-10.17
-12.40
-14.25
-15.44
-15.86
-15.44
-14.18
-12.06
-9.12
-5.50
-1.49
2.43
5.75
8.05
9.18
9.27
8.63
7.58
6.28
4.70
2.78
0.59
-1.55
-3.10
-3.50
-2.47
-0.20
2.73
5.55
7.60
8.59
8.61
8.03
7.23
6.46
5.79
5.16
4.47
3.67
2.77
1.82
0.84
-0.11
-1.07
-2.08
-3.19
-4.44
-5.78
-7.15
-8.44
-9.61
-10.67
-11.63
-12.40
-12.72
-12.24
-10.62
-7.76
-3.86
0.53
4.77
8.31
10.89
12.63
13.78
14.66
15.38
15.89
15.99
15.55
14.62
13.45
12.39
11.73
11.52
11.55
11.53
11.22
10.63
9.95
9.40
9.03
8.64
7.82
6.22
3.74
0.61
-2.68
-5.64
-8.02
-9.84
-11.32
-12.63
-13.84
-14.81
-15.36
-15.38
-14.88
-13.95
-12.66
-11.02
-8.93
-6.37
-3.46
-0.51
2.07
3.91
4.86
4.98
4.46
3.50
2.15
0.37
-1.90
-4.50
-7.05
-9.01
-9.90
-9.53
-8.09
-6.11
-4.24
-2.97
-2.49
-2.71
-3.33
-4.10
-4.89
-5.71
-6.64
-7.71
-8.82
-9.80
-10.56
-11.17
-11.93
-13.16
-15.10
-17.64
-20.43
-22.90
-24.56
-25.09
-24.41
-22.63
-19.91
-16.45
-12.50
-8.37
-4.46
-1.10
1.51
3.46
4.99
6.40
7.92
9.63
11.53
13.58
15.79
18.16
20.67
23.11
25.08
26.07
25.59
23.37
19.55
14.75
9.88
5.98
3.85
3.85
5.72
8.59
11.12
11.76
9.15
2.46
-8.27
-21.99
-36.88
-50.75
-61.66
-68.29
-70.18
-67.57
-61.13
-51.73
-40.30
-27.83
-15.32
-3.69
6.34
14.51
20.93
25.98
30.07
33.38
35.78
36.95
36.66
34.91
32.08
28.81
25.73
23.30
21.66
20.71
20.28
20.28
20.71
21.66
23.11
24.83
26.38
27.25
27.03
25.59
23.18
20.41
18.11
17.00
17.42
19.08
21.08
22.24
21.63
19.12
15.58
12.65
12.13
15.14
21.59
30.21
39.05
46.26
50.93
53.29
54.52
56.27
59.96
66.30
74.74
83.31
88.44
85.48
69.92
39.10
-6.16
-60.90
-116.95
-165.34
-199.04
-214.91
-213.94
-199.88
-177.26
-149.78
-119.98
-89.73
-60.97
-35.93
-16.58
-3.84
2.96
5.82
7.25
9.28
12.77
17.37
21.82
24.74
25.32
23.87
21.77
21.17
23.98
31.03
41.51
53.08
62.74
67.96
67.58
62.07
53.12
42.91
33.45
26.34
22.66
22.98
27.29
34.77
43.87
52.59
58.96
61.60
59.94
54.06
44.35
31.15
14.67
-4.88
-27.08
-51.21
-76.38
-101.65
-126.11
-148.84
-168.91
-185.38
-197.46
-204.75
-207.45
-206.45
-203.20
-199.38
-196.41
-194.85
-193.91
-191.40
-184.11
-168.83
-143.50
-108.25
-65.61
-19.98
23.64
61.02
89.71
109.43
121.64
128.76
133.13
136.47
139.59
142.72
145.78
148.65
151.06
152.41
151.76
148.06
140.68
129.89
116.93
103.56
91.51
81.95
75.22
70.80
67.36
62.79
54.38
39.42
16.04
-15.68
-53.26
-92.22
-127.32
-154.26
-170.79
-176.97
-174.46
-165.37
-151.54
-134.33
-114.86
-94.19
-73.36
-53.03
-33.28
-13.61
6.66
27.72
48.95
68.84
85.51
97.25
103.01
102.55
96.41
85.76
72.14
57.26
42.56
28.98
16.86
6.11
-3.33
-11.30
-17.35
-21.08
-22.40
-21.67
-19.43
-16.08
-11.47
-4.99
4.24
16.93
33.31
53.08
75.68
100.47
126.79
153.83
180.47
205.16
226.19
241.90
251.14
253.45
249.12
239.11
224.79
207.58
188.79
169.50
150.53
132.46
115.72
100.61
87.29
75.85
66.27
58.41
51.91
46.18
40.36
33.46
24.64
13.49
0.26
-14.18
-28.61
-41.82
-52.92
-61.51
-67.67
-71.91
-74.90
-77.46
-80.24
-83.51
-87.07
-90.12
-91.57
-90.39
-86.04
-78.77
-69.62
-60.29
-52.69
-48.34
-47.87
-50.58
-54.59
-57.39
-56.75
-51.68
-42.87
-32.55
-23.68
-18.94
-19.85
-26.49
-37.71
-51.72
-66.63
-80.80
-92.81
-101.40
-105.47
-104.34
-98.20
-88.35
-77.05
-66.91
-59.90
-56.59
-56.04
-56.33
-55.61
-52.97
-48.80
-44.43
-41.31
-40.33
-41.46
-43.96
-46.84
-49.29
-51.00
-51.99
-52.44
-52.47
-51.93
-50.57
-48.14
-44.55
-39.97
-34.73
-29.30
-24.16
-19.65
-16.01
-13.30
-11.43
-10.21
-9.45
-8.94
-8.57
-8.30
-8.11
-8.07
-8.23
-8.67
-9.40
-10.39
-11.42
-12.21
-12.39
-11.54
-9.39
-5.82
-0.97
4.79
10.90
16.74
21.76
25.58
28.07
29.29
29.50
29.04
28.27
27.55
27.18
27.32
28.01
29.12
30.43
31.68
32.66
33.23
33.29
32.81
31.81
30.31
28.30
25.72
22.44
18.30
13.28
7.51
1.40
-4.46
-9.42
-13.00
-15.00
-15.55
-15.03
-13.90
-12.52
-11.11
-9.68
-8.20
-6.63
-5.07
-3.74
-2.86
-2.65
-3.21
-4.53
-6.51
-8.92
-11.45
-13.78
-15.66
-17.00
-17.90
-18.53
-19.00
-19.27
-19.14
-18.48
-17.34
-16.03
-15.04
-14.77
-15.35
-16.58
-18.09
-19.56
-20.81
-21.84
-22.62
-22.92
-22.27
-20.07
-15.85
-9.44
-1.12
8.38
18.09
27.00
34.27
39.39
42.20
42.86
41.74
39.31
36.12
32.71
29.61
27.22
25.84
25.56
26.31
27.85
29.85
31.87
33.45
34.10
33.47
31.49
28.48
25.22
22.79
22.29
24.39
29.04
35.29
41.52
45.93
47.20
45.01
40.17
34.29
29.15
25.82
24.19
22.91
19.85
12.92
0.87
-16.26
-37.06
-59.13
-79.84
-97.03
-109.65
-118.01
-123.40
-127.26
-130.07
-130.64
-126.29
-113.98
-91.93
-60.95
-24.59
11.93
43.61
67.39
82.68
90.93
94.31
94.69
93.30
91.06
88.92
88.00
89.05
92.11
96.30
100.38
103.51
105.71
107.80
111.00
116.29
124.06
134.18
146.13
159.14
172.16
183.91
193.02
198.37
199.42
196.48
190.44
182.30
172.49
160.47
144.90
124.48
98.94
69.69
39.67
12.39
-9.31
-24.37
-33.53
-38.70
-41.91
-44.54
-47.29
-50.41
-54.28
-59.73
-67.90
-80.14
-97.77
-121.82
-152.60
-189.17
-228.97
-267.91
-300.88
-322.89
-330.09
-320.65
-295.14
-256.46
-209.31
-159.34
-112.15
-72.29
-42.63
-24.23
-16.67
-18.69
-28.53
-44.31
-64.02
-85.50
-106.61
-125.49
-140.85
-152.12
-159.36
-162.91
-163.13
-160.16
-153.99
-144.59
-132.09
-116.85
-99.43
-80.41
-60.29
-39.51
-18.58
1.79
20.67
37.04
50.12
59.59
65.71
69.23
71.05
71.93
72.27
72.15
71.42
69.88
67.34
63.61
58.41
51.47
42.59
31.84
19.66
6.87
-5.51
-16.43
-25.09
-31.05
-34.28
-35.06
-33.81
-30.90
-26.60
-21.08
-14.57
-7.43
-0.31
6.04
10.93
13.91
14.90
14.12
11.95
8.80
5.11
1.35
-1.88
-3.92
-4.17
-2.32
1.47
6.66
12.45
18.03
22.88
26.72
29.54
31.41
32.37
32.46
31.72
30.32
28.60
27.01
25.95
25.66
26.03
26.70
27.12
26.80
25.55
23.51
21.05
18.55
16.16
13.70
10.80
7.09
2.35
-3.38
-9.87
-16.87
-24.01
-30.91
-37.08
-41.98
-45.13
-46.40
-45.99
-44.34
-41.91
-38.94
-35.43
-31.20
-26.15
-20.38
-14.27
-8.35
-2.97
1.68
5.73
9.49
13.25
17.09
20.80
23.91
25.88
26.33
25.19
22.73
19.48
15.98
12.60
9.34
5.91
1.87
-3.19
-9.35
-16.31
-23.35
-29.46
-33.67
-35.30
-34.18
-30.74
-25.83
-20.44
-15.48
-11.51
-8.75
-7.15
-6.47
-6.46
-6.97
-7.90
-9.24
-10.94
-12.82
-14.50
-15.47
-15.26
-13.56
-10.48
-6.47
-2.27
1.34
3.84
5.10
5.45
5.51
5.84
6.75
8.02
9.12
9.35
8.38
6.36
4.03
2.30
1.96
3.39
6.52
11.05
16.54
22.51
28.42
33.57
37.25
38.92
38.47
36.32
33.27
30.17
27.58
25.71
24.45
23.65
23.30
23.53
24.48
26.14
28.26
30.39
32.13
33.22
33.74
33.96
34.20
34.65
35.34
36.13
36.88
37.52
38.04
38.46
38.83
39.31
40.26
42.27
46.00
51.99
60.40
70.87
82.58
94.56
105.79
115.49
122.99
127.79
129.50
128.05
123.82
117.67
110.73
104.08
98.39
93.82
90.18
87.17
84.56
82.18
79.66
76.17
70.47
61.27
47.84
30.54
10.93
-8.58
-25.33
-37.17
-42.86
-42.17
-35.66
-24.08
-7.88
12.99
38.49
67.92
99.03
127.87
149.69
160.19
156.82
139.38
109.92
72.02
30.46
-9.24
-41.27
-61.04
-67.22
-63.09
-56.01
-54.29
-63.06
-81.33
-102.35
-117.58
-121.79
-116.24
-107.51
-103.20
-107.16
-117.43
-127.82
-131.72
-125.08
-107.03
-78.36
-39.91
7.13
59.48
110.25
149.44
167.01
157.28
121.67
68.50
9.55
-44.65
-88.10
-119.98
-142.64
-158.94
-170.39
-177.22
-179.35
-177.71
-174.54
-172.62
-173.73
-177.28
-179.86
-176.63
-163.95
-140.99
-110.14
-75.86
-42.89
-14.44
8.98
29.20
48.70
67.66
84.52
97.49
106.16
111.86
117.30
125.75
139.99
161.06
185.20
207.31
223.91
234.70
241.09
244.50
245.60
244.21
239.57
226.45
200.51
161.85
115.67
68.54
25.06
-13.28
-47.42
-79.75
-118.71
-171.89
-241.90
-325.58
-417.58
-513.14
-607.61
-695.17
-734.93
-696.97
-583.52
-430.65
-279.99
-156.79
-68.11
-9.64
27.93
54.01
69.94
75.80
73.66
69.02
67.33
71.38
80.52
92.04
102.73
105.92
99.31
85.54
71.20
62.75
63.70
74.59
94.36
121.66
150.33
178.23
206.24
237.21
272.80
311.77
350.05
381.95
402.02
391.69
344.50
270.02
189.22
120.86
72.53
41.70
21.64
6.56
-7.13
-17.51
-22.08
-20.62
-16.36
-13.95
-16.73
-25.47
-38.73
-54.61
-69.20
-79.88
-86.20
-89.44
-91.08
-92.26
-94.55
-95.84
-98.05
-103.27
-113.35
-128.61
-147.41
-166.56
-182.93
-194.89
-202.77
-208.57
-212.77
-214.24
-210.62
-199.56
-180.01
-152.45
-118.57
-80.07
-38.62
5.22
50.60
95.46
136.04
167.36
185.04
187.36
177.00
160.11
144.90
138.11
142.92
157.92
177.55
194.72
203.29
200.84
188.72
171.15
152.46
135.72
122.88
115.66
115.02
118.56
123.74
127.76
131.79
136.10
138.93
136.76
126.24
107.18
79.64
45.96
9.41
-27.09
-62.78
-98.86
-137.54
-183.09
-234.75
-293.45
-358.56
-427.94
-497.39
-560.96
-611.07
-639.97
-644.99
-622.05
-575.47
-512.52
-440.50
-363.97
-284.09
-199.77
-94.01
4.79
94.15
165.37
211.54
230.66
226.57
207.12
180.97
154.79
129.21
108.59
92.93
83.25
81.14
87.29
100.10
115.37
127.41
129.00
119.83
99.31
69.00
31.21
-11.83
-57.88
-103.73
-144.79
-176.73
-192.66
-190.11
-170.12
-138.08
-102.30
-71.05
-49.63
-39.06
-37.46
-39.71
-41.64
-38.80
-28.78
-11.42
11.72
38.23
65.14
88.77
106.42
116.71
123.68
132.52
147.08
168.73
196.56
227.53
256.99
280.04
293.50
301.55
309.05
318.78
331.34
346.85
365.69
387.61
411.15
433.48
456.45
478.82
495.31
499.74
489.79
468.25
440.67
412.53
352.25
251.13
127.33
11.67
-76.03
-132.93
-165.26
-181.02
-186.93
-187.51
-179.89
-162.63
-138.35
-112.25
-88.44
-68.32
-51.79
-38.53
-28.55
-18.07
-3.70
13.47
30.05
43.46
53.03
58.81
60.65
57.93
52.49
45.26
35.16
20.53
0.58
-24.22
-53.10
-85.75
-122.29
-161.67
-203.32
-247.94
-296.58
-349.49
-404.85
-458.52
-504.57
-536.88
-551.07
-546.98
-529.20
-504.77
-479.82
-456.81
-434.17
-408.24
-376.00
-337.20
-294.46
-251.77
-212.35
-177.52
-146.92
-119.93
-96.75
-78.30
-65.33
-57.04
-50.63
-41.96
-27.27
-5.11
22.98
52.89
79.79
100.22
113.17
119.98
123.09
124.57
125.37
125.30
123.71
119.90
113.41
104.09
92.19
78.46
64.15
50.69
39.04
29.14
20.08
10.94
2.20
-3.71
-3.08
7.36
28.33
57.20
88.60
116.25
134.77
140.60
132.11
109.40
74.27
30.78
-14.82
-54.74
-81.76
-91.59
-84.35
-64.32
-37.95
-11.36
11.40
28.68
40.39
46.80
47.96
43.94
35.55
24.82
15.05
9.65
11.15
20.23
35.40
53.49
70.68
83.93
92.17
96.58
99.59
103.26
108.04
112.54
114.34
111.50
103.74
92.61
80.93
71.09
64.38
61.12
61.17
64.23
69.76
76.57
82.75
86.71
86.90
82.78
75.35
66.71
58.94
53.25
50.20
50.31
55.90
68.29
87.23
110.84
135.37
155.41
165.22
161.27
144.15
120.62
97.52
79.06
66.35
58.44
53.81
52.58
57.51
72.44
101.29
139.45
174.26
191.11
180.78
143.27
87.88
29.44
-34.93
-94.51
-137.54
-162.43
-177.18
-188.91
-199.05
-204.90
-203.86
-196.12
-182.08
-165.24
-149.43
-135.45
-120.45
-101.67
-78.67
-53.87
-31.44
-13.05
-0.16
7.31
8.41
6.42
4.82
5.32
7.17
7.84
5.77
-0.84
-12.75
-28.62
-44.74
-57.63
-65.41
-68.40
-68.54
-67.53
-66.93
-67.42
-68.54
-68.63
-66.40
-61.29
-53.36
-43.09
-30.81
-17.11
-2.78
11.47
25.41
38.78
51.21
62.02
70.21
74.72
74.66
69.63
59.87
46.26
30.06
12.56
-4.81
-20.43
-32.45
-39.03
-38.73
-31.01
-16.50
2.84
24.11
44.11
60.02
70.02
73.57
71.29
64.83
56.28
47.75
40.74
35.59
31.49
26.84
20.17
11.05
0.42
-9.78
-17.53
-21.74
-22.72
-21.85
-20.76
-20.27
-20.13
-19.27
-16.71
-12.29
-7.04
-2.68
-0.70
-1.60
-4.81
-9.17
-13.76
-18.57
-24.32
-31.83
-41.15
-51.00
-59.22
-63.68
-63.33
-58.80
-51.85
-44.51
-37.92
-31.88
-25.25
-16.93
-6.85
3.68
12.47
17.57
18.26
15.59
11.80
9.21
9.10
11.20
14.14
16.14
16.04
13.69
9.77
5.26
0.96
-3.00
-6.76
-10.68
-15.02
-19.69
-24.49
-29.29
-34.27
-39.94
-46.73
-54.63
-62.78
-69.67
-73.79
-74.36
-71.75
-67.30
-62.50
-58.14
-53.94
-48.87
-42.07
-33.56
-24.49
-16.74
-11.93
-10.78
-12.81
-16.59
-20.46
-23.23
-24.45
-24.78
-25.38
-27.52
-32.05
-38.91
-47.40
-56.52
-65.44
-73.83
-81.47
-88.09
-93.02
-95.37
-94.45
-89.97
-82.22
-72.01
-60.61
-49.48
-40.03
-33.12
-28.96
-27.07
-26.69
-27.26
-28.65
-31.07
-34.61
-38.78
-42.62
-45.03
-45.31
-43.31
-39.09
-32.57
-23.26
-10.65
5.21
23.30
42.05
59.99
76.63
92.72
109.89
129.76
152.60
176.81
199.00
215.17
222.33
219.92
210.30
197.83
186.97
180.28
177.45
175.83
172.00
163.50
149.80
132.17
112.61
92.96
74.33
57.33
42.62
31.01
23.42
20.28
21.26
25.10
30.10
34.63
37.59
38.59
37.91
36.13
33.79
31.10
27.81
23.20
16.35
6.52
-6.46
-21.97
-38.61
-54.53
-67.93
-77.45
-82.52
-83.39
-80.94
-76.44
-71.22
-66.40
-62.75
-60.66
-60.24
-61.35
-63.72
-66.88
-70.36
-73.72
-76.69
-79.12
-80.87
-81.50
-80.22
-76.02
-68.04
-56.00
-40.58
-23.28
-6.11
9.09
21.09
29.45
34.47
36.82
37.12
35.78
33.02
28.92
23.70
17.68
11.40
5.48
0.50
-3.05
-4.82
-4.75
-3.05
-0.37
2.46
4.60
5.56
5.35
4.34
2.99
1.47
-0.57
-3.74
-8.56
-14.93
-21.93
-28.05
-31.69
-31.76
-28.22
-21.90
-14.24
-6.72
-0.41
4.18
6.94
8.04
7.54
5.59
2.47
-1.25
-4.78
-7.37
-8.65
-8.71
-8.14
-7.57
-7.37
-7.48
-7.49
-7.02
-5.99
-4.70
-3.75
-3.73
-4.96
-7.35
-10.55
-14.14
-17.89
-21.76
-25.83
-30.02
-33.95
-36.79
-37.53
-35.26
-29.58
-20.74
-9.79
1.82
12.57
21.29
27.35
30.65
31.38
29.88
26.46
21.42
15.15
8.26
1.57
-3.96
-7.46
-8.44
-6.85
-3.12
1.98
7.52
12.57
16.44
18.71
19.30
18.42
16.46
13.74
10.48
6.64
2.10
-3.27
-9.35
-15.71
-21.58
-26.07
-28.33
-27.82
-24.40
-18.36
-10.37
-1.35
7.65
15.63
21.85
25.83
27.51
27.15
25.24
22.33
18.99
15.79
13.21
11.65
11.24
11.85
13.09
14.43
15.49
16.08
16.27
16.17
15.80
15.01
13.60
11.51
8.93
6.30
4.07
2.48
1.37
0.24
-1.52
-4.35
-8.33
-13.12
-17.98
-21.96
-24.16
-23.93
-21.03
-15.68
-8.47
-0.24
8.13
15.85
22.25
26.85
29.44
30.10
29.21
27.39
25.36
23.66
22.66
22.41
22.77
23.51
24.38
25.13
25.60
25.64
25.26
24.51
23.49
22.27
20.90
19.33
17.51
15.41
13.00
10.25
7.19
4.00
1.09
-1.03
-2.06
-2.01
-1.43
-1.05
-1.52
-3.09
-5.60
-8.70
-12.14
-15.86
-19.85
-23.79
-26.93
-28.30
-27.07
-23.05
-16.78
-9.39
-2.03
4.42
9.61
13.48
16.20
17.86
18.54
18.37
17.64
16.72
16.01
15.73
15.86
16.18
16.38
16.32
16.09
15.97
16.30
17.15
18.25
19.04
18.96
17.72
15.50
12.87
10.57
9.08
8.46
8.41
8.48
8.33
7.91
7.32
6.67
5.83
4.57
2.67
0.11
-2.90
-5.97
-8.80
-11.27
-13.54
-15.88
-18.50
-21.32
-23.86
-25.43
-25.32
-23.16
-19.18
-14.10
-8.91
-4.47
-1.20
0.94
2.29
3.15
3.52
3.18
1.81
-0.59
-3.59
-6.37
-7.99
-7.72
-5.36
-1.28
3.71
8.60
12.51
14.91
15.70
15.09
13.51
11.41
9.13
6.94
4.90
2.97
1.08
-0.83
-2.71
-4.44
-5.84
-6.83
-7.42
-7.72
-7.87
-7.97
-8.08
-8.20
-8.38
-8.72
-9.37
-10.49
-12.19
-14.36
-16.80
-19.14
-20.99
-22.03
-22.05
-20.97
-18.71
-15.26
-10.70
-5.44
-0.24
3.91
6.19
6.26
4.56
2.08
0.01
-0.84
-0.25
1.39
3.52
5.66
7.64
9.53
11.48
13.45
15.23
16.48
16.91
16.46
15.25
13.68
12.11
10.81
9.77
8.79
7.54
5.82
3.64
1.26
-0.97
-2.73
-3.89
-4.62
-5.17
-5.87
-6.88
-8.20
-9.71
-11.30
-12.97
-14.82
-16.94
-19.19
-21.17
-22.30
-22.03
-20.11
-16.78
-12.63
-8.44
-4.90
-2.37
-0.94
-0.47
-0.77
-1.72
-3.20
-5.06
-7.00
-8.68
-9.68
-9.70
-8.70
-6.88
-4.68
-2.55
-0.81
0.51
1.55
2.56
3.65
4.76
5.65
6.14
6.15
5.82
5.45
5.30
5.49
5.98
6.57
7.01
7.10
6.74
5.98
4.98
3.95
3.11
2.58
2.35
2.34
2.36
2.23
1.76
0.69
-1.22
-4.06
-7.67
-11.60
-15.12
-17.45
-18.05
-16.71
-13.68
-9.54
-5.07
-1.10
1.72
2.98
2.67
1.16
-0.95
-3.05
-4.76
-6.03
-7.06
-8.08
-9.07
-9.79
-9.83
-8.83
-6.67
-3.54
0.16
3.96
7.45
10.38
12.56
13.88
14.24
13.55
11.85
9.31
6.31
3.31
0.70
-1.28
-2.74
-3.94
-5.16
-6.53
-7.92
-9.07
-9.75
-9.94
-9.72
-9.25
-8.56
-7.58
-6.28
-4.83
-3.64
-3.24
-4.03
-6.02
-8.85
-11.79
-14.10
-15.21
-14.89
-13.21
-10.47
-7.05
-3.31
0.39
3.70
6.23
7.59
7.50
5.89
3.07
-0.31
-3.48
-5.74
-6.74
-6.53
-5.42
-3.78
-1.88
0.23
2.52
4.97
7.36
9.35
10.61
11.00
10.66
9.94
9.12
8.32
7.32
5.72
3.28
0.15
-3.08
-5.67
-7.11
-7.43
-7.09
-6.75
-6.79
-7.15
-7.53
-7.64
-7.64
-8.01
-9.32
-11.78
-15.01
-18.16
-20.29
-20.84
-19.87
-17.90
-15.53
-13.06
-10.33
-6.97
-2.85
1.71
5.73
8.13
8.23
6.24
3.10
0.16
-1.60
-1.88
-1.11
-0.05
0.80
1.42
2.20
3.50
5.41
7.60
9.46
10.49
10.39
9.21
7.16
4.62
1.90
-0.66
-2.86
-4.65
-6.11
-7.38
-8.52
-9.45
-9.97
-9.85
-9.05
-7.75
-6.34
-5.22
-4.61
-4.54
-4.83
-5.26
-5.68
-6.03
-6.33
-6.54
-6.52
-6.05
-4.94
-3.07
-0.57
2.21
4.76
6.60
7.43
7.19
6.06
4.36
2.50
0.90
-0.11
-0.30
0.38
1.85
3.77
5.77
7.45
8.56
9.01
8.80
8.01
6.71
4.96
2.90
0.74
-1.24
-2.75
-3.64
-3.94
-3.87
-3.75
-3.84
-4.24
-4.87
-5.55
-6.17
-6.79
-7.64
-8.94
-10.77
-12.92
-14.93
-16.29
-16.64
-15.87
-14.08
-11.41
-7.93
-3.71
1.04
5.85
10.04
12.91
14.06
13.55
11.87
9.73
7.75
6.27
5.38
5.02
5.17
5.83
7.04
8.69
10.58
12.31
13.46
13.71
12.94
11.30
9.19
7.05
5.26
3.95
2.99
2.08
0.89
-0.72
-2.62
-4.44
-5.81
-6.50
-6.60
-6.46
-6.54
-7.17
-8.42
-10.10
-11.86
-13.37
-14.42
-14.89
-14.75
-13.90
-12.19
-9.57
-6.17
-2.41
1.04
3.57
4.79
4.71
3.62
1.94
-0.04
-2.23
-4.63
-7.17
-9.56
-11.38
-12.23
-11.98
-10.80
-9.09
-7.24
-5.46
-3.77
-2.08
-0.39
1.11
2.09
2.25
1.48
-0.08
-2.11
-4.19
-5.99
-7.32
-8.14
-8.55
-8.64
-8.56
-8.38
-8.10
-7.72
-7.26
-6.74
-6.24
-5.72
-4.95
-3.49
-0.77
3.71
10.10
18.11
27.09
36.16
44.42
51.05
55.33
56.68
54.72
49.51
41.58
32.01
22.03
12.74
4.84
-1.51
-6.52
-10.53
-13.83
-16.58
-18.86
-20.67
-22.07
-22.99
-23.33
-22.96
-21.74
-19.71
-17.06
-14.17
-11.47
-9.38
-8.19
-8.08
-9.09
-11.14
-14.06
-17.53
-21.18
-24.60
-27.46
-29.54
-30.80
-31.20
-30.70
-29.21
-26.53
-22.48
-17.09
-10.59
-3.45
3.76
10.45
16.12
20.38
22.89
23.48
22.17
19.35
15.72
12.20
9.55
8.20
8.13
8.96
10.17
11.36
12.34
13.06
13.49
13.50
12.93
11.61
9.54
6.86
3.86
0.85
-1.86
-4.02
-5.44
-6.00
-5.72
-4.79
-3.57
-2.55
-2.23
-2.99
-4.82
-7.33
-9.82
-11.49
-11.77
-10.42
-7.59
-3.74
0.62
4.97
8.88
12.02
14.10
14.93
14.49
12.95
10.70
8.23
6.00
4.30
3.27
2.87
2.93
3.15
3.16
2.51
0.88
-1.81
-5.31
-9.10
-12.52
-15.05
-16.44
-16.70
-15.97
-14.39
-12.12
-9.33
-6.40
-3.88
-2.34
-2.22
-3.53
-5.90
-8.68
-11.15
-12.73
-13.04
-11.84
-9.04
-4.65
1.10
7.76
14.67
21.07
26.34
30.15
32.45
33.40
33.27
32.28
30.57
28.29
25.68
23.05
20.71
18.87
17.51
16.41
15.27
13.88
12.24
10.60
9.30
8.59
8.39
8.39
8.10
7.15
5.46
3.29
1.02
-1.06
-2.97
-5.02
-7.62
-11.05
-15.29
-20.00
-24.63
-28.60
-31.32
-32.29
-31.13
-27.71
-22.29
-15.58
-8.58
-2.30
2.53
5.67
7.26
7.67
7.24
6.10
4.30
1.95
-0.69
-3.14
-4.88
-5.53
-5.01
-3.52
-1.42
0.89
3.04
4.76
5.82
6.09
5.52
4.17
2.23
-0.07
-2.48
-4.82
-6.97
-8.91
-10.66
-12.34
-14.13
-16.23
-18.65
-21.18
-23.22
-23.97
-22.66
-18.89
-12.83
-5.27
2.66
9.78
15.31
18.96
20.93
21.64
21.51
20.78
19.52
17.79
15.76
13.73
12.06
10.95
10.39
10.17
10.02
9.78
9.47
9.19
8.97
8.68
8.06
6.87
5.07
2.85
0.49
-1.82
-4.14
-6.70
-9.76
-13.37
-17.27
-20.97
-23.88
-25.46
-25.29
-23.16
-18.93
-12.74
-5.00
3.53
11.80
18.76
23.58
25.82
25.54
23.17
19.41
14.99
10.62
6.84
4.01
2.23
1.40
1.32
1.74
2.48
3.36
4.25
4.95
5.21
4.81
3.63
1.73
-0.64
-3.13
-5.49
-7.65
-9.83
-12.39
-15.62
-19.54
-23.83
-27.88
-30.96
-32.48
-32.11
-29.76
-25.56
-19.70
-12.52
-4.49
3.66
11.11
17.00
20.78
22.33
22.01
20.48
18.42
16.30
14.32
12.49
10.77
9.27
8.19
7.78
8.16
9.27
10.89
12.70
14.42
15.90
17.03
17.77
18.00
17.60
16.41
14.37
11.58
8.32
4.97
1.87
-0.82
-3.22
-5.66
-8.48
-11.83
-15.49
-18.86
-21.11
-21.44
-19.35
-14.81
-8.26
-0.54
7.35
14.50
20.19
24.02
25.94
26.11
24.90
22.77
20.19
17.65
15.60
14.40
14.23
15.08
16.68
18.58
20.29
21.46
21.99
21.98
21.69
21.27
20.74
19.97
18.79
17.14
15.12
12.91
10.74
8.73
6.89
5.18
3.58
2.14
0.94
0.04
-0.64
-1.29
-2.18
-3.54
-5.46
-7.88
-10.61
-13.35
-15.75
-17.43
-17.95
-16.92
-14.09
-9.53
-3.71
2.58
8.40
12.98
15.86
17.02
16.73
15.35
13.22
10.61
7.80
5.12
3.00
1.87
2.02
3.48
6.00
9.07
12.11
14.65
16.39
17.28
17.40
16.89
15.81
14.21
12.16
9.87
7.59
5.57
3.89
2.40
0.79
-1.24
-3.70
-6.31
-8.57
-10.02
-10.54
-10.38
-10.08
-10.10
-10.75
-12.02
-13.79
-15.90
-18.24
-20.56
-22.36
-22.92
-21.53
-17.86
-12.25
-5.74
0.42
5.16
8.01
9.10
8.96
8.13
6.89
5.30
3.34
1.21
-0.63
-1.56
-1.08
0.99
4.30
8.07
11.41
13.61
14.38
13.95
12.82
11.49
10.22
8.94
7.39
5.41
3.09
0.78
-1.15
-2.53
-3.56
-4.67
-6.25
-8.39
-10.82
-13.05
-14.68
-15.58
-16.05
-16.62
-17.82
-19.93
-22.82
-25.94
-28.47
-29.57
-28.62
-25.46
-20.42
-14.33
-8.19
-2.93
0.86
3.01
3.74
3.36
2.23
0.60
-1.30
-3.24
-4.90
-5.87
-5.83
-4.56
-2.17
1.04
4.59
7.97
10.75
12.60
13.36
12.94
11.39
8.86
5.60
2.02
-1.46
-4.42
-6.56
-7.78
-8.17
-8.00
-7.58
-7.20
-7.03
-7.05
-7.15
-7.20
-7.14
-7.07
-7.23
-7.89
-9.28
-11.32
-13.66
-15.71
-16.81
-16.50
-14.58
-11.31
-7.16
-2.74
1.37
4.75
7.20
8.73
9.53
9.90
10.11
10.35
10.71
11.18
11.77
12.47
13.32
14.31
15.38
16.38
17.12
17.44
17.24
16.53
15.35
13.85
12.16
10.47
8.92
7.69
6.87
6.46
6.41
6.53
6.57
6.33
5.74
4.95
4.28
4.09
4.51
5.42
6.36
6.79
6.25
4.61
2.09
-0.83
-3.54
-5.44
-6.03
-4.96
-2.16
2.18
7.47
12.87
17.50
20.65
22.08
21.94
20.68
18.78
16.54
14.02
11.19
8.11
5.05
2.45
0.70
0.03
0.31
1.18
2.17
2.93
3.28
3.26
2.98
2.52
1.82
0.75
-0.85
-3.02
-5.64
-8.45
-11.13
-13.45
-15.36
-17.00
-18.56
-20.21
-21.91
-23.48
-24.61
-25.12
-24.98
-24.44
-23.83
-23.49
-23.56
-23.99
-24.58
-25.05
-25.13
-24.51
-22.89
-20.03
-15.82
-10.47
-4.48
1.43
6.53
10.37
12.88
14.34
15.23
15.97
16.78
17.62
18.29
18.52
18.20
17.33
16.11
14.79
13.61
12.70
12.11
11.81
11.76
11.93
12.22
12.54
12.70
12.53
11.98
11.12
10.12
9.14
8.25
7.31
6.11
4.43
2.21
-0.43
-3.21
-5.82
-8.05
-9.81
-11.22
-12.56
-14.15
-16.24
-18.89
-21.98
-25.16
-27.98
-29.93
-30.54
-29.51
-26.78
-22.63
-17.64
-12.57
-8.14
-4.76
-2.46
-0.93
0.17
1.06
1.74
2.02
1.76
1.01
0.02
-0.83
-1.16
-0.71
0.64
2.79
5.45
8.15
10.33
11.55
11.61
10.73
9.42
8.25
7.60
7.55
7.92
8.40
8.75
8.84
8.58
7.89
6.61
4.65
2.05
-0.91
-3.81
-6.23
-7.98
-9.18
-10.26
-11.71
-13.76
-16.21
-18.41
-19.51
-18.82
-16.14
-11.89
-6.93
-2.25
1.46
3.92
5.34
6.08
6.49
6.59
6.20
5.13
3.36
1.25
-0.54
-1.42
-1.04
0.35
2.17
3.69
4.47
4.54
4.30
4.23
4.61
5.36
6.11
6.44
6.07
4.94
3.19
1.12
-0.95
-2.75
-4.11
-5.00
-5.55
-6.00
-6.61
-7.55
-8.80
-10.30
-11.91
-13.55
-15.15
-16.55
-17.45
-17.43
-16.10
-13.37
-9.54
-5.26
-1.29
1.76
3.73
4.76
5.26
5.60
5.95
6.33
6.68
6.99
7.36
7.96
8.87
10.02
11.13
11.88
12.00
11.46
10.39
9.12
7.94
7.06
6.44
5.88
5.05
3.68
1.67
-0.88
-3.61
-6.12
-8.06
-9.33
-10.05
-10.56
-11.12
-11.80
-12.36
-12.34
-11.27
-8.91
-5.39
-1.20
2.99
6.53
8.96
10.06
9.80
8.29
5.74
2.47
-1.09
-4.39
-6.89
-8.14
-8.00
-6.67
-4.66
-2.63
-1.10
-0.40
-0.56
-1.46
-2.92
-4.78
-6.81
-8.78
-10.38
-11.41
-11.88
-12.05
-12.35
-13.16
-14.65
-16.68
-18.99
-21.29
-23.39
-25.18
-26.49
-27.05
-26.51
-24.56
-21.19
-16.75
-11.86
-7.23
-3.43
-0.69
1.02
1.88
2.10
1.79
0.99
-0.16
-1.43
-2.40
-2.73
-2.26
-1.16
0.15
1.20
1.68
1.59
1.14
0.62
0.22
-0.06
-0.29
-0.57
-1.02
-1.78
-3.01
-4.93
-7.64
-11.08
-14.93
-18.73
-22.00
-24.37
-25.60
-25.53
-24.04
-21.06
-16.70
-11.31
-5.57
-0.21
4.12
7.11
8.82
9.53
9.59
9.24
8.53
7.43
5.90
4.08
2.28
0.94
0.45
1.00
2.38
4.05
5.33
5.69
4.97
3.43
1.60
-0.00
-1.14
-1.92
-2.70
-3.85
-5.61
-7.98
-10.84
-13.99
-17.26
-20.45
-23.19
-24.97
-25.18
-23.33
-19.28
-13.33
-6.23
1.03
7.51
12.55
15.83
17.39
17.52
16.54
14.77
12.45
9.84
7.15
4.69
2.76
1.57
1.23
1.63
2.57
3.71
4.73
5.37
5.46
4.89
3.66
1.86
-0.33
-2.63
-4.78
-6.60
-8.07
-9.38
-10.79
-12.59
-14.89
-17.65
-20.63
-23.39
-25.38
-26.00
-24.73
-21.31
-15.90
-9.07
-1.72
5.16
10.85
15.03
17.85
19.68
20.94
21.87
22.51
22.79
22.64
22.13
21.51
21.15
21.37
22.34
23.94
25.84
27.60
28.80
29.21
28.78
27.61
25.88
23.71
21.19
18.34
15.30
12.27
9.55
7.42
6.00
5.16
4.53
3.61
1.96
-0.55
-3.77
-7.26
-10.47
-12.99
-14.50
-14.81
-13.77
-11.26
-7.35
-2.31
3.27
8.67
13.18
16.40
18.24
18.88
18.60
17.61
16.09
14.16
12.04
10.04
8.57
7.97
8.42
9.84
11.84
13.89
15.35
15.82
15.18
13.71
11.89
10.24
9.10
8.50
8.23
7.97
7.51
6.80
5.93
5.02
4.16
3.36
2.54
1.64
0.61
-0.54
-1.78
-3.11
-4.56
-6.25
-8.28
-10.58
-12.83
-14.42
-14.61
-12.82
-8.92
-3.35
3.01
9.14
14.21
17.82
19.94
20.77
20.51
19.26
17.11
14.27
11.13
8.28
6.25
5.41
5.75
6.95
8.51
9.98
11.08
11.75
12.06
12.04
11.60
10.56
8.81
6.39
3.57
0.75
-1.73
-3.73
-5.36
-6.83
-8.36
-9.98
-11.56
-12.89
-13.83
-14.38
-14.64
-14.82
-15.09
-15.61
-16.48
-17.74
-19.33
-20.98
-22.25
-22.55
-21.36
-18.46
-14.01
-8.56
-2.86
2.37
6.69
9.88
11.94
12.91
12.80
11.70
9.81
7.52
5.34
3.79
3.17
3.47
4.48
5.83
7.18
8.29
9.03
9.31
9.09
8.35
7.08
5.32
3.15
0.69
-1.87
-4.32
-6.40
-7.93
-8.84
-9.25
-9.42
-9.68
-10.31
-11.35
-12.71
-14.12
-15.36
-16.32
-16.99
-17.42
-17.57
-17.25
-16.13
-13.93
-10.52
-6.11
-1.16
3.71
7.94
11.17
13.26
14.24
14.21
13.27
11.54
9.30
6.97
5.07
4.09
4.23
5.30
6.78
8.05
8.68
8.53
7.89
7.13
6.57
6.29
6.10
5.71
4.89
3.57
1.88
0.06
-1.69
-3.25
-4.72
-6.22
-7.87
-9.64
-11.38
-12.87
-13.96
-14.65
-15.14
-15.56
-15.88
-15.76
-14.70
-12.25
-8.31
-3.27
2.04
6.67
9.93
11.60
12.03
11.83
11.53
11.38
11.26
10.90
10.13
9.08
8.07
7.48
7.42
7.76
8.17
8.33
8.17
7.79
7.45
7.33
7.45
7.72
7.93
7.89
7.40
6.32
4.62
2.39
-0.04
-2.26
-3.90
-4.83
-5.22
-5.50
-6.10
-7.23
-8.81
-10.49
-11.79
-12.32
-11.88
-10.45
-8.18
-5.33
-2.25
0.69
3.10
4.69
5.36
5.24
4.60
3.71
2.75
1.77
0.75
-0.31
-1.31
-2.07
-2.35
-1.98
-0.95
0.60
2.39
4.08
5.35
6.02
6.00
5.38
4.32
2.97
1.43
-0.24
-2.00
-3.75
-5.34
-6.70
-7.87
-9.02
-10.48
-12.52
-15.30
-18.74
-22.54
-26.19
-29.12
-30.86
-31.09
-29.81
-27.27
-23.96
-20.48
-17.43
-15.28
-14.34
-14.65
-16.01
-18.01
-20.12
-21.88
-23.03
-23.61
-23.80
-23.86
-23.92
-24.00
-23.92
-23.26
-21.39
-17.53
-11.04
-1.80
9.51
21.44
32.08
39.68
43.24
42.72
38.99
33.49
27.96
24.09
23.31
26.40
33.07
41.69
49.57
53.90
52.93
46.73
37.30
27.65
20.57
17.55
18.54
22.33
27.39
32.42
36.56
39.23
39.92
38.31
34.49
29.20
23.65
19.16
16.55
15.88
16.56
17.63
18.18
17.63
15.80
12.90
9.36
5.75
2.60
0.33
-0.94
-1.40
-1.49
-1.74
-2.60
-4.35
-7.02
-10.47
-14.37
-18.41
-22.27
-25.72
-28.70
-31.18
-33.24
-34.89
-36.09
-36.80
-37.03
-36.82
-36.30
-35.57
-34.71
-33.72
-32.55
-31.15
-29.44
-27.39
-25.02
-22.42
-19.81
-17.45
-15.57
-14.26
-13.46
-12.98
-12.59
-12.15
-11.65
-11.20
-10.95
-11.08
-11.70
-12.82
-14.29
-15.75
-16.73
-16.82
-15.85
-14.09
-12.12
-10.66
-10.21
-10.85
-12.18
-13.53
-14.20
-13.78
-12.15
-9.50
-6.18
-2.56
0.95
3.99
6.25
7.52
7.87
7.57
7.03
6.68
6.75
7.22
7.89
8.51
8.93
9.18
9.45
9.93
10.70
11.60
12.32
12.47
11.76
10.10
7.61
4.59
1.39
-1.63
-4.24
-6.35
-8.05
-9.59
-11.29
-13.35
-15.69
-17.89
-19.31
-19.28
-17.41
-13.72
-8.67
-2.99
2.49
7.10
10.34
12.02
12.20
11.13
9.22
6.94
4.68
2.70
1.11
-0.06
-0.83
-1.13
-0.93
-0.18
1.03
2.56
4.18
5.68
6.90
7.74
8.09
7.87
7.08
5.73
4.04
2.27
0.76
-0.37
-1.19
-2.03
-3.36
-5.48
-8.37
-11.61
-14.44
-16.03
-15.78
-13.56
-9.68
-4.87
0.07
4.45
7.81
9.93
10.84
10.69
9.73
8.29
6.71
5.34
4.38
3.90
3.82
3.94
4.12
4.30
4.60
5.17
6.11
7.35
8.62
9.49
9.58
8.68
6.85
4.39
1.74
-0.67
-2.57
-3.90
-4.76
-5.41
-6.10
-7.08
-8.48
-10.35
-12.53
-14.72
-16.43
-17.12
-16.27
-13.60
-9.19
-3.59
2.33
7.54
11.25
13.15
13.41
12.63
11.46
10.35
9.42
8.52
7.50
6.35
5.27
4.57
4.42
4.73
5.20
5.45
5.26
4.67
3.93
3.32
2.98
2.83
2.60
2.00
0.90
-0.64
-2.38
-4.00
-5.28
-6.14
-6.65
-7.02
-7.46
-8.17
-9.25
-10.70
-12.49
-14.46
-16.35
-17.73
-18.09
-16.93
-13.97
-9.36
-3.71
2.10
7.15
10.83
12.96
13.81
13.83
13.45
12.88
12.14
11.20
10.09
9.04
8.37
8.37
9.14
10.50
12.06
13.35
14.06
14.10
13.59
12.74
11.70
10.52
9.17
7.56
5.67
3.53
1.18
-1.30
-3.85
-6.39
-8.81
-11.01
-12.93
-14.58
-16.09
-17.59
-19.24
-21.10
-23.05
-24.80
-25.85
-25.69
-23.91
-20.39
-15.44
-9.64
-3.72
1.67
6.16
9.59
11.99
13.37
13.80
13.34
12.21
10.76
9.44
8.63
8.56
9.19
10.28
11.44
12.36
12.84
12.89
12.63
12.19
11.64
10.94
10.09
9.06
7.96
6.84
5.70
4.41
2.78
0.76
-1.51
-3.69
-5.42
-6.53
-7.21
-7.87
-8.94
-10.63
-12.72
-14.69
-15.80
-15.47
-13.39
-9.68
-4.80
0.58
5.78
10.26
13.70
15.97
17.11
17.18
16.25
14.47
12.06
9.34
6.79
4.84
3.82
3.88
4.93
6.69
8.82
10.90
12.61
13.72
14.10
13.80
12.92
11.62
10.06
8.33
6.46
4.41
2.14
-0.39
-3.11
-5.84
-8.35
-10.47
-12.15
-13.52
-14.84
-16.30
-17.94
-19.60
-21.01
-21.90
-22.06
-21.33
-19.57
-16.67
-12.62
-7.71
-2.55
2.06
5.42
7.23
7.72
7.41
6.81
6.19
5.54
4.75
3.83
2.94
2.38
2.35
2.81
3.55
4.37
5.16
5.99
6.97
8.15
9.38
10.42
11.04
11.10
10.61
9.68
8.40
6.82
4.94
2.76
0.39
-1.95
-4.01
-5.54
-6.50
-7.08
-7.63
-8.57
-10.16
-12.44
-15.19
-17.98
-20.26
-21.51
-21.31
-19.47
-16.06
-11.45
-6.24
-1.11
3.31
6.74
9.10
10.57
11.38
11.68
11.50
10.82
9.71
8.35
7.11
6.36
6.34
7.08
8.34
9.73
10.86
11.51
11.64
11.39
10.97
10.54
10.14
9.73
9.13
8.18
6.79
4.95
2.87
0.82
-0.90
-2.10
-2.81
-3.25
-3.71
-4.45
-5.53
-6.89
-8.38
-9.88
-11.23
-12.27
-12.72
-12.27
-10.70
-7.99
-4.43
-0.46
3.41
6.78
9.43
11.19
12.00
11.80
10.59
8.52
5.91
3.19
0.88
-0.63
-1.10
-0.47
1.08
3.29
5.74
8.00
9.71
10.55
10.44
9.40
7.63
5.44
3.10
0.82
-1.29
-3.25
-5.15
-7.01
-8.86
-10.65
-12.35
-13.91
-15.30
-16.52
-17.51
-18.25
-18.76
-19.16
-19.52
-19.88
-20.05
-19.69
-18.43
-16.01
-12.52
-8.31
-3.89
0.29
4.00
7.16
9.73
11.59
12.50
12.33
11.16
9.40
7.60
6.30
5.70
5.69
5.94
6.13
6.11
5.98
5.94
6.10
6.48
6.88
7.11
7.01
6.50
5.64
4.52
3.24
1.88
0.50
-0.92
-2.41
-4.02
-5.79
-7.65
-9.52
-11.25
-12.70
-13.71
-14.06
-13.46
-11.61
-8.35
-3.80
1.57
7.02
11.78
15.28
17.33
18.04
17.75
16.73
15.15
13.11
10.70
8.16
5.84
4.08
3.08
2.85
3.22
3.94
4.78
5.57
6.19
6.60
6.78
6.69
6.34
5.68
4.66
3.24
1.44
-0.63
-2.73
-4.65
-6.26
-7.61
-8.93
-10.49
-12.48
-14.94
-17.61
-20.05
-21.68
-22.00
-20.77
-18.02
-14.15
-9.68
-5.20
-1.12
2.30
4.99
6.91
8.00
8.23
7.58
6.18
4.29
2.28
0.54
-0.66
-1.18
-1.09
-0.55
0.21
1.00
1.72
2.33
2.81
3.09
3.04
2.53
1.48
-0.05
-1.85
-3.60
-5.08
-6.23
-7.15
-8.06
-9.09
-10.31
-11.60
-12.87
-14.02
-15.01
-15.72
-15.88
-15.11
-13.06
-9.68
-5.27
-0.50
3.91
7.41
9.82
11.31
12.18
12.67
12.78
12.38
11.31
9.66
7.76
6.14
5.30
5.48
6.54
8.02
9.33
10.07
10.17
9.87
9.51
9.28
9.09
8.57
7.40
5.49
3.13
0.89
-0.74
-1.56
-1.81
-1.97
-2.53
-3.73
-5.45
-7.30
-8.84
-9.73
-9.72
-8.73
-6.72
-3.77
-0.10
3.88
7.68
10.80
12.88
13.75
13.45
12.16
10.13
7.69
5.13
2.78
0.88
-0.40
-0.97
-0.83
-0.05
1.20
2.63
3.91
4.70
4.77
4.15
3.05
1.76
0.58
-0.44
-1.37
-2.41
-3.72
-5.33
-7.15
-9.02
-10.78
-12.39
-13.91
-15.47
-17.17
-19.01
-20.77
-22.09
-22.53
-21.78
-19.82
-16.92
-13.54
-10.12
-6.95
-4.10
-1.58
0.60
2.27
3.24
3.39
2.88
2.12
1.68
1.96
3.17
5.13
7.50
9.92
12.12
13.94
15.28
15.91
15.62
14.25
11.90
8.98
6.07
3.75
2.25
1.35
0.55
-0.69
-2.63
-5.23
-8.08
-10.70
-12.62
-13.59
-13.42
-12.07
-9.55
-5.99
-1.64
3.11
7.76
11.79
14.76
16.49
17.05
16.71
15.79
14.54
13.06
11.29
9.22
7.02
5.03
3.69
3.27
3.71
4.64
5.51
5.88
5.61
4.80
3.73
2.61
1.42
0.02
-1.83
-4.17
-6.83
-9.45
-11.64
-13.15
-14.04
-14.63
-15.38
-16.71
-18.81
-21.44
-24.04
-25.87
-26.22
-24.68
-21.22
-16.25
-10.44
-4.61
0.58
4.66
7.52
9.30
10.25
10.61
10.49
9.93
8.93
7.69
6.52
5.86
6.07
7.25
9.20
11.45
13.50
14.91
15.53
15.45
14.96
14.39
13.98
13.75
13.54
13.06
12.05
10.48
8.51
6.48
4.71
3.34
2.23
1.08
-0.42
-2.47
-4.97
-7.61
-9.94
-11.55
-12.15
-11.62
-9.99
-7.37
-3.95
-0.03
3.99
7.64
10.40
11.93
12.08
10.93
8.79
6.08
3.22
0.58
-1.50
-2.77
-3.08
-2.46
-1.13
0.53
2.07
3.12
3.51
3.27
2.62
1.84
1.15
0.65
0.23
-0.33
-1.27
-2.70
-4.52
-6.40
-7.95
-8.91
-9.28
-9.37
-9.59
-10.27
-11.47
-13.04
-14.73
-16.30
-17.60
-18.48
-18.68
-17.87
-15.75
-12.23
-7.62
-2.49
2.44
6.59
9.65
11.56
12.43
12.44
11.76
10.61
9.29
8.09
7.32
7.10
7.42
8.10
8.94
9.71
10.31
10.69
10.84
10.78
10.51
10.00
9.24
8.18
6.79
5.04
2.98
0.71
-1.56
-3.57
-5.11
-6.12
-6.74
-7.27
-8.08
-9.41
-11.29
-13.50
-15.73
-17.60
-18.79
-19.04
-18.13
-15.98
-12.64
-8.44
-3.89
0.39
3.93
6.54
8.26
9.24
9.59
9.29
8.28
6.57
4.35
2.00
-0.01
-1.35
-1.81
-1.44
-0.47
0.77
1.93
2.77
3.13
3.04
2.60
1.96
1.19
0.29
-0.80
-2.12
-3.61
-5.10
-6.37
-7.19
-7.49
-7.39
-7.16
-7.15
-7.59
-8.53
-9.83
-11.24
-12.53
-13.57
-14.21
-14.30
-13.58
-11.74
-8.62
-4.33
0.66
5.66
9.95
13.06
14.85
15.51
15.39
14.80
13.90
12.67
11.04
9.07
6.98
5.20
4.13
4.02
4.78
6.06
7.37
8.29
8.68
8.63
8.36
8.03
7.72
7.32
6.73
5.89
4.85
3.75
2.70
1.81
1.04
0.34
-0.37
-1.12
-1.91
-2.75
-3.65
-4.66
-5.78
-6.94
-7.94
-8.47
-8.21
-6.94
-4.66
-1.58
1.99
5.70
9.25
12.36
14.74
16.04
16.00
14.54
11.88
8.54
5.15
2.26
0.15
-1.21
-2.00
-2.45
-2.70
-2.76
-2.63
-2.38
-2.12
-1.99
-2.06
-2.22
-2.34
-2.30
-2.17
-2.13
-2.47
-3.38
-4.91
-6.89
-9.07
-11.17
-13.06
-14.74
-16.36
-18.10
-20.05
-22.09
-23.87
-24.89
-24.69
-22.97
-19.78
-15.51
-10.76
-6.08
-1.89
1.64
4.44
6.46
7.58
7.72
6.92
5.46
3.82
2.54
2.05
2.50
3.75
5.43
7.11
8.42
9.16
9.30
8.93
8.20
7.23
6.06
4.72
3.24
1.68
0.13
-1.34
-2.76
-4.22
-5.81
-7.58
-9.48
-11.39
-13.15
-14.64
-15.76
-16.35
-16.18
-15.01
-12.66
-9.23
-5.08
-0.79
3.03
5.97
7.86
8.79
8.99
8.70
8.08
7.26
6.27
5.23
4.32
3.75
3.69
4.15
5.00
5.86
6.40
6.34
5.67
4.62
3.57
2.84
2.52
2.46
2.34
1.90
1.05
-0.11
-1.38
-2.61
-3.77
-4.95
-6.30
-7.93
-9.84
-11.94
-14.01
-15.77
-16.87
-16.93
-15.68
-13.04
-9.22
-4.71
-0.17
3.72
6.44
7.71
7.58
6.34
4.43
2.35
0.49
-0.88
-1.66
-1.86
-1.57
-0.92
-0.02
0.99
1.93
2.66
3.04
3.05
2.77
2.32
1.81
1.27
0.65
-0.09
-0.93
-1.79
-2.49
-2.92
-3.03
-2.89
-2.65
-2.49
-2.62
-3.17
-4.21
-5.58
-6.84
-7.32
-6.36
-3.55
1.01
6.66
12.42
17.33
20.76
22.57
23.00
22.42
21.14
19.30
17.01
14.44
11.89
9.73
8.24
7.45
7.24
7.32
7.49
7.65
7.82
8.08
8.35
8.52
8.37
7.70
6.48
4.84
3.03
1.30
-0.26
-1.71
-3.20
-4.85
-6.62
-8.27
-9.57
-10.39
-10.82
-11.06
-11.17
-10.96
-9.98
-7.81
-4.38
-0.06
4.33
7.95
10.26
11.25
11.26
10.73
9.89
8.71
6.98
4.62
1.83
-0.85
-2.82
-3.63
-3.24
-1.99
-0.46
0.80
1.52
1.72
1.57
1.28
0.88
0.30
-0.62
-1.93
-3.59
-5.47
-7.44
-9.42
-11.39
-13.29
-15.08
-16.72
-18.27
-19.86
-21.58
-23.36
-24.81
-25.30
-24.20
-21.19
-16.47
-10.77
-5.02
-0.04
3.71
6.18
7.56
8.04
7.76
6.77
5.19
3.28
1.44
0.11
-0.42
-0.09
0.92
2.31
3.76
5.01
5.93
6.45
6.54
6.21
5.51
4.48
3.21
1.78
0.25
-1.31
-2.85
-4.30
-5.62
-6.83
-7.98
-9.25
-10.76
-12.52
-14.29
-15.55
-15.67
-14.13
-10.78
-5.96
-0.38
5.11
9.84
13.47
15.97
17.49
18.18
18.05
17.10
15.37
13.09
10.62
8.44
6.89
6.12
6.05
6.43
6.98
7.47
7.78
7.92
7.91
7.79
7.51
6.94
5.96
4.51
2.62
0.49
-1.65
-3.57
-5.17
-6.52
-7.74
-9.07
-10.65
-12.53
-14.70
-17.00
-19.20
-20.90
-21.58
-20.81
-18.30
-14.14
-8.80
-3.05
2.33
6.72
9.88
11.85
12.89
13.29
13.18
12.65
11.72
10.50
9.22
8.16
7.56
7.51
7.92
8.55
9.13
9.44
9.38
8.98
8.37
7.69
7.05
6.49
5.93
5.29
4.46
3.38
2.06
0.58
-0.97
-2.55
-4.19
-5.92
-7.80
-9.89
-12.19
-14.60
-16.99
-19.05
-20.40
-20.64
-19.44
-16.72
-12.69
-7.86
-2.89
1.63
5.37
8.23
10.36
11.90
12.85
13.13
12.62
11.39
9.72
8.08
6.95
6.55
6.87
7.61
8.43
9.02
9.30
9.31
9.18
8.99
8.75
8.44
7.96
7.26
6.31
5.13
3.81
2.47
1.22
0.16
-0.73
-1.51
-2.30
-3.25
-4.42
-5.86
-7.51
-9.23
-10.77
-11.83
-12.06
-11.18
-9.08
-5.91
-2.05
1.96
5.57
8.42
10.34
11.32
11.43
10.77
9.40
7.43
5.08
2.67
0.63
-0.68
-1.03
-0.46
0.79
2.30
3.61
4.44
4.63
4.28
3.58
2.74
1.89
1.07
0.19
-0.82
-2.03
-3.45
-5.04
-6.75
-8.59
-10.52
-12.54
-14.59
-16.62
-18.57
-20.44
-22.18
-23.66
-24.55
-24.42
-22.81
-19.50
-14.65
-8.76
-2.61
3.09
7.86
11.47
13.89
15.14
15.30
14.49
13.02
11.31
9.85
8.97
8.73
8.94
9.25
9.40
9.31
9.06
8.79
8.55
8.28
7.85
7.20
6.34
5.43
4.57
3.75
2.80
1.45
-0.50
-3.07
-6.11
-9.30
-12.41
-15.31
-18.00
-20.48
-22.59
-23.98
-24.15
-22.64
-19.36
-14.68
-9.31
-4.14
0.11
3.12
4.96
5.92
6.26
6.10
5.42
4.19
2.54
0.79
-0.62
-1.29
-1.07
-0.06
1.35
2.68
3.55
3.77
3.43
2.81
2.16
1.67
1.31
0.94
0.38
-0.40
-1.29
-2.12
-2.77
-3.32
-4.02
-5.22
-7.10
-9.57
-12.24
-14.51
-15.77
-15.55
-13.71
-10.44
-6.18
-1.50
3.08
7.18
10.58
13.22
15.12
16.33
16.92
16.95
16.50
15.69
14.59
13.27
11.80
10.29
8.95
7.97
7.50
7.50
7.77
8.05
8.10
7.85
7.37
6.83
6.32
5.83
5.25
4.47
3.42
2.13
0.59
-1.17
-3.14
-5.23
-7.29
-9.09
-10.44
-11.29
-11.63
-11.56
-11.14
-10.31
-9.00
-7.12
-4.68
-1.88
1.02
3.72
5.95
7.57
8.51
8.73
8.23
7.06
5.33
3.32
1.43
0.11
-0.26
0.45
2.13
4.35
6.63
8.49
9.59
9.87
9.44
8.53
7.39
6.16
4.87
3.43
1.76
-0.18
-2.28
-4.46
-6.58
-8.62
-10.64
-12.72
-14.92
-17.22
-19.56
-21.76
-23.65
-24.93
-25.24
-24.17
-21.51
-17.31
-11.98
-6.25
-0.88
3.54
6.72
8.67
9.51
9.37
8.37
6.68
4.59
2.61
1.21
0.73
1.11
1.99
2.89
3.44
3.64
3.70
3.96
4.58
5.42
6.09
6.15
5.33
3.70
1.62
-0.44
-2.08
-3.22
-4.05
-4.95
-6.26
-8.12
-10.46
-12.95
-15.19
-16.75
-17.26
-16.52
-14.43
-11.09
-6.73
-1.78
3.31
8.10
12.18
15.33
17.39
18.30
18.10
16.90
14.96
12.64
10.32
8.33
6.88
6.03
5.74
5.89
6.36
7.00
7.69
8.24
8.51
8.44
8.08
7.54
7.01
6.52
6.04
5.42
4.47
3.06
1.08
-1.47
-4.55
-8.04
-11.73
-15.34
-18.51
-20.86
-22.00
-21.62
-19.53
-15.78
-10.70
-4.91
0.87
5.94
9.88
12.58
14.15
14.80
14.65
13.75
12.16
10.06
7.80
5.80
4.48
4.01
4.32
5.18
6.28
7.38
8.31
9.01
9.42
9.47
9.10
8.25
6.89
5.02
2.71
0.07
-2.67
-5.24
-7.43
-9.14
-10.50
-11.85
-13.54
-15.76
-18.33
-20.74
-22.32
-22.53
-21.13
-18.26
-14.31
-9.74
-4.99
-0.41
3.70
7.11
9.67
11.33
12.15
12.22
11.62
10.46
8.86
7.09
5.52
4.47
4.13
4.44
5.12
5.88
6.49
6.90
7.12
7.24
7.28
7.22
7.02
6.61
5.89
4.74
3.13
1.07
-1.24
-3.49
-5.32
-6.48
-6.95
-6.94
-6.87
-7.18
-8.15
-9.79
-11.72
-13.36
-14.03
-13.29
-10.98
-7.36
-2.93
1.74
6.11
9.76
12.38
13.76
13.82
12.65
10.54
7.89
5.18
2.83
1.13
0.24
0.18
0.89
2.15
3.65
4.98
5.81
5.93
5.38
4.37
3.21
2.11
1.07
-0.04
-1.50
-3.47
-5.96
-8.71
-11.39
-13.65
-15.37
-16.67
-17.87
-19.34
-21.26
-23.49
-25.54
-26.72
-26.40
-24.26
-20.42
-15.39
-9.86
-4.48
0.37
4.50
7.92
10.57
12.31
12.97
12.45
10.94
8.86
6.81
5.30
4.60
4.67
5.23
5.95
6.61
7.12
7.50
7.77
7.87
7.63
6.87
5.46
3.36
0.67
-2.38
-5.51
-8.40
-10.76
-12.44
-13.43
-13.92
-14.21
-14.58
-15.13
-15.67
-15.74
-14.76
-12.22
-7.90
-1.98
5.08
12.54
19.68
25.86
30.56
33.42
34.19
32.81
29.46
24.63
19.11
13.79
9.52
6.78
5.66
5.83
6.78
7.96
9.04
9.86
10.42
10.77
10.95
10.94
10.76
10.43
10.00
9.46
8.73
7.63
5.90
3.22
-0.66
-5.95
-12.59
-20.35
-28.69
-36.91
-44.18
-49.65
-52.55
-52.33
-48.76
-42.08
-33.03
-22.75
-12.52
-3.50
3.54
8.27
10.81
11.50
10.75
8.94
6.38
3.39
0.31
-2.44
-4.44
-5.29
-4.77
-2.88
0.08
3.72
7.56
11.23
14.50
17.25
19.36
20.66
20.98
20.23
18.56
16.23
13.68
11.27
9.23
7.56
6.15
4.91
3.73
2.63
1.57
0.56
-0.39
-1.18
-1.58
-1.40
-0.46
1.22
3.49
6.14
8.91
11.58
13.86
15.47
16.08
15.45
13.55
10.63
7.21
3.89
1.22
-0.51
-1.26
-1.22
-0.66
0.20
1.19
2.16
2.96
3.35
3.13
2.20
0.61
-1.45
-3.79
-6.30
-8.97
-11.90
-15.01
-18.06
-20.62
-22.31
-23.04
-23.10
-23.17
-23.93
-25.68
-28.12
-30.31
-31.13
-29.67
-25.75
-19.95
-13.36
-7.11
-1.93
2.04
5.04
7.38
9.12
10.02
9.66
7.85
4.75
0.92
-2.92
-6.13
-8.29
-9.14
-8.56
-6.44
-2.78
2.17
7.78
13.10
16.99
18.51
17.17
13.14
7.09
0.12
-6.70
-12.53
-16.91
-19.86
-21.72
-23.08
-24.55
-26.76
-30.07
-34.43
-39.06
-42.40
-42.48
-37.51
-26.67
-10.62
8.52
27.91
44.89
57.88
66.57
71.66
74.10
74.59
73.34
70.20
65.13
58.37
50.53
42.32
34.35
27.01
20.46
14.83
10.27
7.06
5.34
5.09
5.97
7.41
8.81
9.70
9.88
9.42
8.52
7.40
6.14
4.65
2.74
0.20
-2.99
-6.66
-10.41
-13.77
-16.28
-17.71
-18.11
-17.76
-17.11
-16.58
-16.44
-16.73
-17.19
-17.39
-16.82
-15.09
-12.11
-8.08
-3.44
1.25
5.56
9.16
11.86
13.57
14.23
13.91
12.74
10.98
8.97
7.01
5.35
4.14
3.49
3.46
4.01
4.96
5.96
6.56
6.37
5.24
3.31
0.97
-1.37
-3.43
-5.22
-6.98
-9.01
-11.48
-14.33
-17.26
-19.88
-21.90
-23.25
-24.06
-24.64
-25.24
-25.98
-26.75
-27.30
-27.31
-26.47
-24.62
-21.68
-17.74
-12.95
-7.62
-2.14
3.08
7.69
11.37
13.91
15.22
15.29
14.25
12.39
10.16
8.08
6.57
5.93
6.15
7.06
8.34
9.74
11.04
12.16
13.06
13.71
14.03
13.87
13.09
11.60
9.45
6.85
4.07
1.42
-0.91
-2.86
-4.53
-6.09
-7.68
-9.42
-11.36
-13.50
-15.82
-18.22
-20.41
-21.95
-22.27
-20.90
-17.69
-12.92
-7.28
-1.62
3.31
7.12
9.79
11.53
12.54
12.85
12.37
10.99
8.76
6.02
3.24
0.94
-0.52
-1.01
-0.65
0.24
1.30
2.17
2.64
2.63
2.23
1.64
1.04
0.55
0.15
-0.26
-0.79
-1.51
-2.41
-3.40
-4.42
-5.44
-6.48
-7.60
-8.80
-10.10
-11.43
-12.70
-13.76
-14.41
-14.39
-13.39
-11.20
-7.72
-3.13
2.15
7.56
12.47
16.39
19.08
20.52
20.90
20.47
19.45
18.02
16.30
14.46
12.76
11.45
10.71
10.56
10.84
11.33
11.78
12.06
12.17
12.15
12.09
11.99
11.78
11.34
10.54
9.28
7.55
5.42
3.07
0.69
-1.50
-3.40
-5.03
-6.60
-8.37
-10.61
-13.39
-16.56
-19.67
-22.12
-23.28
-22.74
-20.41
-16.50
-11.53
-6.14
-0.93
3.62
7.18
9.55
10.64
10.49
9.29
7.43
5.41
3.69
2.60
2.21
2.34
2.69
3.01
3.14
3.09
2.98
2.92
3.01
3.24
3.55
3.78
3.72
3.22
2.20
0.74
-0.98
-2.73
-4.33
-5.75
-7.12
-8.70
-10.73
-13.29
-16.16
-18.82
-20.55
-20.69
-18.93
-15.45
-10.92
-6.24
-2.21
0.72
2.56
3.56
4.01
4.07
3.74
3.00
1.84
0.37
-1.25
-2.91
-4.58
-6.27
-7.96
-9.55
-10.87
-11.77
-12.18
-12.18
-11.96
-11.73
-11.56
-11.45
-11.26
-10.84
-10.13
-9.21
-8.24
-7.48
-7.19
-7.55
-8.62
-10.29
-12.24
-13.93
-14.70
-13.95
-11.40
-7.18
-1.90
3.59
8.42
12.03
14.23
15.17
15.21
14.67
13.75
12.51
10.98
9.21
7.36
5.64
4.29
3.42
3.03
2.99
3.13
3.30
3.38
3.26
2.78
1.75
0.07
-2.22
-4.86
-7.45
-9.68
-11.43
-12.91
-14.48
-16.50
-19.05
-21.95
-24.71
-26.75
-27.52
-26.69
-24.16
-20.06
-14.71
-8.60
-2.24
3.82
9.15
13.43
16.49
18.31
19.03
18.86
18.12
17.10
16.04
15.05
14.13
13.26
12.48
11.87
11.60
11.69
12.03
12.31
12.18
11.35
9.76
7.59
5.18
2.88
0.87
-0.85
-2.47
-4.23
-6.34
-8.91
-11.91
-15.23
-18.65
-21.89
-24.57
-26.25
-26.47
-24.89
-21.43
-16.37
-10.34
-4.11
1.56
6.15
9.43
11.46
12.44
12.55
12.02
10.99
9.69
8.34
7.20
6.47
6.24
6.57
7.38
8.57
10.00
11.48
12.81
13.75
14.19
14.07
13.45
12.47
11.27
9.97
8.60
7.13
5.46
3.51
1.27
-1.13
-3.50
-5.62
-7.30
-8.46
-9.02
-8.90
-7.93
-6.00
-3.14
0.35
3.91
6.92
8.95
9.90
10.00
9.61
9.01
8.26
7.26
5.91
4.33
2.80
1.72
1.36
1.77
2.74
3.91
4.98
5.80
6.41
6.89
7.25
7.41
7.19
6.48
5.32
3.92
2.54
1.40
0.54
-0.21
-1.06
-2.26
-3.93
-6.05
-8.45
-10.87
-12.95
-14.36
-14.83
-14.20
-12.43
-9.59
-5.85
-1.50
3.03
7.25
10.59
12.63
13.22
12.50
10.88
8.84
6.80
4.97
3.44
2.20
1.35
0.96
1.08
1.62
2.31
2.79
2.77
2.15
1.03
-0.36
-1.83
-3.27
-4.74
-6.29
-7.91
-9.52
-10.93
-12.08
-13.00
-13.90
-14.99
-16.38
-17.94
-19.37
-20.22
-20.13
-18.90
-16.61
-13.57
-10.20
-6.89
-3.92
-1.45
0.45
1.67
2.07
1.51
0.01
-2.18
-4.61
-6.76
-8.26
-9.00
-9.04
-8.53
-7.56
-6.15
-4.34
-2.38
-0.72
0.14
-0.11
-1.31
-2.94
-4.30
-4.93
-4.85
-4.53
-4.68
-5.81
-8.01
-10.84
-13.62
-15.66
-16.52
-16.10
-14.53
-11.92
-8.34
-3.85
1.39
6.97
12.26
16.58
19.42
20.64
20.48
19.38
17.83
16.10
14.33
12.56
10.89
9.51
8.68
8.57
9.15
10.18
11.29
12.10
12.35
11.93
10.85
9.24
7.31
5.30
3.46
1.98
0.88
0.03
-0.87
-2.13
-4.01
-6.55
-9.56
-12.63
-15.25
-16.83
-16.91
-15.27
-11.98
-7.49
-2.45
2.41
6.51
9.52
11.31
11.96
11.54
10.09
7.76
4.80
1.69
-0.96
-2.59
-2.90
-2.02
-0.35
1.50
3.03
3.97
4.34
4.35
4.18
3.86
3.22
2.02
0.10
-2.43
-5.16
-7.54
-9.14
-9.80
-9.69
-9.21
-8.76
-8.65
-8.94
-9.59
-10.39
-11.02
-11.05
-10.00
-7.53
-3.64
1.29
6.52
11.25
14.82
17.00
17.85
17.62
16.55
14.75
12.31
9.42
6.44
3.85
2.13
1.52
1.99
3.27
4.96
6.69
8.18
9.24
9.77
9.69
8.95
7.64
5.91
4.01
2.20
0.66
-0.47
-1.19
-1.52
-1.51
-1.27
-0.93
-0.67
-0.66
-1.06
-1.95
-3.35
-5.20
-7.32
-9.37
-10.91
-11.44
-10.52
-7.94
-3.77
1.59
7.49
13.19
18.07
21.71
23.99
25.01
24.96
24.09
22.64
20.80
18.85
17.02
15.61
14.79
14.61
15.00
15.77
16.68
17.54
18.18
18.49
18.41
17.91
17.05
15.94
14.70
13.42
12.09
10.60
8.82
6.68
4.32
1.96
-0.09
-1.62
-2.69
-3.54
-4.57
-6.12
-8.35
-11.17
-14.33
-17.45
-20.10
-21.84
-22.27
-21.11
-18.27
-13.97
-8.69
-3.09
2.24
6.86
10.53
13.12
14.53
14.65
13.47
11.15
8.06
4.75
1.77
-0.53
-1.98
-2.67
-2.73
-2.33
-1.60
-0.72
0.10
0.58
0.50
-0.22
-1.46
-3.03
-4.75
-6.54
-8.44
-10.54
-12.84
-15.18
-17.33
-19.03
-20.22
-20.98
-21.55
-22.19
-23.12
-24.47
-26.24
-28.32
-30.41
-32.10
-32.87
-32.25
-29.95
-26.04
-20.91
-15.15
-9.45
-4.31
-0.04
3.23
5.49
6.81
7.25
6.88
5.88
4.48
2.99
1.74
0.92
0.58
0.57
0.65
0.63
0.46
0.27
0.22
0.48
1.04
1.72
2.25
2.38
1.98
1.07
-0.19
-1.57
-2.84
-3.89
-4.72
-5.53
-6.61
-8.24
-10.56
-13.47
-16.59
-19.31
-20.98
-21.03
-19.14
-15.34
-10.01
-3.78
2.57
8.35
13.03
16.39
18.44
19.35
19.31
18.48
16.98
14.91
12.45
9.85
7.47
5.65
4.67
4.61
5.37
6.68
8.18
9.59
10.72
11.50
11.91
11.89
11.33
10.12
8.27
5.97
3.59
1.50
-0.06
-1.15
-2.13
-3.45
-5.47
-8.24
-11.44
-14.43
-16.48
-17.04
-15.85
-13.04
-9.01
-4.25
0.71
5.47
9.68
13.07
15.46
16.74
16.92
16.16
14.71
12.85
10.81
8.76
6.78
4.91
3.22
1.78
0.64
-0.17
-0.71
-1.10
-1.50
-2.01
-2.69
-3.50
-4.42
-5.44
-6.57
-7.81
-9.08
-10.29
-11.33
-12.21
-13.05
-14.06
-15.46
-17.31
-19.51
-21.77
-23.65
-24.67
-24.41
-22.58
-19.14
-14.32
-8.57
-2.56
3.07
7.79
11.35
13.75
15.15
15.82
15.95
15.64
14.89
13.70
12.18
10.50
8.98
7.85
7.27
7.19
7.46
7.90
8.40
8.92
9.44
9.93
10.23
10.16
9.59
8.52
7.08
5.52
4.04
2.67
1.34
-0.11
-1.83
-3.93
-6.37
-9.01
-11.58
-13.64
-14.69
-14.28
-12.14
-8.41
-3.59
1.57
6.30
10.08
12.77
14.49
15.52
16.02
16.05
15.57
14.56
13.09
11.37
9.65
8.19
7.14
6.53
6.32
6.36
6.51
6.66
6.77
6.87
6.98
7.00
6.75
6.05
4.81
3.13
1.33
-0.25
-1.39
-2.12
-2.77
-3.75
-5.38
-7.77
-10.74
-13.79
-16.32
-17.77
-17.76
-16.19
-13.29
-9.48
-5.23
-1.05
2.73
5.77
7.81
8.63
8.15
6.53
4.20
1.76
-0.26
-1.63
-2.43
-2.97
-3.50
-4.06
-4.45
-4.41
-3.83
-2.92
-2.11
-1.84
-2.32
-3.43
-4.79
-6.04
-7.01
-7.81
-8.67
-9.77
-11.08
-12.39
-13.54
-14.50
-15.48
-16.73
-18.32
-19.97
-21.03
-20.72
-18.57
-14.62
-9.47
-4.07
0.70
4.35
6.89
8.66
9.99
10.99
11.50
11.27
10.19
8.44
6.44
4.68
3.47
2.92
2.91
3.28
3.89
4.58
5.19
5.48
5.18
4.17
2.49
0.45
-1.57
-3.28
-4.58
-5.67
-6.87
-8.48
-10.56
-12.93
-15.17
-16.76
-17.28
-16.49
-14.36
-11.01
-6.73
-1.90
3.06
7.72
11.74
14.85
16.95
18.01
18.13
17.42
16.07
14.26
12.19
10.03
7.91
6.00
4.43
3.33
2.81
2.85
3.32
3.94
4.39
4.43
3.94
3.01
1.82
0.52
-0.87
-2.41
-4.24
-6.43
-8.89
-11.49
-14.03
-16.40
-18.49
-20.11
-20.94
-20.53
-18.50
-14.78
-9.77
-4.26
0.85
4.84
7.45
8.86
9.45
9.60
9.52
9.16
8.40
7.17
5.60
3.98
2.69
2.03
2.10
2.77
3.77
4.75
5.49
5.86
5.89
5.65
5.24
4.74
4.16
3.52
2.77
1.78
0.33
-1.83
-4.83
-8.59
-12.73
-16.68
-19.71
-21.19
-20.67
-18.05
-13.60
-7.90
-1.68
4.31
9.49
13.52
16.28
17.79
18.15
17.46
15.87
13.61
11.01
8.47
6.38
5.02
4.52
4.91
6.03
7.65
9.46
11.09
12.23
12.55
11.87
10.17
7.64
4.66
1.74
-0.64
-2.22
-3.05
-3.54
-4.23
-5.61
-7.86
-10.78
-13.87
-16.48
-18.03
-18.14
-16.68
-13.75
-9.70
-5.07
-0.52
3.39
6.25
7.94
8.62
8.50
7.78
6.46
4.44
1.65
-1.82
-5.58
-8.88
-10.79
-10.37
-7.04
-0.78
7.65
16.88
25.22
31.20
33.94
33.41
30.27
25.56
20.32
15.30
10.87
7.11
3.98
1.45
-0.53
-2.02
-3.21
-4.39
-5.94
-8.05
-10.66
-13.33
-15.41
-16.24
-15.41
-12.93
-9.22
-4.92
-0.70
3.01
6.05
8.48
10.41
11.83
12.53
12.23
10.76
8.24
5.14
2.10
-0.20
-1.40
-1.52
-0.89
-0.00
0.78
1.28
1.52
1.65
1.77
1.90
1.90
1.60
0.82
-0.48
-2.23
-4.22
-6.20
-7.94
-9.34
-10.42
-11.30
-12.15
-13.18
-14.58
-16.41
-18.48
-20.38
-21.45
-21.07
-18.88
-15.03
-10.12
-5.11
-0.91
1.82
2.84
2.25
0.43
-2.16
-5.05
-7.76
-9.88
-11.05
-11.05
-9.84
-7.54
-4.48
-1.03
2.37
5.41
7.84
9.51
10.30
10.10
8.81
6.47
3.26
-0.41
-4.06
-7.25
-9.75
-11.59
-12.93
-13.98
-14.83
-15.53
-16.10
-16.62
-17.27
-18.18
-19.28
-20.26
-20.59
-19.68
-17.15
-12.96
-7.48
-1.40
4.52
9.57
13.33
15.67
16.63
16.40
15.21
13.26
10.82
8.22
5.82
3.93
2.74
2.27
2.42
3.04
4.05
5.41
7.09
8.96
10.75
12.10
12.62
12.11
10.57
8.30
5.68
3.10
0.75
-1.35
-3.27
-5.09
-6.79
-8.28
-9.48
-10.45
-11.31
-12.30
-13.58
-15.13
-16.78
-18.19
-18.91
-18.51
-16.60
-13.05
-7.99
-1.90
4.54
10.59
15.66
19.41
21.84
23.13
23.53
23.26
22.43
21.16
19.60
17.96
16.48
15.39
14.79
14.69
14.97
15.48
16.11
16.70
17.13
17.22
16.81
15.80
14.26
12.35
10.35
8.46
6.78
5.27
3.80
2.24
0.59
-1.03
-2.39
-3.39
-4.07
-4.70
-5.61
-7.10
-9.21
-11.76
-14.41
-16.83
-18.71
-19.78
-19.74
-18.22
-14.99
-10.09
-4.01
2.41
8.22
12.74
15.71
17.31
17.97
18.02
17.64
16.82
15.53
13.86
12.15
10.83
10.26
10.61
11.72
13.20
14.59
15.55
15.99
16.03
15.91
15.78
15.62
15.31
14.68
13.69
12.44
11.08
9.73
8.32
6.69
4.75
2.63
0.63
-0.90
-1.81
-2.28
-2.86
-4.09
-6.28
-9.32
-12.73
-15.78
-17.84
-18.48
-17.64
-15.46
-12.24
-8.28
-3.81
0.93
5.65
10.01
13.53
15.73
16.32
15.31
13.10
10.34
7.70
5.66
4.35
3.70
3.52
3.74
4.37
5.44
6.80
8.18
9.12
9.28
8.55
7.07
5.17
3.16
1.24
-0.56
-2.28
-3.99
-5.71
-7.44
-9.17
-10.89
-12.59
-14.28
-15.91
-17.46
-18.90
-20.25
-21.58
-23.05
-24.74
-26.60
-28.38
-29.59
-29.64
-28.08
-24.78
-20.05
-14.54
-8.99
-4.03
-0.02
2.96
4.98
6.16
6.57
6.33
5.58
4.59
3.62
2.87
2.44
2.29
2.31
2.40
2.57
2.85
3.28
3.80
4.28
4.58
4.55
4.17
3.45
2.46
1.24
-0.16
-1.69
-3.24
-4.72
-6.07
-7.31
-8.55
-9.96
-11.60
-13.49
-15.48
-17.33
-18.75
-19.37
-18.88
-17.03
-13.75
-9.25
-3.96
1.50
6.54
10.68
13.68
15.47
16.10
15.70
14.42
12.43
9.93
7.19
4.51
2.16
0.32
-0.95
-1.73
-2.17
-2.43
-2.61
-2.76
-2.87
-2.96
-3.11
-3.42
-4.02
-4.98
-6.26
-7.72
-9.17
-10.48
-11.64
-12.69
-13.79
-15.04
-16.53
-18.22
-20.04
-21.81
-23.25
-23.98
-23.57
-21.63
-18.02
-12.92
-6.88
-0.65
5.07
9.80
13.39
15.96
17.77
18.97
19.64
19.72
19.14
17.91
16.18
14.24
12.42
11.04
10.23
9.99
10.08
10.23
10.19
9.86
9.27
8.50
7.59
6.43
4.92
2.99
0.76
-1.49
-3.44
-4.93
-6.08
-7.21
-8.68
-10.72
-13.31
-16.18
-18.97
-21.30
-22.82
-23.21
-22.19
-19.67
-15.83
-11.14
-6.24
-1.77
1.83
4.43
6.15
7.26
7.95
8.36
8.53
8.44
8.11
7.61
7.08
6.66
6.48
6.58
6.94
7.44
7.89
8.15
8.13
7.85
7.42
6.92
6.42
5.94
5.42
4.84
4.16
3.39
2.49
1.38
-0.07
-2.03
-4.57
-7.55
-10.55
-12.91
-13.88
-12.91
-9.87
-5.24
0.10
5.14
9.13
11.83
13.46
14.48
15.25
15.86
16.10
15.72
14.60
12.91
10.97
9.14
7.64
6.50
5.67
5.13
4.91
5.07
5.57
6.25
6.85
7.16
7.05
6.59
5.92
5.13
4.27
3.29
2.16
0.89
-0.49
-2.04
-3.90
-6.27
-9.18
-12.40
-15.32
-17.16
-17.23
-15.26
-11.53
-6.77
-1.90
2.30
5.40
7.37
8.39
8.66
8.25
7.14
5.33
2.96
0.36
-2.05
-3.93
-5.16
-5.87
-6.31
-6.71
-7.18
-7.71
-8.19
-8.51
-8.61
-8.53
-8.40
-8.38
-8.61
-9.19
-10.09
-11.22
-12.47
-13.84
-15.44
-17.37
-19.60
-21.84
-23.54
-24.10
-23.08
-20.38
-16.24
-11.10
-5.44
0.31
5.76
10.53
14.26
16.66
17.64
17.28
15.89
13.84
11.49
9.12
6.99
5.24
4.00
3.27
2.93
2.78
2.61
2.27
1.74
1.10
0.43
-0.28
-1.09
-2.17
-3.66
-5.64
-8.08
-10.84
-13.73
-16.54
-19.00
-20.75
-21.41
-20.57
-17.99
-13.72
-8.17
-2.02
3.95
9.12
13.15
15.97
17.68
18.39
18.11
16.86
14.74
12.03
9.21
6.82
5.25
4.66
4.91
5.59
6.29
6.63
6.47
5.86
4.98
4.09
3.35
2.81
2.35
1.82
1.03
-0.12
-1.72
-3.83
-6.44
-9.43
-12.46
-14.95
-16.23
-15.72
-13.21
-8.97
-3.67
1.86
6.91
11.08
14.28
16.61
18.13
18.80
18.45
16.98
14.49
11.32
8.06
5.27
3.34
2.37
2.20
2.57
3.20
3.82
4.27
4.36
4.00
3.19
2.05
0.78
-0.48
-1.73
-3.17
-5.05
-7.60
-10.91
-14.87
-19.16
-23.19
-26.26
-27.59
-26.62
-23.19
-17.74
-11.13
-4.43
1.48
6.10
9.35
11.46
12.77
13.53
13.94
14.03
13.70
12.82
11.27
9.07
6.51
4.05
2.14
1.11
0.91
1.27
1.74
1.97
1.74
1.04
-0.03
-1.33
-2.70
-4.00
-5.11
-5.96
-6.54
-6.95
-7.39
-8.09
-9.29
-11.12
-13.38
-15.58
-16.98
-16.80
-14.49
-10.02
-3.86
3.02
9.47
14.51
17.56
18.52
17.72
15.75
13.22
10.64
8.32
6.44
5.07
4.25
4.01
4.29
4.97
5.77
6.45
6.81
6.88
6.78
6.70
6.67
6.54
5.97
4.68
2.58
-0.12
-3.01
-5.61
-7.62
-9.05
-10.16
-11.38
-13.08
-15.40
-18.13
-20.78
-22.62
-22.87
-20.97
-16.66
-10.17
-2.13
6.52
14.73
21.54
26.24
28.39
27.98
25.33
21.07
16.03
11.06
6.88
3.91
2.20
1.49
1.31
1.25
1.05
0.70
0.28
-0.06
-0.30
-0.56
-0.94
-1.56
-2.40
-3.33
-4.21
-4.93
-5.47
-5.94
-6.50
-7.30
-8.40
-9.70
-10.92
-11.62
-11.33
-9.67
-6.47
-1.81
3.91
10.10
16.05
21.14
24.96
27.43
28.72
29.06
28.65
27.54
25.73
23.32
20.57
17.92
15.76
14.27
13.35
12.67
11.93
10.95
9.76
8.47
7.16
5.75
4.09
2.00
-0.63
-3.75
-7.17
-10.58
-13.65
-16.15
-18.07
-19.63
-21.17
-23.08
-25.55
-28.53
-31.68
-34.48
-36.33
-36.71
-35.25
-31.82
-26.57
-19.97
-12.77
-5.83
0.02
4.30
6.86
7.94
7.96
7.31
6.24
4.82
3.10
1.20
-0.52
-1.64
-1.80
-0.87
0.95
3.20
5.36
7.07
8.19
8.82
9.16
9.38
9.48
9.31
8.71
7.53
5.79
3.61
1.20
-1.31
-3.87
-6.46
-9.04
-11.49
-13.59
-15.07
-15.72
-15.45
-14.27
-12.22
-9.29
-5.40
-0.48
5.40
11.90
18.44
24.32
28.96
32.04
33.47
33.40
32.02
29.53
26.21
22.45
18.78
15.81
14.03
13.65
14.49
15.99
17.44
18.14
17.63
15.84
12.99
9.49
5.75
2.00
-1.70
-5.37
-8.91
-12.12
-14.62
-16.13
-16.60
-16.34
-15.88
-15.78
-16.34
-17.62
-19.38
-21.27
-22.92
-24.01
-24.28
-23.48
-21.48
-18.30
-14.19
-9.61
-5.07
-1.13
1.85
3.69
4.36
3.88
2.38
0.10
-2.66
-5.47
-7.91
-9.68
-10.64
-10.75
-10.14
-8.92
-7.22
-5.23
-3.13
-1.21
0.24
0.97
0.90
0.14
-1.01
-2.17
-3.07
-3.58
-3.81
-3.99
-4.38
-5.09
-6.11
-7.24
-8.29
-9.01
-9.30
-9.17
-8.81
-8.54
-8.71
-9.50
-10.79
-12.09
-12.69
-11.86
-9.18
-4.72
0.99
7.08
12.59
16.66
18.83
19.09
18.05
16.83
16.75
18.78
23.13
28.99
34.83
38.97
40.24
38.37
33.99
28.24
22.24
16.73
11.97
7.90
4.39
1.36
-1.16
-3.21
-4.90
-6.51
-8.35
-10.62
-13.31
-16.13
-18.67
-20.54
-21.57
-21.89
-21.84
-21.81
-22.06
-22.66
-23.41
-23.96
-23.86
-22.73
-20.36
-16.73
-12.07
-6.80
-1.37
3.74
8.19
11.75
14.27
15.72
16.12
15.50
14.01
11.83
9.24
6.58
4.21
2.43
1.40
1.08
1.21
1.47
1.61
1.49
1.15
0.72
0.31
-0.02
-0.33
-0.74
-1.39
-2.40
-3.84
-5.66
-7.75
-9.89
-11.89
-13.64
-15.21
-16.82
-18.74
-21.11
-23.76
-26.24
-27.88
-28.06
-26.36
-22.71
-17.45
-11.06
-4.14
2.83
9.47
15.49
20.59
24.49
26.95
27.87
27.38
25.82
23.64
21.24
18.86
16.53
14.16
11.67
9.10
6.65
4.60
3.14
2.27
1.87
1.65
1.35
0.81
-0.02
-1.15
-2.54
-4.16
-5.94
-7.76
-9.51
-11.13
-12.64
-14.18
-15.93
-17.98
-20.23
-22.38
-23.89
-24.23
-22.94
-19.84
-15.07
-9.08
-2.50
3.98
9.78
14.52
18.01
20.27
21.39
21.52
20.87
19.67
18.12
16.37
14.57
12.84
11.37
10.36
9.95
10.22
11.04
12.22
13.53
14.79
15.85
16.59
16.77
16.15
14.61
12.27
9.61
7.22
5.59
4.76
4.27
3.38
1.39
-1.98
-6.48
-11.43
-15.95
-19.30
-20.98
-20.79
-18.77
-15.14
-10.28
-4.76
0.73
5.52
9.10
11.29
12.21
12.26
11.81
11.07
10.03
8.45
6.17
3.23
0.01
-2.94
-5.09
-6.24
-6.51
-6.26
-5.86
-5.47
-5.03
-4.31
-3.21
-1.81
-0.42
0.50
0.67
0.00
-1.29
-2.85
-4.36
-5.70
-6.95
-8.28
-9.83
-11.64
-13.63
-15.61
-17.30
-18.42
-18.64
-17.60
-15.01
-10.78
-5.10
1.49
8.19
14.19
18.78
21.63
22.75
22.40
20.94
18.67
15.76
12.28
8.36
4.31
0.65
-2.00
-3.11
-2.47
-0.28
2.82
5.98
8.47
9.84
10.08
9.51
8.61
7.79
7.23
6.86
6.43
5.63
4.24
2.14
-0.62
-3.90
-7.45
-11.03
-14.41
-17.43
-19.98
-21.93
-23.13
-23.37
-22.44
-20.26
-16.97
-12.92
-8.67
-4.85
-1.99
-0.56
-0.92
-3.27
-7.49
-12.90
-18.26
-22.07
-23.10
-20.97
-16.32
-10.61
-5.35
-1.56
0.64
1.69
2.21
2.51
2.45
1.71
0.13
-2.09
-4.54
-6.79
-8.68
-10.36
-12.10
-14.21
-16.82
-19.84
-22.97
-25.73
-27.57
-27.93
-26.47
-23.13
-18.26
-12.47
-6.51
-0.97
3.77
7.59
10.57
12.83
14.53
15.81
16.82
17.72
18.60
19.45
20.11
20.36
20.00
18.94
17.27
15.26
13.16
11.21
9.53
8.11
6.89
5.80
4.80
3.81
2.72
1.40
-0.32
-2.52
-5.19
-8.24
-11.50
-14.84
-18.02
-20.75
-22.59
-23.05
-21.70
-18.39
-13.36
-7.19
-0.67
5.48
10.71
14.73
17.46
18.89
19.06
18.01
15.89
13.01
9.84
6.86
4.47
2.82
1.91
1.58
1.69
2.20
3.08
4.23
5.44
6.32
6.52
5.90
4.55
2.86
1.26
0.06
-0.71
-1.27
-2.02
-3.30
-5.18
-7.40
-9.44
-10.61
-10.35
-8.39
-4.83
-0.16
4.98
9.95
14.24
17.58
19.88
21.16
21.50
20.98
19.74
17.92
15.67
13.11
10.39
7.71
5.30
3.47
2.51
2.56
3.52
5.02
6.50
7.45
7.62
7.07
6.14
5.15
4.28
3.46
2.51
1.32
-0.06
-1.43
-2.62
-3.69
-4.91
-6.56
-8.65
-10.78
-12.18
-12.02
-9.87
-5.80
-0.45
5.26
10.48
14.67
17.63
19.39
20.03
19.58
18.03
15.41
11.98
8.19
4.58
1.70
-0.10
-0.74
-0.47
0.34
1.21
1.78
1.82
1.31
0.30
-1.05
-2.64
-4.45
-6.50
-8.81
-11.40
-14.22
-17.16
-20.09
-22.91
-25.53
-27.76
-29.31
-29.81
-28.84
-26.12
-21.70
-15.99
-9.73
-3.81
1.01
4.29
5.97
6.28
5.58
4.14
2.11
-0.43
-3.33
-6.30
-8.89
-10.70
-11.49
-11.30
-10.42
-9.25
-8.16
-7.42
-7.10
-7.19
-7.56
-8.11
-8.76
-9.52
-10.50
-11.87
-13.80
-16.32
-19.28
-22.29
-24.84
-26.36
-26.40
-24.65
-21.02
-15.67
-9.02
-1.71
5.44
11.69
16.50
19.66
21.27
21.58
20.88
19.36
17.14
14.32
11.13
7.95
5.20
3.28
2.38
2.44
3.15
4.04
4.70
4.84
4.43
3.63
2.62
1.56
0.47
-0.72
-2.05
-3.51
-5.04
-6.63
-8.32
-10.16
-12.06
-13.64
-14.28
-13.31
-10.33
-5.43
0.76
7.30
13.25
17.96
21.19
23.00
23.61
23.24
22.07
20.24
17.97
15.53
13.25
11.45
10.31
9.91
10.13
10.77
11.54
12.14
12.34
12.00
11.11
9.84
8.40
7.02
5.80
4.73
3.62
2.27
0.48
-1.81
-4.51
-7.39
-10.12
-12.24
-13.34
-13.02
-11.06
-7.45
-2.46
3.41
9.48
15.08
19.65
22.86
24.63
25.06
24.38
22.82
20.64
18.05
15.33
12.79
10.73
9.37
8.78
8.85
9.35
9.99
10.51
10.72
10.52
9.87
8.83
7.51
6.03
4.51
2.99
1.43
-0.33
-2.45
-5.00
-7.96
-11.16
-14.31
-17.07
-19.08
-19.99
-19.56
-17.65
-14.32
-9.86
-4.78
0.32
4.79
8.07
9.78
9.62
7.56
3.72
-1.48
-7.35
-13.00
-17.55
-20.34
-21.09
-20.00
-17.64
-14.75
-12.05
-10.08
-9.10
-8.99
-9.30
-9.34
-8.37
-5.87
-1.83
3.15
7.99
11.47
12.68
11.30
7.72
2.77
-2.65
-7.84
-12.40
-16.12
-18.81
-20.15
-19.79
-17.56
-13.66
-8.67
-3.40
1.35
4.99
7.31
8.37
8.38
7.55
6.03
3.87
1.18
-1.84
-4.80
-7.19
-8.54
-8.52
-7.11
-4.59
-1.51
1.52
3.94
5.42
5.85
5.29
4.00
2.23
0.28
-1.68
-3.54
-5.28
-6.87
-8.29
-9.50
-10.57
-11.58
-12.78
-14.29
-16.00
-17.48
-18.03
-16.89
-13.63
-8.33
-1.71
5.11
11.01
15.22
17.54
18.22
17.75
16.57
14.91
12.85
10.46
7.94
5.69
4.06
3.34
3.48
4.19
5.06
5.73
6.03
5.98
5.73
5.35
4.82
3.99
2.67
0.76
-1.65
-4.29
-6.84
-9.01
-10.76
-12.21
-13.65
-15.37
-17.53
-19.95
-22.19
-23.58
-23.42
-21.27
-17.05
-11.17
-4.36
2.48
8.59
13.45
16.90
19.02
19.94
19.80
18.71
16.86
14.52
12.12
10.12
8.93
8.74
9.44
10.70
12.06
13.10
13.61
13.61
13.25
12.72
12.10
11.34
10.32
8.93
7.16
5.14
3.09
1.16
-0.59
-2.25
-3.99
-5.96
-8.28
-10.91
-13.76
-16.61
-19.12
-20.87
-21.45
-20.52
-17.97
-13.99
-9.01
-3.65
1.46
5.82
9.12
11.29
12.42
12.68
12.24
11.25
9.82
8.08
6.28
4.77
3.94
4.02
5.00
6.52
7.99
8.85
8.76
7.82
6.47
5.32
4.90
5.42
6.73
8.37
9.78
10.50
10.32
9.26
7.51
5.35
2.94
0.40
-2.21
-4.87
-7.53
-10.10
-12.54
-14.75
-16.62
-17.91
-18.29
-17.43
-15.10
-11.33
-6.44
-0.99
4.39
9.15
12.87
15.36
16.49
16.28
14.78
12.19
8.86
5.29
2.05
-0.38
-1.69
-1.87
-1.13
0.16
1.66
3.14
4.42
5.44
6.15
6.50
6.44
5.94
5.04
3.79
2.29
0.63
-1.11
-2.84
-4.51
-6.10
-7.60
-9.04
-10.40
-11.64
-12.70
-13.54
-14.22
-14.95
-15.91
-17.21
-18.70
-19.87
-20.06
-18.69
-15.54
-10.86
-5.32
0.31
5.44
9.80
13.42
16.40
18.66
19.95
20.00
18.74
16.44
13.72
11.27
9.61
8.96
9.18
9.98
11.07
12.30
13.61
14.93
16.14
17.00
17.23
16.68
15.42
13.66
11.76
10.01
8.58
7.39
6.24
4.87
3.07
0.81
-1.81
-4.63
-7.45
-10.19
-12.77
-15.20
-17.51
-19.75
-22.02
-24.37
-26.78
-29.02
-30.66
-31.12
-29.97
-27.03
-22.59
-17.26
-11.86
-7.08
-3.34
-0.80
0.61
0.95
0.31
-1.19
-3.31
-5.56
-7.35
-8.09
-7.42
-5.37
-2.36
0.96
3.90
5.99
7.11
7.47
7.51
7.68
8.36
9.69
11.58
13.76
15.90
17.68
18.85
19.27
18.87
17.65
15.64
13.04
10.08
7.02
4.06
1.27
-1.42
-4.09
-6.68
-8.92
-10.45
-10.83
-9.82
-7.48
-4.12
-0.23
3.68
7.20
10.08
12.13
13.22
13.26
12.18
10.09
7.29
4.27
1.65
-0.05
-0.54
0.10
1.53
3.23
4.77
5.89
6.52
6.74
6.58
6.08
5.15
3.85
2.33
0.89
-0.15
-0.62
-0.63
-0.53
-0.78
-1.69
-3.27
-5.29
-7.36
-9.14
-10.45
-11.23
-11.41
-10.87
-9.44
-7.01
-3.69
0.21
4.16
7.66
10.32
11.98
12.76
12.84
12.42
11.55
10.19
8.27
5.82
3.06
0.44
-1.52
-2.44
-2.21
-1.05
0.56
2.05
2.99
3.16
2.61
1.50
-0.00
-1.80
-3.86
-6.16
-8.55
-10.81
-12.71
-14.16
-15.31
-16.47
-17.98
-20.02
-22.52
-25.21
-27.65
-29.43
-30.17
-29.60
-27.56
-24.02
-19.17
-13.37
-7.16
-1.08
4.36
8.85
12.21
14.40
15.47
15.58
14.95
13.85
12.56
11.32
10.34
9.77
9.74
10.31
11.45
13.02
14.77
16.40
17.53
17.78
16.78
14.28
10.22
4.82
-1.43
-7.89
-13.88
-18.94
-22.77
-25.37
-26.91
-27.66
-27.96
-28.14
-28.48
-29.08
-29.80
-30.22
-29.77
-27.94
-24.51
-19.68
-14.03
-8.30
-3.16
1.01
4.22
6.70
8.75
10.54
12.07
13.16
13.70
13.64
13.16
12.51
11.99
11.74
11.73
11.76
11.61
11.18
10.52
9.86
9.37
9.13
9.01
8.73
8.08
6.97
5.53
4.01
2.64
1.47
0.39
-0.78
-2.20
-3.95
-6.03
-8.42
-10.98
-13.49
-15.52
-16.56
-16.13
-14.05
-10.50
-6.00
-1.22
3.31
7.31
10.73
13.61
15.87
17.31
17.68
16.87
15.08
12.76
10.47
8.72
7.68
7.24
7.09
6.94
6.73
6.56
6.64
7.06
7.68
8.12
7.99
7.03
5.27
3.00
0.65
-1.43
-3.13
-4.52
-5.84
-7.31
-9.09
-11.23
-13.69
-16.33
-18.95
-21.20
-22.64
-22.79
-21.31
-18.16
-13.62
-8.32
-3.01
1.66
5.26
7.66
8.89
9.11
8.43
6.97
4.91
2.46
-0.03
-2.19
-3.69
-4.37
-4.25
-3.53
-2.54
-1.58
-0.87
-0.48
-0.36
-0.47
-0.79
-1.34
-2.13
-3.09
-4.12
-5.12
-6.07
-7.11
-8.43
-10.18
-12.35
-14.73
-16.94
-18.59
-19.33
-18.86
-17.06
-13.90
-9.50
-4.17
1.63
7.27
12.16
15.80
17.97
18.76
18.48
17.52
16.17
14.57
12.76
10.80
8.84
7.19
6.09
5.67
5.83
6.24
6.55
6.46
5.86
4.76
3.24
1.32
-1.03
-3.91
-7.29
-11.03
-14.88
-18.51
-21.66
-24.22
-26.26
-27.88
-29.12
-29.80
-29.50
-27.76
-24.25
-19.04
-12.58
-5.63
1.04
6.83
11.49
15.02
17.57
19.21
19.92
19.57
18.14
15.81
12.99
10.23
8.00
6.55
5.84
5.67
5.79
6.07
6.51
7.14
7.87
8.50
8.68
8.15
6.83
4.91
2.72
0.59
-1.33
-3.13
-5.08
-7.43
-10.29
-13.51
-16.67
-19.21
-20.53
-20.11
-17.66
-13.23
-7.25
-0.44
6.28
12.04
16.21
18.53
19.12
18.37
16.76
14.70
12.50
10.31
8.22
6.32
4.65
3.30
2.33
1.78
1.70
2.06
2.75
3.58
4.30
4.69
4.59
4.00
3.01
1.77
0.39
-1.10
-2.74
-4.58
-6.68
-9.01
-11.53
-14.14
-16.72
-19.12
-21.06
-22.26
-22.42
-21.38
-19.11
-15.72
-11.42
-6.44
-0.96
4.90
10.92
16.81
22.10
26.27
28.82
29.46
28.21
25.40
21.58
17.38
13.36
9.89
7.13
5.07
3.61
2.62
1.96
1.50
1.12
0.77
0.44
0.20
0.11
0.19
0.34
0.40
0.20
-0.39
-1.37
-2.70
-4.31
-6.20
-8.38
-10.88
-13.60
-16.31
-18.59
-19.91
-19.73
-17.68
-13.69
-8.04
-1.35
5.61
12.09
17.52
21.55
24.08
25.14
24.82
23.29
20.79
17.68
14.40
11.42
9.10
7.61
6.87
6.62
6.58
6.57
6.59
6.79
7.32
8.21
9.24
10.12
10.50
10.17
9.09
7.42
5.40
3.31
1.42
-0.12
-1.23
-2.00
-2.57
-3.18
-4.07
-5.40
-7.20
-9.29
-11.29
-12.70
-13.02
-11.93
-9.41
-5.70
-1.21
3.57
8.20
12.30
15.50
17.50
18.07
17.17
14.99
11.95
8.61
5.50
3.08
1.59
1.10
1.51
2.61
4.12
5.83
7.56
9.19
10.65
11.78
12.43
12.41
11.59
10.02
7.86
5.42
3.00
0.87
-0.82
-2.04
-2.91
-3.61
-4.36
-5.38
-6.78
-8.59
-10.71
-12.90
-14.84
-16.15
-16.48
-15.54
-13.19
-9.52
-4.79
0.48
5.71
10.30
13.80
15.92
16.62
16.01
14.35
11.95
9.14
6.28
3.64
1.46
-0.13
-1.09
-1.50
-1.43
-1.00
-0.35
0.37
0.98
1.29
1.17
0.53
-0.64
-2.33
-4.46
-6.94
-9.55
-12.01
-14.05
-15.51
-16.43
-17.09
-17.91
-19.26
-21.35
-24.08
-27.07
-29.80
-31.68
-32.21
-31.05
-28.12
-23.61
-18.02
-12.05
-6.43
-1.75
1.68
3.79
4.72
4.70
3.96
2.75
1.33
0.04
-0.81
-0.93
-0.29
0.97
2.50
3.90
4.86
5.26
5.11
4.55
3.69
2.58
1.15
-0.68
-2.94
-5.52
-8.17
-10.60
-12.59
-14.06
-15.14
-16.12
-17.31
-19.02
-21.33
-24.04
-26.67
-28.53
-28.92
-27.38
-23.81
-18.49
-12.01
-5.02
1.86
8.15
13.46
17.49
20.03
21.00
20.54
18.95
16.61
13.95
11.34
9.17
7.74
7.28
7.78
8.99
10.43
11.64
12.34
12.57
12.54
12.50
12.55
12.51
12.08
10.97
9.08
6.56
3.68
0.81
-1.79
-4.08
-6.20
-8.40
-10.97
-14.04
-17.47
-20.90
-23.74
-25.41
-25.47
-23.68
-20.06
-14.83
-8.40
-1.38
5.52
11.54
16.04
18.69
19.50
18.78
17.03
14.74
12.30
9.90
7.67
5.73
4.25
3.45
3.53
4.47
6.06
7.89
9.52
10.67
11.23
11.28
10.96
10.30
9.22
7.58
5.32
2.59
-0.29
-2.87
-4.83
-6.08
-6.77
-7.27
-7.98
-9.18
-11.00
-13.27
-15.60
-17.43
-18.16
-17.26
-14.44
-9.75
-3.61
3.25
10.02
15.99
20.72
24.12
26.29
27.44
27.68
27.02
25.46
23.08
20.19
17.23
14.68
12.88
11.89
11.55
11.56
11.59
11.46
11.06
10.43
9.58
8.50
7.15
5.51
3.56
1.33
-1.11
-3.67
-6.28
-8.84
-11.27
-13.44
-15.33
-16.95
-18.42
-19.96
-21.77
-23.96
-26.45
-28.99
-31.19
-32.60
-32.84
-31.59
-28.73
-24.27
-18.44
-11.65
-4.40
2.76
9.38
15.12
19.73
23.03
24.94
25.40
24.47
22.40
19.57
16.44
13.48
11.04
9.24
7.99
7.07
6.20
5.20
4.01
2.64
1.11
-0.60
-2.57
-4.84
-7.36
-9.96
-12.42
-14.56
-16.41
-18.07
-19.71
-21.40
-23.12
-24.71
-26.08
-27.21
-28.20
-29.19
-30.24
-31.25
-31.90
-31.71
-30.10
-26.62
-21.06
-13.61
-4.85
4.38
13.16
20.75
26.71
30.84
33.12
33.59
32.37
29.68
25.97
21.89
18.20
15.58
14.38
14.55
15.76
17.47
19.29
20.97
22.45
23.68
24.51
24.69
23.97
22.17
19.34
15.65
11.38
6.77
2.05
-2.48
-6.51
-9.65
-11.65
-12.48
-12.41
-11.98
-11.78
-12.30
-13.71
-15.81
-18.01
-19.55
-19.65
-17.73
-13.67
-7.75
-0.64
6.83
13.88
19.92
24.58
27.61
28.91
28.42
26.26
22.71
18.28
13.60
9.31
5.90
3.64
2.57
2.55
3.38
4.85
6.74
8.84
10.92
12.72
14.04
14.72
14.65
13.82
12.23
9.94
7.08
3.87
0.57
-2.54
-5.32
-7.78
-10.04
-12.30
-14.66
-17.15
-19.68
-22.13
-24.34
-26.07
-26.98
-26.68
-24.79
-21.21
-16.16
-10.19
-4.06
1.58
6.31
9.97
12.59
14.22
14.82
14.34
12.83
10.57
8.06
5.91
4.59
4.26
4.77
5.81
7.07
8.42
9.82
11.24
12.47
13.18
12.95
11.52
8.94
5.53
1.81
-1.74
-4.83
-7.40
-9.59
-11.60
-13.59
-15.70
-18.01
-20.57
-23.39
-26.36
-29.14
-31.27
-32.13
-31.22
-28.28
-23.44
-17.19
-10.27
-3.45
2.57
7.29
10.42
11.83
11.56
9.80
6.88
3.31
-0.33
-3.47
-5.67
-6.77
-6.86
-6.26
-5.36
-4.48
-3.73
-3.01
-2.13
-0.93
0.58
2.14
3.30
3.61
2.83
0.96
-1.76
-5.02
-8.57
-12.28
-16.14
-20.11
-24.04
-27.60
-30.27
-31.49
-30.77
-27.85
-22.81
-16.04
-8.25
-0.21
7.38
14.02
19.46
23.58
26.27
27.43
26.99
24.99
21.75
17.77
13.69
10.12
7.49
5.97
5.50
5.90
6.89
8.18
9.47
10.44
10.78
10.25
8.69
6.17
2.94
-0.54
-3.84
-6.67
-9.00
-11.08
-13.32
-16.06
-19.38
-23.04
-26.51
-29.12
-30.17
-29.15
-25.81
-20.23
-12.88
-4.52
3.91
11.52
17.65
21.93
24.33
25.04
24.35
22.60
20.11
17.22
14.26
11.54
9.33
7.80
7.01
6.89
7.25
7.78
8.15
8.12
7.56
6.53
5.17
3.63
1.96
0.12
-1.94
-4.26
-6.73
-9.23
-11.64
-13.97
-16.32
-18.79
-21.37
-23.76
-25.39
-25.58
-23.75
-19.64
-13.52
-6.03
1.89
9.34
15.65
20.44
23.60
25.17
25.25
23.98
21.61
18.53
15.24
12.28
10.05
8.72
8.23
8.37
8.87
9.58
10.43
11.36
12.30
13.03
13.23
12.59
10.94
8.35
5.14
1.78
-1.35
-4.01
-6.24
-8.27
-10.39
-12.89
-15.86
-19.13
-22.33
-24.90
-26.19
-25.61
-22.83
-17.82
-11.02
-3.21
4.63
11.51
16.73
19.98
21.28
20.91
19.23
16.55
13.16
9.40
5.71
2.57
0.45
-0.40
-0.05
1.19
2.87
4.52
5.84
6.63
6.81
6.35
5.26
3.61
1.48
-0.99
-3.68
-6.44
-9.22
-11.97
-14.72
-17.54
-20.55
-23.83
-27.18
-30.13
-31.92
-31.72
-28.96
-23.56
-16.09
-7.53
0.93
8.30
14.01
17.86
19.94
20.40
19.35
16.88
13.17
8.66
4.05
0.11
-2.47
-3.38
-2.80
-1.31
0.39
1.73
2.52
2.87
3.01
3.05
2.84
2.06
0.46
-1.94
-4.81
-7.67
-10.12
-12.07
-13.83
-15.89
-18.69
-22.35
-26.55
-30.60
-33.62
-34.74
-33.31
-29.04
-22.08
-12.99
-2.69
7.71
17.11
24.65
29.86
32.71
33.51
32.70
30.68
27.77
24.26
20.51
16.97
14.11
12.32
11.70
12.09
13.11
14.35
15.47
16.29
16.74
16.77
16.31
15.23
13.36
10.56
6.89
2.63
-1.72
-5.61
-8.63
-10.72
-12.19
-13.62
-15.55
-18.23
-21.53
-24.87
-27.41
-28.34
-27.05
-23.32
-17.30
-9.54
-0.86
7.83
15.70
22.05
26.47
28.79
29.06
27.58
24.77
21.20
17.46
14.11
11.58
10.17
9.97
10.86
12.53
14.54
16.43
17.84
18.57
18.59
18.03
16.99
15.53
13.61
11.16
8.19
4.87
1.50
-1.58
-4.14
-6.18
-7.92
-9.70
-11.85
-14.53
-17.69
-21.00
-23.93
-25.86
-26.23
-24.63
-20.98
-15.50
-8.76
-1.52
5.40
11.33
15.80
18.62
19.79
19.43
17.73
14.95
11.42
7.58
4.03
1.35
0.02
0.17
1.57
3.69
5.85
7.49
8.31
8.30
7.64
6.59
5.30
3.79
1.97
-0.22
-2.73
-5.36
-7.85
-10.00
-11.75
-13.21
-14.65
-16.32
-18.33
-20.64
-23.01
-25.15
-26.77
-27.62
-27.49
-26.16
-23.45
-19.29
-13.81
-7.37
-0.57
5.90
11.38
15.42
17.81
18.58
17.92
16.09
13.41
10.27
7.14
4.55
2.89
2.34
2.79
3.90
5.21
6.38
7.18
7.55
7.53
7.08
6.18
4.80
2.99
0.94
-1.10
-2.93
-4.51
-5.98
-7.60
-9.63
-12.21
-15.27
-18.55
-21.65
-24.08
-25.35
-25.04
-22.87
-18.80
-13.10
-6.33
0.76
7.36
12.84
16.81
19.14
19.89
19.23
17.37
14.55
11.07
7.33
3.79
0.86
-1.15
-2.12
-2.12
-1.38
-0.21
1.03
2.07
2.69
2.79
2.34
1.39
-0.04
-1.88
-4.02
-6.34
-8.69
-10.99
-13.33
-15.90
-18.89
-22.32
-25.82
-28.68
-30.00
-28.98
-25.25
-18.96
-10.81
-1.81
6.96
14.58
20.48
24.41
26.45
26.85
25.98
24.19
21.78
19.02
16.12
13.30
10.84
8.98
7.96
7.84
8.51
9.71
11.05
12.12
12.65
12.54
11.84
10.66
9.10
7.16
4.78
1.91
-1.43
-5.10
-8.97
-12.89
-16.82
-20.69
-24.25
-27.06
-28.41
-27.58
-24.15
-18.25
-10.62
-2.38
5.30
11.59
16.09
18.82
20.06
20.06
18.98
16.90
13.95
10.38
6.65
3.25
0.59
-1.14
-2.00
-2.22
-2.01
-1.49
-0.74
0.12
0.83
0.98
0.24
-1.51
-4.03
-6.89
-9.60
-11.87
-13.73
-15.41
-17.27
-19.58
-22.53
-26.09
-30.00
-33.78
-36.71
-37.97
-36.89
-33.18
-27.04
-19.17
-10.53
-2.15
5.14
10.82
14.65
16.65
17.00
15.96
13.83
10.96
7.75
4.63
1.97
0.08
-0.92
-1.07
-0.53
0.48
1.69
2.90
3.88
4.45
4.47
3.86
2.60
0.81
-1.30
-3.48
-5.48
-7.15
-8.51
-9.71
-11.01
-12.66
-14.83
-17.54
-20.56
-23.48
-25.70
-26.52
-25.36
-21.84
-16.08
-8.63
-0.47
7.34
13.92
18.79
21.87
23.41
23.68
22.94
21.37
19.15
16.56
13.97
11.74
10.13
9.18
8.77
8.68
8.77
8.91
9.11
9.26
9.22
8.74
7.60
5.76
3.36
0.78
-1.62
-3.61
-5.21
-6.70
-8.37
-10.43
-12.77
-15.05
-16.88
-17.93
-18.10
-17.44
-16.06
-13.93
-10.90
-6.72
-1.16
5.89
14.44
24.37
35.43
47.09
58.53
68.61
76.19
80.33
80.67
77.52
71.70
64.27
56.24
48.32
40.91
34.14
27.95
22.26
16.97
12.07
7.59
3.56
-0.05
-3.39
-6.72
-10.25
-14.02
-17.84
-21.35
-24.23
-26.42
-28.21
-30.10
-32.56
-35.78
-39.45
-42.90
-45.26
-45.85
-44.38
-40.96
-35.96
-29.80
-22.82
-15.28
-7.51
0.06
6.78
12.05
15.48
17.05
17.09
16.08
14.49
12.62
10.57
8.40
6.21
4.21
2.62
1.62
1.25
1.42
1.90
2.41
2.67
2.42
1.48
-0.23
-2.60
-5.37
-8.14
-10.53
-12.29
-13.43
-14.20
-14.98
-16.10
-17.70
-19.74
-21.97
-24.03
-25.51
-25.96
-24.97
-22.23
-17.74
-11.82
-5.13
1.57
7.58
12.50
16.20
18.73
20.16
20.49
19.72
17.98
15.57
12.97
10.68
9.08
8.36
8.53
9.45
10.93
12.73
14.62
16.34
17.66
18.40
18.44
17.74
16.28
14.14
11.45
8.46
5.42
2.54
-0.14
-2.73
-5.49
-8.66
-12.33
-16.37
-20.39
-23.80
-26.00
-26.45
-24.92
-21.52
-16.74
-11.27
-5.88
-1.21
2.29
4.45
5.30
5.01
3.82
1.98
-0.26
-2.67
-5.01
-7.03
-8.51
-9.30
-9.34
-8.72
-7.61
-6.22
-4.76
-3.40
-2.30
-1.57
-1.32
-1.61
-2.40
-3.61
-5.08
-6.66
-8.29
-9.93
-11.60
-13.30
-15.01
-16.57
-17.75
-18.16
-17.42
-15.22
-11.48
-6.48
-0.78
4.88
9.87
13.76
16.45
18.04
18.74
18.66
17.83
16.30
14.17
11.68
9.21
7.13
5.69
4.94
4.77
4.93
5.17
5.22
4.89
4.03
2.61
0.69
-1.56
-3.96
-6.39
-8.80
-11.27
-13.93
-16.86
-20.02
-23.22
-26.10
-28.24
-29.16
-28.53
-26.23
-22.43
-17.56
-12.20
-6.90
-2.04
2.15
5.64
8.39
10.30
11.23
11.05
9.81
7.73
5.24
2.81
0.90
-0.22
-0.49
0.02
1.11
2.48
3.81
4.81
5.26
5.08
4.35
3.25
2.03
0.78
-0.50
-1.95
-3.71
-5.91
-8.53
-11.47
-14.48
-17.25
-19.34
-20.27
-19.55
-16.90
-12.32
-6.21
0.74
7.64
13.76
18.60
21.98
23.95
24.70
24.40
23.23
21.37
19.04
16.53
14.15
12.21
10.87
10.20
10.09
10.30
10.52
10.44
9.81
8.51
6.54
4.05
1.22
-1.79
-4.85
-7.87
-10.72
-13.27
-15.39
-17.09
-18.47
-19.73
-20.98
-22.13
-22.75
-22.22
-19.99
-15.81
-9.96
-3.15
3.67
9.68
14.31
17.41
19.05
19.38
18.53
16.63
13.88
10.64
7.37
4.52
2.43
1.23
0.85
1.14
1.92
3.04
4.31
5.45
6.11
5.94
4.79
2.77
0.24
-2.33
-4.59
-6.41
-7.87
-9.17
-10.50
-11.99
-13.72
-15.72
-17.98
-20.26
-22.07
-22.75
-21.65
-18.42
-13.26
-6.82
-0.06
6.13
11.14
14.70
16.89
17.85
17.76
16.74
14.91
12.43
9.53
6.53
3.80
1.66
0.27
-0.37
-0.39
-0.00
0.60
1.26
1.91
2.40
2.59
2.27
1.37
-0.08
-1.83
-3.59
-5.10
-6.28
-7.28
-8.37
-9.87
-11.94
-14.48
-17.07
-19.05
-19.76
-18.65
-15.54
-10.66
-4.62
1.78
7.76
12.70
16.29
18.45
19.22
18.71
17.04
14.42
11.18
7.78
4.77
2.59
1.50
1.49
2.31
3.57
4.87
5.87
6.37
6.31
5.73
4.71
3.32
1.64
-0.27
-2.34
-4.47
-6.53
-8.47
-10.31
-12.17
-14.25
-16.67
-19.40
-22.16
-24.44
-25.58
-25.06
-22.61
-18.36
-12.81
-6.62
-0.49
5.07
9.74
13.38
15.95
17.37
17.61
16.72
14.91
12.58
10.25
8.44
7.51
7.58
8.48
9.88
11.39
12.73
13.78
14.53
14.97
15.02
14.53
13.30
11.27
8.55
5.41
2.23
-0.67
-3.06
-4.93
-6.46
-8.05
-10.16
-13.20
-17.25
-21.96
-26.43
-29.47
-29.95
-27.26
-21.57
-13.84
-5.47
2.19
8.19
12.21
14.40
15.10
14.52
12.74
9.71
5.60
0.86
-3.77
-7.39
-9.38
-9.53
-8.17
-6.02
-3.90
-2.53
-2.27
-3.18
-5.13
-7.96
-11.44
-15.33
-19.30
-23.08
-26.68
-30.44
-35.01
-40.78
-47.40
-53.49
-56.95
-55.81
-49.14
-37.53
-22.89
-7.56
6.61
18.88
29.48
39.05
47.96
55.98
62.46
66.74
68.63
68.54
67.34
65.93
64.92
64.45
64.29
64.10
63.61
62.82
61.91
61.20
60.97
61.43
62.59
64.20
65.76
66.46
65.45
61.97
55.66
46.53
35.09
22.44
10.31
0.83
-3.96
-2.85
3.98
14.73
26.54
36.38
41.96
42.27
37.53
28.75
17.25
4.36
-8.63
-20.37
-29.55
-35.06
-36.34
-33.65
-28.07
-21.36
-15.64
-12.86
-14.13
-19.47
-27.68
-36.79
-44.63
-49.54
-50.69
-48.08
-42.40
-34.68
-26.29
-18.77
-13.81
-13.07
-17.76
-28.22
-43.62
-61.94
-80.21
-95.15
-103.99
-105.21
-99.07
-87.59
-74.11
-62.33
-55.31
-54.64
-60.05
-69.50
-79.68
-86.86
-87.85
-80.77
-65.67
-44.58
-20.99
1.04
18.00
27.82
30.28
26.80
19.83
12.04
5.72
2.33
2.43
5.75
11.41
18.27
25.15
31.10
35.49
37.99
38.55
37.24
34.21
29.58
23.46
15.94
7.25
-2.25
-11.92
-21.05
-28.87
-34.77
-38.34
-39.37
-37.80
-33.68
-27.22
-18.85
-9.17
1.21
11.89
22.93
34.89
48.50
64.29
82.20
101.52
120.92
138.90
154.03
165.19
171.56
172.71
168.59
159.66
146.90
131.56
114.72
96.90
77.79
56.63
32.85
6.73
-20.38
-46.36
-69.23
-87.85
-102.27
-113.33
-121.90
-128.10
-131.14
-129.78
-123.01
-110.68
-93.65
-73.35
-51.37
-29.02
-7.35
12.63
29.71
42.40
49.07
48.58
41.00
28.06
13.10
0.19
-7.08
-7.09
-0.51
10.01
21.08
30.09
36.08
39.60
41.83
43.46
44.23
43.38
40.51
36.26
32.19
29.85
29.76
30.95
31.42
29.19
23.43
14.70
4.54
-5.55
-14.81
-23.21
-31.06
-38.29
-44.41
-48.83
-51.46
-52.98
-54.20
-55.68
-57.02
-57.03
-54.47
-48.88
-41.07
-32.86
-26.29
-22.61
-21.75
-22.17
-21.65
-18.21
-11.00
-0.66
10.90
21.48
29.47
34.47
37.23
38.92
40.38
41.47
41.20
38.25
31.82
22.27
11.06
0.19
-8.57
-14.32
-17.22
-18.20
-18.75
-20.18
-23.12
-27.59
-32.97
-38.45
-43.19
-46.52
-48.05
-48.31
-48.05
-48.07
-49.11
-51.78
-56.49
-63.24
-71.28
-79.18
-86.19
-91.40
-94.20
-94.66
-93.76
-93.22
-94.26
-96.72
-98.67
-99.07
-97.04
-92.85
-88.23
-86.07
-89.66
-100.47
-117.06
-135.07
-151.07
-161.60
-164.41
-159.18
-147.71
-134.58
-124.59
-121.08
-111.13
-87.05
-47.72
0.41
48.21
89.13
118.80
136.15
142.36
140.50
132.27
120.70
109.44
103.34
107.15
121.31
143.45
169.00
193.58
212.51
224.22
230.20
227.69
224.14
220.60
216.33
207.16
192.38
172.73
150.94
130.16
112.26
97.48
82.22
63.00
38.40
10.59
-16.60
-38.85
-53.36
-60.02
-60.58
-59.11
-58.74
-60.77
-64.24
-67.74
-70.29
-71.99
-73.89
-76.88
-81.94
-88.74
-95.66
-100.56
-101.92
-99.56
-94.53
-88.62
-83.45
-80.27
-79.28
-79.41
-79.14
-77.48
-74.30
-70.21
-66.00
-62.33
-59.27
-56.52
-52.99
-47.93
-41.59
-35.12
-29.72
-25.74
-22.97
-20.11
-16.05
-9.04
1.77
15.97
32.10
48.63
64.83
80.20
95.43
111.29
130.02
153.30
181.12
211.38
241.01
267.67
289.82
308.60
314.61
301.75
270.22
226.87
179.62
133.28
93.98
58.66
25.60
-5.61
-33.09
-55.32
-70.85
-79.72
-83.50
-84.53
-85.98
-89.44
-95.53
-102.44
-107.81
-110.04
-109.29
-106.84
-104.01
-102.03
-100.60
-99.17
-96.63
-92.56
-87.42
-82.46
-78.65
-75.97
-73.72
-70.41
-65.03
-57.25
-47.73
-37.88
-29.42
-23.61
-20.82
-20.76
-22.47
-25.01
-27.70
-30.25
-32.74
-35.38
-38.32
-41.38
-44.23
-46.33
-47.15
-46.28
-43.37
-38.20
-30.79
-21.53
-11.18
-0.83
8.42
15.77
20.94
24.14
25.93
26.85
27.26
27.27
26.89
26.20
25.45
25.04
25.22
25.94
26.74
26.89
25.75
23.07
19.14
14.58
10.03
5.75
1.58
-2.87
-7.97
-13.69
-19.63
-25.17
-29.68
-32.68
-33.75
-32.52
-28.66
-22.07
-13.06
-2.49
8.35
18.07
25.57
30.34
32.42
32.27
30.51
27.69
24.26
20.57
17.01
14.00
11.90
10.90
10.92
11.58
12.33
12.67
12.29
11.17
9.50
7.56
5.57
3.61
1.54
-0.80
-3.59
-6.88
-10.60
-14.48
-18.19
-21.25
-23.15
-23.35
-21.39
-17.01
-10.30
-1.76
7.73
17.09
25.27
31.54
35.54
37.33
37.18
35.45
32.54
28.88
24.91
21.13
17.96
15.62
14.08
13.06
12.19
11.15
9.79
8.12
6.19
4.03
1.64
-0.99
-3.80
-6.64
-9.35
-11.85
-14.24
-16.78
-19.75
-23.30
-27.31
-31.31
-34.61
-36.33
-35.67
-32.13
-25.69
-16.92
-6.82
3.37
12.56
19.94
25.16
28.18
29.16
28.35
26.11
22.86
19.15
15.61
12.75
10.89
10.04
9.95
10.22
10.51
10.60
10.48
10.28
10.10
9.96
9.71
9.13
8.03
6.31
4.06
1.48
-1.26
-4.04
-6.87
-9.82
-13.05
-16.60
-20.38
-24.02
-26.90
-28.23
-27.31
-23.74
-17.64
-9.70
-0.96
7.49
14.78
20.45
24.43
26.84
27.88
27.72
26.46
24.26
21.42
18.34
15.49
13.25
11.76
11.00
10.78
10.90
11.24
11.73
12.29
12.79
13.04
12.78
11.87
10.27
8.10
5.57
2.90
0.27
-2.23
-4.59
-6.90
-9.33
-12.10
-15.37
-19.12
-23.03
-26.44
-28.53
-28.50
-25.94
-20.86
-13.83
-5.67
2.70
10.55
17.44
23.12
27.47
30.36
31.68
31.46
29.90
27.47
24.70
22.16
20.18
18.93
18.33
18.25
18.54
19.09
19.85
20.80
21.95
23.20
24.39
25.24
25.46
24.85
23.35
21.08
18.32
15.42
12.74
10.59
9.08
8.14
7.42
6.42
4.65
1.89
-1.66
-5.32
-8.19
-9.36
-8.29
-4.87
0.61
7.58
15.43
23.50
31.16
37.75
42.57
45.11
45.24
43.39
40.46
37.53
35.32
33.88
32.44
29.76
24.76
17.13
7.49
-2.84
-12.48
-20.62
-27.29
-33.31
-39.85
-47.85
-57.77
-69.46
-82.42
-96.05
-109.82
-123.32
-136.29
-148.59
-160.16
-171.07
-181.38
-191.01
-199.66
-206.71
-211.27
-212.33
-208.93
-200.33
-185.97
-165.51
-138.81
-106.03
-67.88
-25.93
17.07
57.26
90.13
111.74
120.14
116.53
105.57
94.27
90.04
98.39
121.23
156.48
198.92
241.95
279.37
306.54
321.01
322.45
312.15
292.37
265.98
236.19
206.41
179.84
158.61
142.73
129.52
114.20
91.74
59.03
16.35
-32.80
-83.05
-129.26
-167.71
-196.14
-213.09
-217.24
-207.58
-184.52
-150.86
-111.85
-73.96
-43.13
-23.26
-15.66
-19.36
-31.91
-50.22
-70.80
-90.16
-105.20
-113.91
-115.83
-112.10
-104.81
-96.09
-87.24
-78.69
-70.48
-62.96
-56.91
-53.21
-52.23
-53.36
-55.39
-57.24
-58.66
-60.50
-64.40
-72.15
-84.99
-103.03
-124.99
-148.05
-168.25
-181.34
-184.21
-176.00
-158.50
-135.34
-110.37
-86.20
-63.61
-42.19
-21.45
-1.70
16.15
31.45
44.60
56.93
69.91
84.04
98.43
111.41
121.54
128.87
135.14
143.02
154.81
171.31
191.24
211.59
228.62
239.09
241.26
235.26
222.74
206.02
187.23
167.69
147.92
128.15
108.81
90.65
74.36
60.06
47.20
35.18
24.23
15.99
13.14
17.94
30.35
46.93
61.32
66.47
57.56
34.26
1.05
-34.77
-66.19
-89.15
-103.35
-111.18
-115.49
-117.85
-118.18
-115.56
-109.62
-101.30
-92.42
-84.60
-78.26
-72.43
-65.57
-56.69
-46.03
-35.06
-25.92
-20.36
-19.15
-21.88
-27.19
-33.29
-38.58
-42.05
-43.40
-42.94
-41.26
-38.79
-35.61
-31.33
-25.37
-17.44
-7.77
2.74
12.79
21.08
26.75
29.65
30.29
29.64
28.74
28.26
28.37
28.72
28.68
27.74
25.77
23.07
20.31
18.10
16.86
16.57
17.03
18.06
19.89
23.08
28.35
36.07
45.80
56.14
65.13
70.98
72.87
71.32
67.95
64.73
63.11
63.50
65.16
66.70
66.65
63.84
57.58
47.61
33.98
17.12
-2.08
-22.25
-41.80
-59.31
-74.02
-85.97
-95.73
-104.02
-111.11
-116.68
-119.90
-119.73
-115.23
-105.67
-90.51
-69.52
-43.01
-12.13
20.96
53.27
81.46
102.50
114.35
116.42
109.80
97.06
81.74
67.17
55.56
47.14
40.15
31.49
18.15
-1.17
-25.42
-51.34
-74.78
-92.13
-101.44
-102.81
-98.42
-91.87
-87.37
-88.86
-99.04
-118.33
-144.09
-170.75
-191.23
-199.64
-193.55
-174.80
-148.36
-119.88
-93.34
-69.86
-48.26
-26.50
-3.69
19.14
39.70
55.70
65.66
69.07
66.35
57.89
45.73
32.86
21.39
11.73
3.28
-4.50
-11.72
-18.12
-23.75
-28.93
-35.08
-44.18
-58.22
-76.68
-97.31
-116.77
-131.80
-140.32
-141.47
-135.78
-124.61
-109.36
-90.98
-70.37
-48.43
-25.76
-5.31
11.09
23.03
31.49
38.41
45.91
55.45
67.36
80.80
93.93
104.72
111.31
112.90
110.21
105.22
100.19
96.53
94.09
91.28
86.47
78.76
68.61
57.81
48.90
44.43
46.32
55.41
71.25
92.23
115.62
137.97
155.98
167.27
171.05
168.13
160.41
150.15
139.42
129.66
121.56
115.15
109.99
105.34
100.30
94.03
85.78
75.16
62.24
47.70
32.79
19.02
7.79
-0.03
-4.47
-6.34
-6.96
-7.61
-9.08
-11.46
-14.38
-17.35
-20.12
-22.87
-26.07
-30.18
-35.36
-41.37
-47.61
-53.40
-58.13
-61.50
-63.51
-64.45
-64.63
-64.17
-62.95
-60.59
-56.77
-51.42
-45.03
-38.61
-33.39
-30.45
-30.29
-32.59
-36.26
-39.79
-41.69
-41.04
-37.70
-32.35
-26.27
-20.84
-17.06
-15.17
-14.63
-14.28
-12.99
-10.15
-6.06
-1.86
1.03
1.56
-0.22
-3.16
-5.44
-5.49
-2.73
2.10
7.32
11.13
12.43
11.17
8.18
4.65
1.51
-0.84
-2.39
-3.35
-3.74
-3.40
-2.18
-0.18
2.10
3.88
4.42
3.47
1.46
-0.52
-1.14
0.60
4.91
11.14
18.05
24.19
28.47
30.32
29.79
27.42
24.09
20.84
18.74
18.61
20.80
25.06
30.49
35.79
39.55
40.57
38.12
32.02
22.71
11.27
-0.76
-11.66
-19.92
-24.57
-25.40
-23.04
-18.75
-14.16
-10.90
-10.10
-11.99
-15.77
-19.79
-22.29
-22.07
-18.96
-13.75
-7.71
-1.96
2.78
6.25
8.28
8.74
7.52
4.86
1.45
-1.69
-3.62
-3.92
-2.85
-1.18
0.21
0.73
0.30
-0.75
-1.90
-2.68
-2.85
-2.37
-1.32
0.30
2.61
5.66
9.29
12.93
15.75
16.94
16.05
13.20
9.10
4.84
1.62
0.51
2.15
6.49
12.57
18.64
22.45
21.92
15.78
4.04
-12.06
-30.25
-47.75
-61.74
-69.84
-70.70
-64.44
-52.81
-38.79
-25.69
-16.06
-10.93
-9.79
-11.24
-13.94
-17.31
-21.60
-27.56
-35.72
-45.94
-57.23
-68.03
-76.70
-81.94
-83.07
-79.99
-73.11
-63.04
-50.55
-36.57
-22.17
-8.58
3.06
11.97
17.99
21.59
23.62
24.92
25.95
26.78
27.15
26.64
24.87
21.45
16.30
9.73
2.67
-3.50
-7.51
-8.86
-8.21
-7.12
-7.13
-8.88
-11.64
-13.80
-14.01
-12.09
-9.29
-7.49
-8.05
-10.97
-15.02
-18.59
-20.69
-21.43
-21.67
-22.23
-23.36
-24.55
-25.10
-24.54
-22.96
-20.89
-18.82
-16.92
-14.90
-12.23
-8.54
-3.81
1.55
6.99
11.98
16.20
19.56
22.06
23.67
24.28
23.81
22.37
20.29
18.06
15.92
13.67
10.65
6.00
-0.88
-9.96
-20.65
-32.03
-43.14
-53.17
-61.49
-67.56
-71.11
-72.24
-71.53
-69.99
-68.82
-69.11
-71.55
-76.12
-81.84
-86.77
-88.22
-83.68
-71.76
-53.09
-30.42
-7.77
11.19
24.66
33.48
40.46
48.88
60.87
76.62
94.63
112.65
128.74
141.67
150.80
155.70
155.91
151.13
141.73
129.04
115.22
102.68
93.18
87.22
84.02
82.08
79.87
76.55
72.07
67.00
62.23
58.68
57.11
58.15
62.13
68.81
77.10
84.97
89.82
89.10
81.27
66.37
46.15
23.53
1.69
-16.78
-30.50
-39.41
-44.59
-47.75
-50.65
-54.45
-59.26
-64.03
-66.71
-65.10
-57.88
-45.52
-30.71
-17.76
-11.24
-14.24
-27.17
-47.57
-70.98
-92.34
-107.32
-113.22
-109.29
-96.57
-77.53
-55.56
-34.39
-17.25
-6.31
-2.17
-3.96
-9.80
-17.37
-24.58
-29.90
-32.58
-32.60
-30.45
-26.79
-22.11
-16.52
-9.90
-2.25
6.12
14.52
22.16
28.48
33.33
36.88
39.42
41.10
41.95
42.09
41.80
41.55
41.75
42.50
43.44
43.91
43.28
41.11
37.41
32.50
26.87
20.97
15.23
10.03
5.77
2.85
1.49
1.56
2.51
3.53
3.77
2.73
0.57
-2.14
-4.69
-6.82
-8.95
-12.05
-17.10
-24.36
-33.17
-42.13
-49.82
-55.34
-58.66
-60.30
-60.77
-60.22
-58.39
-55.04
-50.27
-44.40
-37.61
-29.60
-19.62
-7.05
7.87
23.78
38.55
50.10
57.21
59.91
59.18
56.40
52.80
49.16
45.87
43.07
40.74
38.73
36.74
34.46
31.71
28.62
25.48
22.52
19.69
16.62
12.79
7.72
1.28
-6.17
-13.87
-20.76
-25.73
-27.87
-26.70
-22.28
-15.38
-7.40
-0.15
4.61
5.75
3.20
-2.02
-8.14
-13.34
-16.36
-16.80
-15.04
-11.93
-8.33
-4.95
-2.29
-0.68
-0.36
-1.43
-3.79
-7.18
-11.22
-15.57
-19.97
-24.20
-28.03
-31.11
-33.09
-33.73
-33.10
-31.68
-30.19
-29.37
-29.73
-31.41
-34.24
-37.87
-41.99
-46.32
-50.71
-55.03
-59.29
-63.68
-68.53
-74.14
-80.42
-86.55
-90.91
-91.46
-86.39
-74.91
-57.68
-36.72
-14.85
5.08
20.98
31.89
38.07
40.76
41.69
42.57
44.60
48.09
52.48
56.64
59.35
59.84
58.07
54.58
50.19
45.56
41.08
37.14
34.41
34.05
37.28
44.67
55.23
66.23
73.73
74.10
65.45
48.66
27.10
5.35
-12.45
-23.78
-27.95
-25.51
-17.47
-4.95
10.65
27.31
42.37
53.24
58.31
57.73
53.32
47.75
43.24
40.80
40.14
40.20
40.04
39.12
37.13
33.50
27.02
15.99
-0.99
-24.08
-51.58
-80.01
-105.04
-122.82
-131.14
-129.98
-121.34
-108.41
-94.64
-82.72
-73.99
-68.19
-63.92
-59.39
-53.43
-46.05
-38.40
-31.97
-27.80
-25.89
-25.34
-24.98
-23.99
-21.95
-18.69
-13.73
-6.39
3.86
16.68
30.55
43.05
51.84
55.48
53.97
48.60
41.36
34.28
28.91
26.14
26.16
28.61
32.74
37.62
42.35
46.30
49.24
51.25
52.68
53.82
54.68
54.92
53.94
51.15
46.25
39.39
31.13
22.29
13.69
5.96
-0.56
-5.82
-10.17
-14.12
-18.32
-23.13
-28.49
-33.76
-37.97
-40.24
-40.13
-37.85
-34.03
-29.44
-24.67
-20.01
-15.54
-11.34
-7.60
-4.54
-2.29
-0.79
0.19
0.95
1.66
2.31
2.77
2.90
2.66
2.21
1.80
1.67
1.88
2.29
2.63
2.66
2.29
1.68
1.10
0.80
0.80
0.88
0.62
-0.39
-2.44
-5.59
-9.65
-14.25
-18.92
-23.10
-26.21
-27.70
-27.18
-24.49
-19.81
-13.68
-6.94
-0.58
4.52
7.81
9.19
8.92
7.48
5.28
2.55
-0.68
-4.45
-8.71
-13.17
-17.31
-20.38
-21.51
-19.86
-14.88
-6.56
4.44
16.69
28.36
37.60
43.09
44.35
41.76
36.31
29.19
21.48
14.03
7.35
1.70
-2.99
-6.97
-10.73
-14.63
-18.76
-22.71
-25.66
-26.60
-24.79
-20.10
-13.08
-4.81
3.43
10.60
16.05
19.59
21.39
21.76
21.06
19.60
17.73
15.80
14.28
13.66
14.34
16.57
20.29
25.20
30.72
36.18
40.85
44.07
45.34
44.37
41.16
36.01
29.50
22.40
15.53
9.59
4.97
1.68
-0.73
-2.94
-5.70
-9.46
-14.14
-19.17
-23.64
-26.60
-27.33
-25.51
-21.27
-15.04
-7.48
0.58
8.34
15.02
20.04
23.04
23.96
23.01
20.55
17.00
12.78
8.28
3.85
-0.15
-3.36
-5.44
-6.22
-5.77
-4.47
-2.96
-1.90
-1.82
-2.86
-4.85
-7.40
-10.07
-12.56
-14.74
-16.61
-18.19
-19.49
-20.45
-21.00
-21.17
-21.14
-21.26
-21.99
-23.76
-26.78
-30.89
-35.45
-39.53
-42.02
-42.02
-39.06
-33.20
-24.99
-15.30
-5.09
4.73
13.46
20.61
25.89
29.20
30.59
30.26
28.51
25.71
22.30
18.76
15.56
13.18
11.97
12.03
13.22
15.10
17.07
18.58
19.27
19.07
18.08
16.54
14.59
12.33
9.72
6.76
3.50
0.04
-3.47
-6.90
-10.13
-13.06
-15.66
-17.93
-19.97
-21.89
-23.88
-26.01
-28.26
-30.36
-31.87
-32.24
-30.99
-27.90
-23.06
-16.92
-10.12
-3.37
2.80
8.05
12.24
15.31
17.20
17.88
17.43
16.16
14.57
13.32
12.98
13.93
16.27
19.73
23.81
27.89
31.42
34.03
35.64
36.37
36.48
36.14
35.36
33.97
31.79
28.79
25.15
21.28
17.57
14.23
11.19
8.15
4.73
0.65
-4.17
-9.56
-15.16
-20.50
-25.08
-28.41
-30.15
-30.10
-28.29
-24.96
-20.54
-15.51
-10.40
-5.64
-1.60
1.47
3.42
4.24
4.05
3.03
1.47
-0.32
-2.05
-3.49
-4.45
-4.80
-4.49
-3.50
-1.86
0.32
2.86
5.44
7.62
8.98
9.14
7.98
5.72
2.82
-0.16
-2.80
-4.94
-6.64
-8.04
-9.24
-10.20
-10.94
-11.65
-12.74
-14.66
-17.64
-21.42
-25.19
-27.84
-28.37
-26.29
-21.79
-15.59
-8.66
-1.88
4.25
9.51
13.88
17.26
19.46
20.15
19.14
16.57
12.92
9.03
5.75
3.69
3.04
3.55
4.73
6.07
7.27
8.22
8.99
9.62
10.12
10.36
10.24
9.68
8.73
7.46
6.02
4.49
2.94
1.36
-0.28
-2.02
-3.88
-5.85
-7.94
-10.16
-12.55
-15.04
-17.40
-19.18
-19.79
-18.70
-15.70
-11.00
-5.24
0.75
6.17
10.52
13.57
15.32
15.82
15.08
13.16
10.20
6.57
2.80
-0.51
-2.95
-4.36
-4.87
-4.82
-4.56
-4.36
-4.33
-4.43
-4.65
-4.96
-5.42
-6.11
-7.12
-8.48
-10.18
-12.14
-14.29
-16.57
-18.97
-21.52
-24.20
-26.85
-29.13
-30.59
-30.77
-29.34
-26.25
-21.69
-16.05
-9.80
-3.37
2.86
8.47
13.02
16.12
17.51
17.27
15.72
13.40
10.86
8.49
6.46
4.84
3.67
2.99
2.88
3.32
4.10
4.79
4.91
4.18
2.63
0.60
-1.44
-3.17
-4.56
-5.93
-7.70
-10.19
-13.40
-17.01
-20.54
-23.46
-25.32
-25.81
-24.66
-21.72
-17.00
-10.78
-3.66
3.55
10.06
15.23
18.79
20.79
21.47
21.09
19.80
17.69
14.88
11.66
8.47
5.83
4.17
3.62
3.98
4.83
5.70
6.19
6.09
5.34
3.97
2.05
-0.30
-2.93
-5.62
-8.22
-10.70
-13.20
-15.96
-19.17
-22.79
-26.42
-29.35
-30.78
-30.11
-27.11
-22.06
-15.64
-8.66
-1.90
4.05
8.86
12.38
14.62
15.59
15.37
14.12
12.08
9.65
7.33
5.60
4.79
5.00
6.08
7.68
9.31
10.57
11.14
10.91
9.87
8.14
5.88
3.28
0.59
-1.95
-4.15
-5.94
-7.38
-8.67
-10.13
-12.07
-14.63
-17.66
-20.66
-22.86
-23.46
-21.84
-17.85
-11.84
-4.56
3.03
10.07
15.97
20.46
23.49
25.15
25.57
24.89
23.34
21.20
18.84
16.63
14.88
13.80
13.45
13.78
14.64
15.75
16.77
17.34
17.17
16.13
14.31
11.96
9.45
7.07
4.93
2.91
0.70
-1.97
-5.19
-8.75
-12.24
-15.19
-17.45
-19.22
-21.08
-23.60
-27.08
-31.31
-35.55
-38.81
-40.12
-38.69
-34.05
-26.08
-15.10
-1.95
11.95
24.86
35.05
41.30
43.26
41.46
37.05
31.41
25.74
20.88
17.30
15.20
14.54
15.12
16.53
18.22
19.64
20.30
19.95
18.61
16.50
14.00
11.47
9.19
7.29
5.73
4.40
3.11
1.76
0.32
-1.12
-2.44
-3.55
-4.46
-5.29
-6.22
-7.45
-9.11
-11.30
-13.99
-17.10
-20.44
-23.69
-26.44
-28.22
-28.56
-27.14
-23.81
-18.71
-12.28
-5.14
1.91
8.03
12.55
15.02
15.38
13.98
11.48
8.60
6.03
4.23
3.41
3.54
4.49
6.03
7.82
9.52
10.76
11.22
10.82
9.63
7.94
6.14
4.52
3.23
2.17
1.11
-0.19
-1.83
-3.70
-5.53
-6.98
-7.87
-8.26
-8.44
-8.77
-9.51
-10.70
-12.25
-14.00
-15.89
-17.89
-19.88
-21.50
-22.16
-21.15
-18.03
-12.84
-6.20
0.86
7.31
12.42
15.96
18.02
18.88
18.73
17.67
15.84
13.51
11.18
9.38
8.48
8.52
9.21
10.06
10.66
10.83
10.62
10.19
9.65
9.01
8.15
6.95
5.38
3.53
1.54
-0.47
-2.40
-4.29
-6.15
-7.98
-9.71
-11.28
-12.61
-13.75
-14.80
-16.00
-17.61
-19.76
-22.40
-25.17
-27.50
-28.74
-28.33
-26.00
-21.84
-16.25
-9.86
-3.35
2.62
7.53
11.05
13.00
13.46
12.66
11.02
9.06
7.22
5.83
5.02
4.71
4.76
5.05
5.59
6.49
7.84
9.57
11.44
13.03
13.97
14.08
13.41
12.17
10.58
8.76
6.73
4.49
2.04
-0.49
-2.96
-5.17
-7.00
-8.37
-9.30
-10.01
-10.78
-11.96
-13.78
-16.28
-19.21
-22.15
-24.58
-26.02
-26.14
-24.73
-21.75
-17.34
-11.83
-5.75
0.30
5.75
10.18
13.39
15.29
15.90
15.27
13.57
11.09
8.31
5.79
4.09
3.56
4.28
6.01
8.33
10.72
12.76
14.17
14.82
14.75
14.08
12.98
11.66
10.29
8.99
7.77
6.55
5.15
3.43
1.37
-0.87
-3.01
-4.70
-5.76
-6.22
-6.36
-6.55
-7.18
-8.50
-10.57
-13.22
-16.06
-18.54
-20.07
-20.13
-18.44
-15.07
-10.38
-4.98
0.44
5.29
9.18
11.91
13.49
14.02
13.64
12.49
10.69
8.44
6.01
3.80
2.21
1.53
1.85
2.99
4.57
6.18
7.49
8.32
8.66
8.56
8.13
7.47
6.63
5.64
4.45
2.99
1.27
-0.63
-2.54
-4.25
-5.68
-6.84
-7.89
-9.02
-10.35
-11.93
-13.73
-15.66
-17.61
-19.39
-20.64
-20.91
-19.75
-16.90
-12.40
-6.68
-0.47
5.42
10.26
13.59
15.28
15.49
14.56
12.86
10.75
8.49
6.34
4.49
3.14
2.41
2.33
2.72
3.33
3.92
4.37
4.71
5.08
5.53
5.96
6.06
5.46
3.92
1.50
-1.44
-4.32
-6.65
-8.22
-9.19
-9.97
-11.00
-12.59
-14.76
-17.34
-20.01
-22.40
-24.22
-25.18
-24.99
-23.40
-20.24
-15.51
-9.57
-3.09
3.02
7.84
10.81
11.90
11.58
10.57
9.50
8.67
7.98
7.17
6.06
4.76
3.63
3.00
3.01
3.50
4.07
4.34
4.15
3.54
2.74
1.94
1.22
0.48
-0.42
-1.62
-3.11
-4.79
-6.51
-8.17
-9.80
-11.48
-13.31
-15.23
-16.91
-17.85
-17.47
-15.40
-11.58
-6.36
-0.38
5.59
10.91
15.10
17.94
19.41
19.60
18.73
17.09
14.94
12.53
10.07
7.73
5.71
4.19
3.38
3.36
4.04
5.09
6.11
6.68
6.56
5.71
4.27
2.46
0.54
-1.33
-3.09
-4.76
-6.48
-8.36
-10.53
-12.96
-15.58
-18.16
-20.43
-22.12
-22.88
-22.41
-20.49
-17.05
-12.30
-6.71
-0.96
4.33
8.68
11.94
14.16
15.46
15.93
15.58
14.41
12.50
10.05
7.41
4.98
3.11
2.04
1.84
2.41
3.48
4.71
5.80
6.48
6.64
6.22
5.25
3.78
1.91
-0.20
-2.29
-4.12
-5.55
-6.63
-7.60
-8.81
-10.62
-13.16
-16.26
-19.40
-21.88
-23.00
-22.26
-19.58
-15.27
-9.91
-4.18
1.30
6.07
9.85
12.55
14.19
14.82
14.58
13.64
12.22
10.63
9.20
8.27
8.07
8.57
9.57
10.70
11.63
12.17
12.33
12.25
11.98
11.47
10.56
9.10
7.10
4.76
2.40
0.34
-1.30
-2.59
-3.79
-5.22
-7.11
-9.50
-12.23
-14.93
-17.18
-18.50
-18.51
-16.99
-13.90
-9.46
-4.09
1.58
6.91
11.30
14.40
16.14
16.65
16.12
14.73
12.61
9.89
6.83
3.85
1.50
0.26
0.39
1.74
3.87
6.13
7.94
8.94
9.06
8.42
7.24
5.71
3.97
2.08
0.13
-1.81
-3.67
-5.36
-6.90
-8.33
-9.80
-11.43
-13.31
-15.45
-17.69
-19.77
-21.29
-21.84
-21.09
-18.90
-15.33
-10.70
-5.44
-0.03
5.04
9.34
12.49
14.18
14.24
12.74
10.08
6.88
3.83
1.49
0.12
-0.31
-0.01
0.77
1.84
3.05
4.27
5.33
6.04
6.25
5.90
5.03
3.79
2.34
0.83
-0.67
-2.12
-3.56
-4.99
-6.43
-7.89
-9.38
-11.01
-12.90
-15.10
-17.48
-19.61
-20.89
-20.67
-18.61
-14.71
-9.45
-3.54
2.28
7.40
11.47
14.28
15.71
15.76
14.59
12.55
10.20
8.14
6.80
6.35
6.59
7.19
7.79
8.21
8.46
8.62
8.75
8.77
8.45
7.60
6.17
4.30
2.25
0.34
-1.27
-2.59
-3.83
-5.28
-7.13
-9.42
-11.92
-14.28
-16.10
-17.08
-17.08
-16.07
-14.07
-11.10
-7.21
-2.56
2.53
7.52
11.83
15.01
16.84
17.41
16.95
15.71
13.95
11.87
9.73
7.86
6.55
5.92
5.87
6.09
6.21
5.96
5.25
4.16
2.83
1.33
-0.36
-2.33
-4.62
-7.12
-9.65
-11.96
-13.90
-15.43
-16.73
-18.07
-19.71
-21.76
-24.08
-26.25
-27.68
-27.79
-26.18
-22.78
-17.86
-11.92
-5.57
0.59
6.10
10.59
13.84
15.71
16.18
15.39
13.65
11.43
9.23
7.54
6.66
6.68
7.45
8.73
10.19
11.55
12.61
13.23
13.35
13.01
12.28
11.33
10.27
9.18
8.01
6.62
4.88
2.79
0.48
-1.80
-3.84
-5.61
-7.33
-9.33
-11.84
-14.80
-17.76
-20.03
-20.88
-19.84
-16.83
-12.21
-6.62
-0.79
4.67
9.33
13.00
15.61
17.18
17.70
17.19
15.72
13.47
10.82
8.25
6.24
5.20
5.25
6.24
7.80
9.48
10.90
11.82
12.19
12.10
11.64
10.92
9.95
8.74
7.32
5.76
4.16
2.64
1.30
0.20
-0.71
-1.51
-2.38
-3.44
-4.86
-6.70
-8.98
-11.61
-14.44
-17.15
-19.34
-20.54
-20.31
-18.38
-14.79
-9.91
-4.37
1.12
5.94
9.71
12.26
13.63
13.89
13.15
11.57
9.38
6.96
4.82
3.42
3.16
4.17
6.24
8.92
11.61
13.82
15.21
15.71
15.39
14.41
12.91
11.01
8.86
6.62
4.39
2.22
0.13
-1.84
-3.58
-4.90
-5.62
-5.77
-5.69
-5.90
-6.91
-8.89
-11.62
-14.48
-16.78
-17.98
-17.83
-16.41
-13.89
-10.49
-6.44
-1.99
2.46
6.41
9.30
10.72
10.59
9.17
7.00
4.67
2.58
0.93
-0.35
-1.37
-2.13
-2.50
-2.27
-1.35
0.14
1.91
3.55
4.70
5.22
5.14
4.60
3.70
2.51
0.99
-0.85
-2.96
-5.14
-7.15
-8.78
-9.92
-10.70
-11.32
-12.06
-13.11
-14.57
-16.40
-18.43
-20.38
-21.83
-22.26
-21.17
-18.25
-13.56
-7.57
-1.08
5.05
10.10
13.71
15.81
16.55
16.15
14.82
12.78
10.35
7.97
6.13
5.21
5.32
6.28
7.65
8.93
9.77
10.06
9.90
9.49
9.00
8.47
7.76
6.70
5.13
3.03
0.58
-1.95
-4.25
-6.12
-7.55
-8.68
-9.76
-11.01
-12.61
-14.58
-16.83
-19.05
-20.77
-21.38
-20.33
-17.28
-12.30
-5.95
0.93
7.43
12.84
16.84
19.40
20.71
20.95
20.20
18.50
15.96
12.85
9.64
6.92
5.15
4.55
4.99
6.10
7.43
8.61
9.47
9.97
10.10
9.85
9.14
7.89
6.07
3.76
1.11
-1.65
-4.26
-6.47
-8.15
-9.27
-10.01
-10.66
-11.58
-13.01
-14.98
-17.23
-19.33
-20.75
-21.03
-19.88
-17.22
-13.20
-8.17
-2.61
2.93
7.93
12.00
14.87
16.46
16.83
16.18
14.75
12.79
10.54
8.25
6.14
4.45
3.34
2.87
2.95
3.44
4.12
4.79
5.29
5.53
5.39
4.81
3.75
2.23
0.40
-1.57
-3.48
-5.15
-6.49
-7.47
-8.16
-8.75
-9.49
-10.66
-12.45
-14.85
-17.57
-20.13
-21.89
-22.36
-21.26
-18.64
-14.80
-10.23
-5.50
-1.10
2.55
5.25
6.97
7.86
8.19
8.17
7.91
7.45
6.81
6.03
5.29
4.85
4.89
5.44
6.36
7.41
8.37
9.13
9.76
10.39
11.10
11.77
12.19
12.03
11.10
9.45
7.33
5.14
3.16
1.48
-0.13
-1.99
-4.32
-7.13
-10.16
-13.03
-15.43
-17.21
-18.36
-18.86
-18.59
-17.28
-14.68
-10.76
-5.85
-0.58
4.29
8.11
10.61
11.78
11.88
11.19
9.90
8.13
6.06
3.97
2.24
1.24
1.11
1.70
2.60
3.35
3.71
3.72
3.64
3.79
4.25
4.82
5.09
4.65
3.36
1.41
-0.78
-2.77
-4.29
-5.38
-6.30
-7.31
-8.56
-10.01
-11.54
-13.01
-14.32
-15.33
-15.83
-15.42
-13.74
-10.58
-6.19
-1.15
3.70
7.68
10.41
11.90
12.33
11.82
10.34
7.80
4.27
0.19
-3.73
-6.71
-8.22
-8.23
-7.23
-5.92
-4.88
-4.31
-4.07
-3.88
-3.55
-3.19
-3.15
-3.74
-5.06
-6.87
-8.78
-10.48
-11.87
-13.12
-14.54
-16.38
-18.66
-21.15
-23.37
-24.80
-24.92
-23.39
-20.14
-15.35
-9.47
-3.10
3.17
8.84
13.57
17.15
19.47
20.42
20.02
18.42
15.96
13.13
10.46
8.41
7.21
6.85
7.11
7.66
8.19
8.50
8.54
8.36
8.05
7.62
7.00
6.07
4.74
3.05
1.15
-0.75
-2.54
-4.27
-6.18
-8.46
-11.14
-13.91
-16.17
-17.22
-16.51
-13.85
-9.48
-3.92
2.14
8.04
13.23
17.26
19.82
20.82
20.37
18.80
16.52
13.92
11.21
8.50
5.90
3.62
1.92
1.12
1.28
2.20
3.44
4.49
4.97
4.79
4.03
2.87
1.45
-0.23
-2.18
-4.38
-6.75
-9.14
-11.46
-13.73
-16.04
-18.50
-21.07
-23.44
-25.04
-25.23
-23.48
-19.66
-14.11
-7.55
-0.81
5.33
10.39
14.11
16.43
17.38
17.03
15.56
13.28
10.62
8.03
5.91
4.52
3.91
4.02
4.68
5.67
6.77
7.80
8.59
9.04
9.06
8.58
7.50
5.82
3.63
1.13
-1.39
-3.70
-5.70
-7.42
-9.09
-10.94
-13.08
-15.49
-17.92
-19.99
-21.25
-21.27
-19.75
-16.55
-11.81
-5.96
0.32
6.27
11.19
14.68
16.64
17.23
16.74
15.43
13.57
11.42
9.30
7.61
6.69
6.72
7.59
8.92
10.23
11.07
11.24
10.78
9.96
9.08
8.37
7.84
7.28
6.38
4.91
2.86
0.52
-1.70
-3.47
-4.83
-6.15
-7.96
-10.58
-13.90
-17.34
-20.08
-21.44
-21.15
-19.32
-16.34
-12.52
-8.06
-3.05
2.31
7.62
12.23
15.52
17.07
16.86
15.31
12.98
10.44
8.07
6.04
4.42
3.36
3.01
3.48
4.67
6.21
7.62
8.46
8.58
8.11
7.33
6.49
5.58
4.44
2.93
1.09
-0.86
-2.58
-3.87
-4.78
-5.62
-6.71
-8.28
-10.37
-12.85
-15.50
-18.04
-20.14
-21.40
-21.35
-19.57
-15.95
-10.76
-4.61
1.64
7.19
11.46
14.15
15.27
14.97
13.44
10.98
7.88
4.56
1.54
-0.64
-1.61
-1.31
-0.03
1.64
3.04
3.74
3.64
2.96
2.00
0.99
-0.06
-1.30
-2.87
-4.77
-6.82
-8.81
-10.54
-12.00
-13.29
-14.61
-16.09
-17.82
-19.71
-21.52
-22.86
-23.17
-21.94
-18.81
-13.83
-7.44
-0.47
6.16
11.64
15.50
17.66
18.31
17.77
16.36
14.30
11.81
9.15
6.64
4.71
3.73
3.81
4.82
6.32
7.76
8.71
9.01
8.75
8.17
7.47
6.67
5.65
4.25
2.42
0.29
-1.93
-4.07
-6.13
-8.29
-10.71
-13.40
-16.06
-18.16
-19.10
-18.36
-15.75
-11.38
-5.68
0.75
7.19
12.99
17.57
20.60
21.97
21.80
20.36
17.92
14.83
11.42
8.03
5.05
2.82
1.60
1.40
2.03
3.16
4.36
5.29
5.65
5.31
4.23
2.47
0.24
-2.19
-4.53
-6.54
-8.19
-9.58
-10.99
-12.70
-14.87
-17.51
-20.36
-23.01
-24.89
-25.45
-24.23
-21.09
-16.22
-10.13
-3.50
2.97
8.71
13.29
16.45
18.04
18.08
16.81
14.69
12.30
10.16
8.60
7.67
7.24
7.15
7.32
7.71
8.29
8.92
9.36
9.40
8.92
7.99
6.78
5.46
4.07
2.55
0.81
-1.17
-3.29
-5.39
-7.31
-9.06
-10.81
-12.78
-15.16
-17.88
-20.56
-22.58
-23.25
-22.03
-18.76
-13.68
-7.41
-0.75
5.50
10.77
14.70
17.23
18.42
18.41
17.33
15.41
12.92
10.30
8.06
6.70
6.49
7.37
8.94
10.67
12.04
12.73
12.76
12.32
11.67
10.99
10.26
9.34
8.05
6.31
4.19
1.92
-0.20
-1.95
-3.28
-4.34
-5.36
-6.64
-8.35
-10.56
-13.18
-15.96
-18.55
-20.46
-21.19
-20.33
-17.67
-13.32
-7.68
-1.41
4.70
9.98
13.94
16.41
17.42
17.25
16.19
14.51
12.42
10.18
8.09
6.55
5.88
6.20
7.35
8.86
10.21
11.01
11.11
10.66
9.83
8.76
7.46
5.89
4.07
2.12
0.23
-1.52
-3.16
-4.86
-6.70
-8.66
-10.52
-12.02
-13.05
-13.73
-14.47
-15.70
-17.72
-20.41
-23.26
-25.47
-26.27
-25.13
-22.01
-17.25
-11.49
-5.36
0.56
5.94
10.48
13.96
16.14
16.88
16.22
14.50
12.32
10.30
8.96
8.55
9.02
10.12
11.53
12.93
14.05
14.66
14.67
14.05
12.92
11.43
9.77
8.02
6.18
4.22
2.13
-0.01
-2.02
-3.73
-5.13
-6.34
-7.59
-9.06
-10.80
-12.77
-14.82
-16.83
-18.68
-20.18
-21.01
-20.70
-18.80
-15.05
-9.62
-3.09
3.65
9.68
14.36
17.43
18.95
19.10
18.09
16.07
13.21
9.84
6.51
3.79
2.19
1.90
2.72
4.18
5.75
7.01
7.77
8.00
7.76
7.12
6.18
5.05
3.85
2.67
1.47
0.12
-1.56
-3.65
-6.03
-8.38
-10.31
-11.60
-12.31
-12.81
-13.58
-14.98
-17.07
-19.58
-21.99
-23.75
-24.43
-23.68
-21.38
-17.48
-12.16
-5.79
0.94
7.22
12.30
15.69
17.34
17.54
16.78
15.46
13.81
11.91
9.79
7.63
5.78
4.69
4.67
5.73
7.51
9.42
10.87
11.57
11.52
11.01
10.36
9.67
8.87
7.74
6.13
4.14
2.05
0.20
-1.22
-2.21
-3.01
-3.89
-5.03
-6.47
-8.13
-9.89
-11.72
-13.64
-15.65
-17.60
-19.16
-19.84
-19.11
-16.71
-12.73
-7.69
-2.32
2.68
6.83
10.03
12.37
13.94
14.67
14.35
12.84
10.26
7.11
4.17
2.20
1.64
2.46
4.18
6.13
7.74
8.71
9.09
9.07
8.92
8.66
8.18
7.30
5.90
4.05
1.98
-0.04
-1.83
-3.51
-5.27
-7.34
-9.74
-12.24
-14.46
-16.14
-17.30
-18.31
-19.62
-21.46
-23.63
-25.42
-25.92
-24.40
-20.61
-14.99
-8.42
-1.93
3.68
8.06
11.24
13.47
14.90
15.51
15.13
13.69
11.36
8.65
6.26
4.76
4.41
5.01
6.08
7.11
7.79
8.06
8.07
7.98
7.80
7.39
6.54
5.13
3.19
1.02
-1.07
-2.79
-4.05
-5.00
-5.94
-7.18
-8.96
-11.39
-14.39
-17.68
-20.82
-23.23
-24.35
-23.71
-21.17
-16.97
-11.67
-6.01
-0.66
3.90
7.43
9.88
11.26
11.60
10.96
9.45
7.34
4.98
2.79
1.10
0.04
-0.45
-0.57
-0.54
-0.51
-0.46
-0.37
-0.22
-0.12
-0.25
-0.80
-1.82
-3.18
-4.63
-5.90
-6.84
-7.50
-8.08
-8.84
-10.01
-11.66
-13.74
-16.05
-18.30
-20.09
-20.97
-20.48
-18.29
-14.33
-8.85
-2.46
4.03
9.84
14.40
17.48
19.10
19.43
18.68
17.05
14.71
11.95
9.13
6.70
5.03
4.33
4.55
5.42
6.55
7.57
8.23
8.43
8.14
7.42
6.37
5.06
3.62
2.12
0.61
-0.93
-2.54
-4.28
-6.20
-8.32
-10.62
-13.04
-15.44
-17.60
-19.14
-19.67
-18.85
-16.56
-12.89
-8.23
-3.10
1.96
6.50
10.20
12.86
14.38
14.70
13.81
11.83
9.05
5.89
2.94
0.72
-0.42
-0.41
0.50
1.88
3.31
4.48
5.27
5.63
5.58
5.05
4.01
2.44
0.43
-1.83
-4.06
-6.04
-7.67
-8.99
-10.21
-11.59
-13.31
-15.40
-17.63
-19.55
-20.62
-20.28
-18.22
-14.44
-9.30
-3.51
2.13
6.88
10.28
12.18
12.70
12.07
10.47
8.09
5.12
1.87
-1.17
-3.50
-4.77
-4.90
-4.11
-2.80
-1.33
0.07
1.31
2.32
3.02
3.29
3.05
2.36
1.39
0.31
-0.78
-1.95
-3.40
-5.31
-7.75
-10.54
-13.27
-15.41
-16.39
-15.77
-13.36
-9.30
-4.05
1.76
7.45
12.41
16.25
18.78
19.95
19.82
18.51
16.22
13.23
9.97
6.90
4.47
2.96
2.41
2.64
3.32
4.07
4.60
4.73
4.42
3.66
2.53
1.12
-0.48
-2.21
-4.05
-6.08
-8.40
-11.05
-13.97
-16.93
-19.59
-21.54
-22.37
-21.71
-19.31
-15.13
-9.45
-2.86
3.82
9.78
14.45
17.60
19.31
19.79
19.18
17.53
14.92
11.53
7.81
4.37
1.81
0.53
0.57
1.64
3.25
4.83
5.89
6.11
5.42
3.93
1.92
-0.27
-2.35
-4.23
-5.97
-7.74
-9.71
-11.99
-14.54
-17.23
-19.79
-21.88
-23.01
-22.68
-20.47
-16.17
-9.94
-2.34
5.73
13.20
19.14
22.97
24.58
24.31
22.75
20.54
18.17
15.96
14.05
12.56
11.64
11.44
12.01
13.16
14.53
15.63
16.06
15.64
14.43
12.67
10.62
8.44
6.17
3.81
1.33
-1.20
-3.69
-6.09
-8.42
-10.82
-13.44
-16.29
-19.11
-21.34
-22.28
-21.30
-18.14
-13.01
-6.56
0.32
6.80
12.22
16.22
18.63
19.41
18.68
16.65
13.72
10.38
7.16
4.48
2.60
1.58
1.39
1.92
3.03
4.51
6.05
7.33
8.05
7.99
7.14
5.60
3.57
1.25
-1.22
-3.74
-6.25
-8.65
-10.85
-12.74
-14.36
-15.87
-17.52
-19.48
-21.68
-23.70
-24.85
-24.44
-22.00
-17.49
-11.31
-4.16
3.17
9.95
15.59
19.63
21.83
22.15
20.81
18.26
15.07
11.88
9.21
7.39
6.57
6.63
7.35
8.35
9.29
9.88
10.00
9.68
9.04
8.21
7.23
6.03
4.52
2.63
0.44
-1.82
-3.87
-5.49
-6.68
-7.66
-8.79
-10.42
-12.69
-15.46
-18.31
-20.65
-21.90
-21.62
-19.54
-15.65
-10.17
-3.56
3.52
10.27
15.89
19.77
21.59
21.35
19.42
16.37
12.88
9.56
6.87
5.08
4.21
4.17
4.75
5.73
6.87
7.95
8.71
8.95
8.57
7.58
6.13
4.38
2.46
0.34
-2.02
-4.68
-7.49
-10.14
-12.29
-13.71
-14.52
-15.10
-15.98
-17.53
-19.81
-22.50
-25.04
-26.86
-27.53
-26.83
-24.64
-20.96
-15.82
-9.39
-2.14
5.25
11.84
16.84
19.74
20.54
19.71
17.95
15.95
14.13
12.51
10.96
9.40
7.99
7.17
7.37
8.76
11.04
13.48
15.22
15.67
14.73
12.75
10.33
7.98
5.95
4.18
2.48
0.67
-1.25
-3.15
-4.80
-6.02
-6.77
-7.22
-7.68
-8.53
-10.07
-12.41
-15.39
-18.60
-21.47
-23.38
-23.82
-22.46
-19.21
-14.23
-7.96
-1.01
5.87
11.93
16.55
19.32
20.17
19.32
17.17
14.24
11.04
8.03
5.57
3.94
3.31
3.71
4.97
6.78
8.70
10.31
11.31
11.57
11.15
10.23
9.00
7.53
5.77
3.59
0.90
-2.21
-5.46
-8.48
-10.99
-12.91
-14.38
-15.65
-16.91
-18.27
-19.73
-21.34
-23.13
-25.10
-27.02
-28.40
-28.53
-26.82
-22.99
-17.32
-10.54
-3.57
2.81
8.16
12.34
15.42
17.45
18.37
18.07
16.56
14.10
11.27
8.75
7.09
6.54
7.00
8.13
9.51
10.89
12.15
13.27
14.20
14.79
14.85
14.26
13.05
11.41
9.64
8.00
6.64
5.52
4.44
3.13
1.33
-1.11
-4.14
-7.58
-11.13
-14.50
-17.42
-19.63
-20.81
-20.61
-18.71
-15.02
-9.74
-3.47
3.01
8.93
13.74
17.23
19.41
20.37
20.22
19.05
16.97
14.24
11.22
8.39
6.18
4.85
4.45
4.77
5.46
6.13
6.52
6.54
6.25
5.82
5.30
4.62
3.59
2.01
-0.21
-2.95
-5.90
-8.72
-11.14
-13.07
-14.64
-16.10
-17.70
-19.59
-21.73
-23.94
-25.94
-27.45
-28.14
-27.74
-25.99
-22.71
-17.93
-11.94
-5.34
1.10
6.64
10.78
13.37
14.56
14.68
14.00
12.69
10.84
8.60
6.28
4.31
3.10
2.85
3.42
4.43
5.41
6.07
6.38
6.53
6.75
7.09
7.37
7.26
6.46
4.87
2.71
0.34
-1.86
-3.69
-5.20
-6.63
-8.24
-10.21
-12.56
-15.15
-17.77
-20.13
-21.90
-22.68
-22.08
-19.82
-15.85
-10.41
-4.04
2.62
8.91
14.31
18.45
21.09
22.14
21.60
19.69
16.74
13.26
9.77
6.78
4.63
3.45
3.15
3.48
4.13
4.83
5.38
5.68
5.70
5.45
4.92
4.13
3.06
1.68
-0.02
-2.01
-4.22
-6.51
-8.73
-10.80
-12.70
-14.54
-16.47
-18.61
-20.91
-23.12
-24.86
-25.71
-25.29
-23.36
-19.87
-15.01
-9.15
-2.85
3.25
8.51
12.49
14.93
15.83
15.39
13.98
12.02
9.94
8.01
6.39
5.15
4.32
3.94
4.10
4.84
6.12
7.65
9.07
10.01
10.27
9.87
9.00
7.90
6.71
5.38
3.79
1.82
-0.55
-3.21
-6.04
-8.92
-11.76
-14.44
-16.63
-17.83
-17.43
-15.03
-10.64
-4.81
1.54
7.38
11.99
15.07
16.75
17.30
16.97
15.86
14.00
11.49
8.60
5.67
3.03
0.88
-0.74
-1.84
-2.46
-2.56
-2.19
-1.50
-0.84
-0.64
-1.21
-2.58
-4.52
-6.59
-8.42
-9.88
-11.10
-12.37
-14.03
-16.24
-18.99
-22.04
-24.98
-27.27
-28.34
-27.68
-24.99
-20.34
-14.19
-7.29
-0.50
5.44
10.11
13.38
15.38
16.28
16.20
15.21
13.39
10.92
8.14
5.46
3.29
1.91
1.37
1.58
2.27
3.18
4.04
4.63
4.77
4.33
3.31
1.82
0.07
-1.70
-3.30
-4.69
-6.00
-7.49
-9.38
-11.80
-14.58
-17.34
-19.53
-20.63
-20.24
-18.16
-14.40
-9.18
-2.95
3.64
9.86
15.01
18.59
20.41
20.61
19.55
17.67
15.33
12.76
10.10
7.50
5.19
3.46
2.51
2.42
3.04
4.02
4.98
5.63
5.81
5.55
4.98
4.18
3.15
1.82
0.09
-2.02
-4.42
-6.94
-9.50
-12.11
-14.80
-17.59
-20.29
-22.46
-23.55
-23.01
-20.56
-16.34
-10.86
-4.88
0.83
5.69
9.39
11.89
13.24
13.55
12.87
11.26
8.92
6.23
3.76
2.08
1.57
2.24
3.77
5.58
7.16
8.14
8.45
8.26
7.75
7.10
6.40
5.61
4.66
3.49
2.03
0.26
-1.86
-4.36
-7.17
-10.12
-12.89
-15.06
-16.14
-15.74
-13.66
-9.98
-5.08
0.45
5.96
10.87
14.79
17.50
18.89
18.91
17.59
15.11
11.84
8.33
5.22
3.04
1.95
1.79
2.15
2.62
2.93
3.01
2.90
2.51
1.61
-0.13
-2.92
-6.65
-10.89
-15.02
-18.56
-21.29
-23.45
-25.44
-27.62
-29.98
-32.07
-33.09
-32.23
-28.95
-23.23
-15.66
-7.24
0.86
7.64
12.43
15.05
15.70
14.78
12.73
9.94
6.73
3.45
0.52
-1.62
-2.64
-2.40
-1.05
1.01
3.32
5.51
7.39
8.92
10.11
10.92
11.25
10.95
9.93
8.25
6.04
3.48
0.76
-1.99
-4.66
-7.11
-9.23
-10.91
-12.04
-12.48
-11.99
-10.30
-7.16
-2.54
3.17
9.21
14.64
18.66
20.89
21.45
20.74
19.25
17.27
14.92
12.30
9.59
7.21
5.63
5.23
6.09
7.90
10.14
12.22
13.70
14.37
14.27
13.54
12.34
10.78
8.93
6.83
4.57
2.28
0.11
-1.88
-3.71
-5.51
-7.45
-9.63
-11.95
-14.11
-15.60
-15.83
-14.32
-10.84
-5.57
0.91
7.80
14.18
19.32
22.72
24.22
23.90
21.99
18.88
15.01
10.90
7.06
3.95
1.90
0.97
0.95
1.45
2.04
2.37
2.31
1.93
1.39
0.79
0.11
-0.79
-2.07
-3.80
-5.90
-8.19
-10.45
-12.56
-14.51
-16.39
-18.39
-20.59
-22.96
-25.26
-27.10
-27.99
-27.52
-25.45
-21.78
-16.79
-10.91
-4.70
1.31
6.58
10.71
13.36
14.44
14.04
12.51
10.36
8.13
6.29
5.10
4.61
4.73
5.26
6.03
6.86
7.59
8.06
8.10
7.59
6.54
5.04
3.33
1.62
0.08
-1.27
-2.49
-3.68
-4.95
-6.33
-7.85
-9.54
-11.42
-13.45
-15.46
-17.12
-18.01
-17.66
-15.80
-12.43
-7.86
-2.66
2.53
7.11
10.62
12.85
13.79
13.62
12.61
11.05
9.19
7.18
5.13
3.14
1.36
0.01
-0.73
-0.75
-0.14
0.87
1.91
2.70
3.01
2.82
2.19
1.25
0.15
-0.96
-1.97
-2.86
-3.72
-4.82
-6.46
-8.85
-11.93
-15.23
-17.89
-18.86
-17.27
-12.76
-5.72
2.86
11.62
19.33
25.17
28.92
30.81
31.27
30.66
29.09
26.53
22.92
18.38
13.24
7.98
3.11
-0.92
-3.86
-5.58
-6.14
-5.75
-4.80
-3.72
-2.97
-2.84
-3.41
-4.49
-5.75
-6.84
-7.56
-7.95
-8.24
-8.76
-9.75
-11.25
-13.02
-14.61
-15.46
-15.04
-12.97
-9.11
-3.58
3.24
10.72
18.03
24.27
28.64
30.61
30.03
27.10
22.34
16.36
9.92
3.70
-1.62
-5.45
-7.43
-7.50
-5.96
-3.44
-0.68
1.63
3.02
3.41
3.01
2.23
1.44
0.84
0.35
-0.33
-1.55
-3.61
-6.63
-10.53
-15.04
-19.68
-23.78
-26.58
-27.36
-25.65
-21.32
-14.77
-6.77
1.68
9.65
16.35
21.27
24.08
24.61
22.92
19.41
14.86
10.35
7.01
5.63
6.40
8.84
11.97
14.69
16.16
16.01
14.30
11.39
7.72
3.67
-0.41
-4.16
-7.20
-9.14
-9.76
-9.07
-7.46
-5.58
-4.19
-3.89
-4.89
-6.99
-9.68
-12.44
-14.92
-17.07
-19.10
-21.36
-24.15
-27.64
-31.77
-36.21
-40.33
-43.28
-44.14
-42.17
-37.11
-29.29
-19.58
-9.15
0.90
9.75
17.00
22.58
26.52
28.88
29.68
28.98
27.03
24.31
21.40
18.84
16.92
15.68
14.92
14.41
14.05
13.84
13.86
14.08
14.31
14.26
13.66
12.42
10.67
8.69
6.77
5.06
3.49
1.86
-0.06
-2.41
-5.09
-7.77
-10.06
-11.60
-12.21
-11.99
-11.21
-10.19
-9.20
-8.35
-7.62
-6.96
-6.35
-5.82
-5.42
-5.16
-5.02
-4.88
-4.64
-4.26
-3.76
-3.22
-2.77
-2.45
-2.28
-2.20
-2.13
-2.00
-1.77
-1.48
-1.17
-0.92
-0.77
-0.70
-0.69
-0.69
-0.65
-0.56
-0.44
-0.30
-0.19
-0.12
-0.10
-0.10
-0.11
-0.11
-0.09
-0.06
-0.02
0.01
0.02
0.03
0.01
0.00
-0.01
-0.02
-0.02
-0.02
-0.02
-0.02
-0.02
-0.02
-0.02
-0.02
-0.02
-0.02
-0.02
-0.02
-0.02
-0.02
-0.02
-0.02
-0.02
-0.02
-0.02
-0.02
-0.02
-0.02
-0.02
-0.02
-0.02
-0.02
-0.02
-0.02
-0.02
-0.02
-0.02
-0.02
-0.02
-0.02
-0.02
-0.02
-0.02
-0.02
-0.02
-0.02
-0.02
-0.02
-0.02
-0.02
-0.02
-0.02
-0.02
-0.02
-0.02
-0.02
-0.02
-0.02
-0.02
-0.02
-0.02
-0.02
-0.02
-0.02
-0.02
-0.02
-0.02
-0.02
-0.02
-0.02
-0.02
-0.02
-0.02
-0.02
-0.02
-0.02
-0.02
-0.02
-0.02
-0.02
-0.02
-0.02
-0.02
-0.02
-0.02
-0.02
-0.02
-0.02
-0.02
-0.02
-0.02
-0.02
-0.02
-0.02
-0.02
-0.02
-0.02
-0.02
-0.02
-0.02
-0.02
-0.02
-0.02
-0.02
-0.02
-0.02
-0.02
-0.02
-0.02
-0.02
-0.02
-0.02
-0.02
-0.02
-0.02
-0.02
-0.02
-0.02
-0.02
-0.02
-0.02
-0.02
-0.02
-0.02
-0.02
-0.02
-0.02
-0.02
-0.02
-0.02
-0.02
-0.02
-0.02
-0.02
-0.02
-0.02
-0.02
-0.02
-0.02
-0.02
-0.02
-0.02
-0.02
-0.02
-0.02
-0.02
-0.03
-0.02
-0.02
-0.02
-0.01
-0.01
-0.01
-0.00
0.00
0.01
0.02
0.03
0.04
0.05
0.06
0.08
0.10
0.12
0.14
0.16
0.17
0.19
0.20
0.21
0.21
0.21
0.21
0.21
0.22
0.24
0.27
0.30
0.34
0.39
0.43
0.49
0.55
0.62
0.70
0.79
0.89
1.00
1.12
1.24
1.36
1.49
1.62
1.77
1.94
2.13
2.35
2.57
2.79
3.00
3.23
3.50
3.87
4.37
4.99
5.66
6.28
6.74
6.97
6.95
6.70
6.28
5.71
4.99
4.13
3.13
2.07
1.02
0.04
-0.91
-1.94
-3.25
-4.99
-7.19
-9.74
-12.39
-14.84
-16.83
-18.15
-18.63
-18.11
-16.44
-13.58
-9.65
-5.02
-0.30
3.91
7.09
9.03
9.80
9.65
8.89
7.72
6.26
4.57
2.76
1.06
-0.29
-1.06
-1.16
-0.69
0.09
0.90
1.50
1.83
1.95
1.93
1.81
1.55
1.04
0.26
-0.68
-1.57
-2.21
-2.55
-2.74
-3.12
-3.98
-5.49
-7.51
-9.69
-11.52
-12.56
-12.45
-11.04
-8.42
-4.86
-0.77
3.33
6.94
9.69
11.39
12.10
11.98
11.24
10.01
8.36
6.39
4.26
2.28
0.78
0.04
0.09
0.75
1.67
2.46
2.86
2.77
2.27
1.49
0.57
-0.40
-1.37
-2.30
-3.14
-3.89
-4.59
-5.34
-6.23
-7.33
-8.68
-10.26
-12.04
-13.88
-15.57
-16.73
-16.88
-15.61
-12.78
-8.69
-3.94
0.62
4.35
6.91
8.38
9.00
8.99
8.47
7.43
5.91
4.08
2.28
0.89
0.17
0.15
0.64
1.36
2.07
2.69
3.24
3.77
4.28
4.59
4.47
3.69
2.21
0.20
-1.97
-3.98
-5.64
-7.05
-8.56
-10.55
-13.18
-16.28
-19.26
-21.37
-21.90
-20.47
-17.15
-12.39
-6.88
-1.33
3.67
7.73
10.69
12.53
13.33
13.27
12.56
11.44
10.13
8.79
7.62
6.75
6.37
6.59
7.46
8.87
10.58
12.25
13.61
14.44
14.70
14.45
13.73
12.59
11.01
8.89
6.21
2.90
-0.95
-5.21
-9.60
-13.73
-17.14
-19.35
-19.99
-18.88
-16.12
-12.09
-7.37
-2.65
1.45
4.48
6.22
6.67
5.96
4.27
1.81
-1.24
-4.66
-8.18
-11.43
-13.98
-15.40
-15.40
-13.90
-11.10
-7.51
-3.74
-0.41
2.08
3.52
3.93
3.42
2.06
-0.10
-3.00
-6.46
-10.23
-13.98
-17.38
-20.13
-21.97
-22.66
-21.99
-19.78
-16.01
-10.91
-4.87
1.53
7.68
13.04
17.22
19.99
21.32
21.33
20.24
18.37
16.03
13.55
11.23
9.28
7.83
6.91
6.40
6.14
5.95
5.66
5.16
4.39
3.30
1.90
0.23
-1.59
-3.43
-5.21
-6.92
-8.66
-10.58
-12.81
-15.38
-18.23
-21.13
-23.71
-25.48
-25.91
-24.56
-21.29
-16.32
-10.27
-4.02
1.59
6.00
9.08
11.04
12.23
12.93
13.22
13.02
12.32
11.27
10.24
9.69
9.94
11.06
12.83
14.87
16.81
18.42
19.62
20.33
20.46
19.86
18.43
16.19
13.36
10.28
7.29
4.58
2.16
-0.14
-2.48
-4.88
-7.17
-8.98
-9.87
-9.48
-7.66
-4.49
-0.28
4.49
9.30
13.61
16.97
18.96
19.34
18.09
15.48
12.07
8.61
5.77
4.04
3.46
3.80
4.68
5.82
7.15
8.76
10.72
12.93
14.99
16.36
16.61
15.63
13.66
11.20
8.74
6.54
4.55
2.52
0.17
-2.60
-5.68
-8.87
-12.03
-15.07
-18.01
-20.74
-22.95
-24.10
-23.70
-21.46
-17.53
-12.42
-6.88
-1.66
2.65
5.67
7.24
7.36
6.20
4.15
1.68
-0.68
-2.51
-3.60
-3.92
-3.54
-2.59
-1.18
0.52
2.26
3.69
4.43
4.24
3.13
1.35
-0.63
-2.35
-3.50
-4.04
-4.12
-4.07
-4.19
-4.69
-5.71
-7.25
-9.23
-11.48
-13.65
