1549305987.00
64.000000
-0.00
-0.00
-0.00
-0.00
-0.00
-0.00
-0.00
-0.00
-0.00
-0.00
0.00
0.01
0.01
-0.00
-0.03
-0.05
-0.05
0.00
0.13
0.36
0.66
1.01
1.37
1.72
2.06
2.40
2.79
3.24
3.80
4.42
5.06
5.66
6.20
6.68
7.15
7.68
8.31
9.14
10.09
11.04
11.88
12.56
13.14
13.76
14.65
15.96
17.91
20.32
22.90
25.38
27.58
29.57
31.68
34.32
37.81
42.54
48.15
54.10
59.83
64.97
69.58
74.14
79.34
85.71
93.76
103.00
112.62
121.73
129.77
136.75
143.30
150.75
157.77
166.64
177.95
191.79
206.97
220.57
228.25
225.36
208.53
176.87
132.76
80.05
23.07
-34.94
-92.44
-149.16
-205.23
-260.37
-313.74
-363.87
-409.83
-450.91
-486.50
-515.74
-537.23
-549.22
-549.96
-538.37
-514.21
-478.67
-433.88
-382.45
-327.02
-269.84
-212.63
-156.66
-102.95
-52.37
-5.90
35.58
71.43
101.35
125.50
144.38
158.69
169.15
176.37
180.75
182.57
182.07
179.51
175.23
169.65
163.18
156.15
148.81
141.30
133.69
126.02
118.33
110.69
103.16
95.80
88.68
81.83
75.25
68.95
62.95
57.25
51.86
46.78
42.03
37.59
33.45
29.61
26.07
22.81
19.83
17.11
14.67
12.48
10.54
8.83
7.35
6.07
4.97
4.05
3.27
2.62
2.09
1.65
1.30
1.01
0.79
0.61
0.47
0.37
0.28
0.23
0.18
0.15
0.13
0.13
0.13
0.14
0.16
0.18
0.21
0.24
0.28
0.32
0.36
0.41
0.45
0.50
0.55
0.60
0.65
0.70
0.77
0.83
0.90
0.98
1.07
1.16
1.27
1.39
1.53
1.68
1.84
2.04
2.24
2.47
2.73
3.01
3.33
3.67
4.04
4.45
4.89
5.37
5.88
6.44
7.03
7.67
8.35
9.07
9.84
10.66
11.51
12.42
13.37
14.38
15.44
16.58
17.77
19.01
20.28
21.52
22.68
23.66
24.35
24.62
24.37
23.49
21.91
19.61
16.62
13.00
8.92
4.54
0.07
-4.27
-8.28
-11.78
-14.63
-16.75
-18.12
-18.75
-18.72
-18.15
-17.14
-15.81
-14.28
-12.62
-10.89
-9.11
-7.27
-5.43
-3.57
-1.69
0.22
2.20
4.28
6.50
8.86
11.44
14.06
16.68
19.27
21.84
24.46
27.20
30.13
33.35
36.96
40.72
44.52
48.31
52.12
56.02
60.13
64.57
69.42
74.86
80.45
85.98
91.35
96.61
101.92
107.44
113.32
119.58
126.24
132.50
137.79
141.78
144.31
145.34
144.65
141.52
134.24
125.22
114.51
101.97
87.67
72.07
56.00
40.36
25.74
12.25
-0.48
-13.83
-28.81
-45.80
-64.38
-83.62
-102.43
-120.03
-136.27
-151.48
-166.96
-184.03
-203.99
-227.87
-255.81
-286.30
-315.74
-338.84
-350.02
-345.82
-326.06
-294.15
-255.89
-217.32
-182.73
-153.86
-130.41
-111.20
-95.44
-82.77
-72.90
-65.03
-57.75
-49.45
-39.01
-26.42
-12.70
0.33
11.00
18.39
22.64
24.84
26.43
28.72
32.39
37.33
42.84
47.98
51.90
54.13
54.56
53.42
51.08
47.97
44.60
41.59
39.76
40.06
43.31
49.91
59.55
71.21
83.32
94.08
101.73
104.81
102.24
93.58
79.20
60.43
39.46
18.91
1.15
-12.21
-20.64
-24.46
-24.43
-21.32
-15.76
-8.30
0.30
8.93
16.27
21.05
22.58
20.90
16.79
11.47
6.21
1.90
-1.12
-3.02
-4.34
-5.81
-8.11
-11.71
-16.76
-22.85
-29.07
-34.14
-36.82
-36.29
-32.52
-26.18
-18.43
-10.45
-3.19
2.75
6.97
9.22
9.35
7.38
3.69
-1.00
-5.74
-9.57
-11.84
-12.30
-11.09
-8.67
-5.63
-2.55
0.06
1.75
2.17
1.13
-1.28
-4.71
-8.52
-12.00
-14.64
-16.27
-17.24
-18.11
-19.37
-21.11
-22.95
-24.40
-25.22
-25.76
-26.77
-28.89
-32.04
-35.12
-36.28
-33.72
-26.55
-15.30
-1.76
11.78
23.42
32.24
38.24
41.95
43.77
43.66
41.18
35.94
28.09
18.56
8.93
0.91
-4.27
-6.23
-5.47
-3.07
-0.11
2.66
4.90
6.55
7.56
7.82
7.20
5.73
3.66
1.41
-0.65
-2.42
-4.14
-6.34
-9.66
-14.50
-20.75
-27.70
-33.94
-37.78
-37.64
-32.63
-22.88
-9.61
5.29
19.77
32.15
41.42
47.24
49.72
49.23
46.20
41.10
34.50
27.01
19.29
11.92
5.41
0.09
-3.84
-6.28
-7.29
-7.07
-5.95
-4.44
-3.08
-2.37
-2.67
-4.13
-6.72
-10.27
-14.48
-19.08
-23.78
-28.40
-32.91
-37.49
-42.52
-48.24
-54.51
-60.48
-64.58
-64.93
-59.99
-49.17
-33.23
-14.13
5.58
23.49
37.97
48.34
54.66
57.33
56.73
53.19
47.05
38.97
29.96
21.23
13.87
8.51
5.21
3.61
3.19
3.58
4.64
6.31
8.38
10.45
11.85
12.05
10.74
7.98
4.19
-0.11
-4.44
-8.51
-12.27
-15.99
-20.14
-25.29
-31.87
-39.79
-48.16
-55.33
-59.19
-57.91
-50.55
-37.47
-20.29
-1.34
17.05
33.09
45.74
54.70
60.06
62.08
61.08
57.47
51.81
44.89
37.60
30.81
25.21
21.15
18.67
17.59
17.72
18.82
20.68
22.96
25.16
26.56
26.49
24.46
20.38
14.61
7.79
0.66
-6.20
-12.51
-18.32
-24.03
-30.11
-37.01
-44.85
-53.25
-61.22
-67.24
-69.52
-66.59
-57.75
-43.43
-25.17
-5.26
13.88
30.28
42.80
51.16
55.68
56.99
55.70
52.33
47.40
41.47
35.23
29.38
24.51
21.00
18.95
18.27
18.74
20.14
22.36
25.27
28.63
32.04
34.89
36.49
36.27
34.01
29.88
24.44
18.45
12.56
7.21
2.49
-1.82
-6.11
-10.76
-16.02
-21.76
-27.41
-31.90
-33.86
-32.05
-25.81
-15.41
-2.10
12.28
25.78
36.91
44.82
49.34
50.60
48.85
44.25
36.99
27.52
16.64
5.53
-4.52
-12.37
-17.37
-19.47
-19.20
-17.38
-14.89
-12.41
-10.42
-9.24
-9.12
-10.33
-12.99
-16.99
-21.86
-26.79
-30.98
-33.86
-35.41
-36.12
-36.84
-38.38
-41.27
-45.49
-50.47
-55.08
-57.83
-57.14
-51.74
-41.15
-25.95
-7.75
11.11
28.27
41.95
51.28
56.30
57.56
55.73
51.35
44.84
36.63
27.42
18.06
9.43
2.14
-3.60
-7.85
-10.75
-12.31
-12.45
-11.19
-8.99
-6.80
-5.88
-7.29
-11.44
-17.92
-25.71
-33.61
-40.80
-47.07
-52.82
-58.84
-66.04
-75.14
-86.37
-99.14
-111.74
-121.34
-124.64
-118.78
-102.57
-77.16
-45.82
-13.01
17.01
41.35
58.89
70.01
75.79
77.30
75.33
70.44
63.16
54.30
44.77
35.56
27.44
20.91
16.25
13.50
12.66
13.69
16.48
20.76
26.07
31.67
36.70
40.27
41.69
40.65
37.28
32.23
26.34
20.39
14.85
9.63
4.23
-2.09
-9.80
-18.85
-28.37
-36.81
-42.26
-43.04
-38.21
-27.93
-13.49
3.11
19.70
34.48
46.35
54.87
60.07
62.13
61.23
57.62
51.70
44.13
35.80
27.67
20.54
14.92
10.92
8.42
7.19
7.11
8.23
10.63
14.27
18.69
23.02
26.11
26.93
24.96
20.40
14.07
7.06
0.33
-5.66
-11.01
-16.20
-21.82
-28.33
-35.88
-44.13
-52.27
-59.01
-62.78
-62.15
-56.23
-45.12
-30.06
-13.11
3.39
17.43
27.83
34.27
37.09
36.86
34.09
29.15
22.33
14.06
5.04
-3.81
-11.49
-17.21
-20.57
-21.65
-20.77
-18.43
-15.00
-10.76
-5.96
-1.05
3.32
6.36
7.40
6.14
2.86
-1.74
-6.75
-11.43
-15.42
-18.88
-22.35
-26.55
-32.02
-38.84
-46.36
-53.18
-57.48
-57.57
-52.49
-42.42
-28.63
-13.03
2.45
16.29
27.66
36.18
41.78
44.44
44.19
41.25
36.05
29.20
21.45
13.52
6.11
-0.19
-4.91
-7.81
-8.89
-8.37
-6.62
-4.16
-1.50
0.76
2.14
2.24
0.94
-1.65
-5.18
-9.21
-13.30
-17.09
-20.27
-22.73
-24.56
-26.29
-28.63
-32.09
-36.48
-40.66
-42.73
-40.79
-33.79
-22.09
-7.29
8.39
23.03
35.46
45.35
52.80
57.88
60.43
60.24
57.36
52.33
46.07
39.63
33.83
29.21
25.89
23.90
23.22
23.88
25.82
28.79
32.26
35.46
37.63
38.19
36.89
33.88
29.55
24.40
18.84
13.17
7.37
1.24
-5.63
-13.55
-22.46
-31.65
-39.72
-44.92
-45.65
-41.12
-31.66
-18.66
-4.08
10.13
22.48
32.14
38.81
42.49
43.35
41.67
37.79
32.18
25.36
17.91
10.41
3.47
-2.30
-6.39
-8.51
-8.70
-7.39
-5.21
-2.91
-1.13
-0.29
-0.61
-2.11
-4.71
-8.22
-12.44
-17.09
-22.03
-27.22
-32.88
-39.39
-47.03
-55.61
-64.21
-71.14
-74.36
-72.11
-63.69
-49.76
-32.22
-13.55
3.95
18.72
30.13
38.19
43.13
45.10
44.14
40.26
33.75
25.25
15.72
6.31
-1.96
-8.34
-12.53
-14.54
-14.61
-13.12
-10.54
-7.40
-4.36
-2.12
-1.31
-2.26
-4.89
-8.76
-13.20
-17.66
-21.86
-25.95
-30.40
-35.69
-42.00
-48.87
-55.11
-59.05
-58.93
-53.57
-42.80
-27.59
-9.75
8.57
25.42
39.45
49.89
56.54
59.49
58.99
55.42
49.29
41.23
31.96
22.27
12.96
4.79
-1.55
-5.57
-7.05
-6.14
-3.35
0.48
4.35
7.34
8.76
8.28
6.02
2.38
-2.09
-6.89
-11.71
-16.46
-21.23
-26.23
-31.77
-37.99
-44.77
-51.38
-56.49
-58.30
-55.18
-46.26
-31.99
-14.10
4.90
22.51
37.02
47.72
54.72
58.46
59.23
57.13
52.18
44.70
35.44
25.55
16.23
8.49
2.92
-0.29
-1.16
0.24
3.79
9.19
15.72
22.25
27.40
29.98
29.47
26.18
21.07
15.33
9.86
4.91
0.07
-5.38
-12.09
-20.26
-29.41
-38.43
-45.71
-49.54
-48.62
-42.47
-31.64
-17.60
-2.27
12.52
25.42
35.72
43.15
47.58
48.94
47.22
42.58
35.51
26.81
17.47
8.45
0.52
-5.74
-10.06
-12.39
-12.87
-11.75
-9.43
-6.41
-3.27
-0.64
0.93
1.10
-0.17
-2.54
-5.45
-8.32
-10.82
-13.07
-15.62
-19.22
-24.39
-31.09
-38.40
-44.70
-48.03
-46.80
-40.29
-28.94
-14.20
1.93
17.53
31.13
41.87
49.40
53.67
54.70
52.62
47.64
40.27
31.22
21.44
11.97
3.78
-2.43
-6.33
-8.01
-7.92
-6.64
-4.82
-3.01
-1.68
-1.15
-1.61
-3.12
-5.55
-8.69
-12.34
-16.49
-21.36
-27.31
-34.66
-43.29
-52.36
-60.31
-65.15
-65.06
-59.03
-47.28
-31.22
-13.04
4.97
20.98
33.92
43.33
49.09
51.18
49.63
44.67
36.88
27.17
16.73
6.75
-1.78
-8.18
-12.12
-13.60
-12.92
-10.59
-7.33
-3.91
-1.11
0.48
0.53
-1.00
-3.81
-7.42
-11.42
-15.58
-20.05
-25.30
-31.86
-40.03
-49.45
-58.92
-66.56
-70.19
-68.11
-59.57
-45.17
-26.67
-6.46
13.04
29.93
43.06
51.99
56.75
57.70
55.38
50.43
43.56
35.47
26.83
18.26
10.44
4.00
-0.47
-2.60
-2.42
-0.38
2.74
6.02
8.59
9.82
9.38
7.21
3.51
-1.35
-6.93
-12.80
-18.74
-24.71
-30.99
-37.93
-45.78
-54.25
-62.36
-68.47
-70.65
-67.31
-57.81
-42.74
-23.89
-3.65
15.52
31.76
43.99
51.87
55.58
55.59
52.38
46.50
38.60
29.47
20.14
11.70
5.16
1.19
0.00
1.35
4.66
9.23
14.33
19.24
23.28
25.82
26.44
24.99
21.75
17.30
12.36
7.53
3.09
-1.04
-5.32
-10.38
-16.79
-24.71
-33.60
-42.10
-48.30
-50.22
-46.44
-36.67
-21.83
-3.81
15.11
32.87
48.01
59.69
67.59
71.69
72.12
69.18
63.40
55.57
46.63
37.56
29.28
22.45
17.52
14.66
13.82
14.72
16.93
19.89
22.93
25.30
26.25
25.17
21.74
16.13
9.01
1.38
-5.76
-11.76
-16.53
-20.51
-24.47
-29.13
-34.86
-41.52
-48.32
-53.92
-56.68
-55.07
-48.12
-35.89
-19.57
-1.29
16.50
31.73
43.17
50.50
54.12
54.63
52.54
48.11
41.58
33.34
24.13
15.00
7.08
1.26
-2.06
-3.10
-2.47
-0.94
0.87
2.62
4.18
5.46
6.24
6.06
4.48
1.26
-3.38
-8.86
-14.44
-19.76
-24.91
-30.60
-37.58
-46.06
-55.14
-62.84
-66.64
-64.41
-55.33
-40.28
-21.56
-2.01
15.90
30.68
41.86
49.61
54.23
55.78
54.22
49.61
42.37
33.38
23.83
14.88
7.47
2.07
-1.25
-2.77
-2.86
-1.92
-0.28
1.71
3.67
5.06
5.33
4.04
1.10
-3.16
-8.13
-13.16
-17.88
-22.38
-27.16
-32.87
-39.99
-48.35
-57.08
-64.58
-68.90
-68.28
-61.73
-49.43
-32.71
-13.73
5.13
21.91
35.37
45.01
50.85
53.08
51.95
47.74
40.91
32.19
22.62
13.34
5.37
-0.57
-4.19
-5.67
-5.48
-4.24
-2.51
-0.72
0.83
1.92
2.26
1.61
-0.18
-2.98
-6.34
-9.62
-12.31
-14.25
-15.78
-17.68
-20.85
-25.88
-32.70
-40.42
-47.40
-51.62
-51.30
-45.36
-33.80
-17.72
0.99
20.18
37.92
52.83
64.23
71.86
75.75
75.98
72.73
66.31
57.35
46.77
35.72
25.40
16.76
10.36
6.29
4.38
4.30
5.72
8.33
11.66
15.05
17.66
18.67
17.59
14.43
9.70
4.22
-1.22
-6.17
-10.66
-15.06
-19.95
-25.85
-32.98
-41.08
-49.26
-56.08
-59.75
-58.68
-52.00
-40.00
-24.10
-6.46
10.65
25.49
37.11
45.32
50.31
52.33
51.56
48.18
42.52
35.24
27.24
19.52
12.92
7.91
4.59
2.81
2.33
2.97
4.59
7.01
9.85
12.49
14.16
14.16
12.11
8.13
2.75
-3.21
-9.09
-14.52
-19.52
-24.46
-29.79
-35.86
-42.71
-49.89
-56.44
-61.03
-62.22
-58.94
-50.88
-38.71
-23.96
-8.59
5.54
17.10
25.49
30.67
32.96
32.70
30.18
25.68
19.51
12.22
4.53
-2.70
-8.64
-12.65
-14.40
-13.82
-11.21
-7.10
-2.15
2.88
7.31
10.56
12.34
12.62
11.59
9.59
6.93
3.86
0.47
-3.35
-7.83
-13.25
-19.66
-26.63
-33.07
-37.42
-37.99
-33.59
-23.99
-10.03
6.56
23.68
39.47
52.61
62.46
68.93
72.26
72.81
70.93
66.92
61.09
53.79
45.51
36.87
28.59
21.34
15.61
11.60
9.21
8.09
7.83
7.98
8.13
7.93
7.09
5.36
2.62
-1.16
-5.87
-11.41
-17.68
-24.68
-32.40
-40.63
-48.72
-55.52
-59.57
-59.47
-54.43
-44.59
-31.13
-15.91
-0.94
12.08
22.12
28.73
31.95
32.02
29.27
24.09
16.94
8.49
-0.41
-8.81
-15.71
-20.30
-22.13
-21.29
-18.40
-14.51
-10.78
-8.16
-7.12
-7.65
-9.41
-12.06
-15.43
-19.63
-24.86
-31.30
-38.90
-47.48
-56.76
-66.44
-76.04
-84.69
-90.96
-93.22
-90.05
-80.99
-66.88
-49.66
-31.77
-15.38
-1.75
8.76
16.39
21.47
24.13
24.32
22.07
17.70
11.97
5.90
0.55
-3.26
-5.13
-5.11
-3.64
-1.34
1.17
3.45
5.29
6.63
7.43
7.51
6.56
4.29
0.60
-4.32
-10.09
-16.29
-22.64
-28.87
-34.52
-38.71
-40.25
-37.92
-31.10
-20.12
-6.34
8.27
21.73
32.62
40.34
44.96
46.85
46.37
43.68
38.89
32.22
24.23
15.77
7.89
1.58
-2.52
-4.33
-4.30
-3.22
-1.97
-1.08
-0.77
-0.84
-1.01
-1.16
-1.43
-2.21
-3.92
-6.90
-11.23
-16.84
-23.42
-30.44
-36.95
-41.61
-42.86
-39.42
-30.82
-17.68
-1.73
14.77
29.66
41.42
49.45
53.87
55.11
53.59
49.54
43.10
34.68
25.00
15.20
6.56
0.08
-3.74
-5.07
-4.58
-3.16
-1.53
-0.24
0.44
0.39
-0.41
-1.88
-3.90
-6.38
-9.45
-13.54
-19.30
-27.29
-37.42
-48.65
-58.96
-65.87
-67.22
-61.96
-50.56
-34.78
-17.10
0.06
14.85
26.27
34.00
38.14
39.01
37.02
32.68
26.71
19.92
13.14
7.06
2.13
-1.44
-3.65
-4.67
-4.80
-4.41
-3.86
-3.46
-3.38
-3.61
-4.05
-4.63
-5.54
-7.17
-10.14
-15.11
-22.48
-32.14
-43.28
-54.32
-63.19
-67.69
-66.17
-57.93
-43.56
-24.75
-3.88
16.56
34.43
48.27
57.30
61.41
61.01
56.92
50.22
42.11
33.65
25.74
19.04
14.09
11.30
10.90
12.71
16.08
19.81
22.62
23.54
22.33
19.42
15.57
11.38
6.94
1.76
-4.74
-12.82
-22.23
-32.33
-42.46
-52.22
-61.39
-69.61
-76.01
-79.14
-77.35
-69.59
-55.97
-38.03
-18.33
0.27
15.36
25.53
30.35
30.17
25.77
18.11
8.31
-2.45
-12.83
-21.55
-27.54
-30.25
-29.69
-26.54
-21.86
-16.87
-12.62
-9.80
-8.70
-9.31
-11.40
-14.69
-18.91
-23.88
-29.50
-35.88
-43.26
-51.90
-61.89
-72.80
-83.42
-91.75
-95.42
-92.39
-81.69
-63.91
-41.12
-16.22
7.88
29.03
46.07
58.64
66.81
70.62
70.09
65.42
57.31
47.05
36.30
26.74
19.56
15.28
13.72
14.24
16.01
18.24
20.38
22.13
23.34
23.97
23.92
23.00
20.98
17.58
12.50
5.44
-3.91
-15.65
-29.40
-43.96
-57.21
-66.47
-69.19
-63.82
-50.38
-30.52
-6.96
17.38
40.00
59.22
74.07
84.01
88.70
87.98
82.02
71.53
57.85
42.82
28.47
16.67
8.77
5.37
6.34
10.90
17.86
25.86
33.61
40.04
44.47
46.61
46.52
44.50
40.93
36.03
29.82
22.08
12.57
1.37
-10.73
-22.11
-30.44
-33.41
-29.43
-18.31
-1.44
18.66
39.08
57.34
71.87
82.01
87.71
89.11
86.33
79.57
69.22
56.16
41.69
27.34
14.56
4.44
-2.52
-6.37
-7.56
-6.79
-4.73
-2.07
0.58
2.74
3.93
3.78
2.02
-1.51
-6.74
-13.59
-21.90
-31.49
-42.06
-52.90
-62.72
-69.67
-71.71
-67.31
-56.02
-38.74
-17.55
4.98
26.45
45.08
59.88
70.39
76.38
77.82
74.84
67.97
58.21
46.88
35.39
24.96
16.39
10.02
5.87
3.70
3.17
3.86
5.34
7.09
8.54
9.15
8.39
5.85
1.21
-5.72
-14.99
-26.56
-40.06
-54.66
-68.87
-80.58
-87.39
-87.33
-79.48
-64.49
-44.42
-22.13
-0.42
18.69
34.14
45.69
53.44
57.45
57.69
54.10
46.94
36.86
24.97
12.66
1.34
-7.78
-13.97
-17.07
-17.48
-15.93
-13.30
-10.31
-7.43
-4.95
-3.12
-2.24
-2.73
-5.02
-9.43
-16.10
-24.89
-35.29
-46.31
-56.32
-63.23
-64.81
-59.30
-46.11
-26.14
-1.75
23.93
47.79
67.50
81.88
90.73
94.44
93.52
88.46
79.74
68.01
54.33
40.09
26.80
15.76
7.74
2.78
0.30
-0.57
-0.70
-0.66
-0.65
-0.62
-0.54
-0.57
-1.14
-2.82
-6.19
-11.67
-19.40
-29.24
-40.64
-52.52
-63.22
-70.63
-72.59
-67.55
-55.14
-36.41
-13.67
10.18
32.35
50.73
64.10
72.05
74.77
72.73
66.67
57.46
46.11
33.69
21.35
10.12
0.86
-5.88
-9.98
-11.76
-11.84
-10.98
-9.77
-8.58
-7.57
-6.84
-6.58
-7.11
-8.83
-12.02
-16.85
-23.35
-31.47
-40.96
-51.20
-60.93
-68.23
-70.90
-67.12
-56.18
-38.86
-17.29
5.68
27.30
45.60
59.56
68.90
73.72
74.21
70.63
63.44
53.45
41.81
29.81
18.58
8.97
1.41
-4.01
-7.44
-9.17
-9.61
-9.23
-8.49
-7.78
-7.40
-7.54
-8.41
-10.23
-13.23
-17.66
-23.76
-31.70
-41.46
-52.58
-63.91
-73.53
-79.06
-78.30
-70.00
-54.43
-33.40
-9.74
13.54
34.03
50.32
61.89
68.83
71.46
70.10
65.17
57.19
46.91
35.27
23.31
12.04
2.27
-5.47
-10.96
-14.32
-15.95
-16.36
-16.12
-15.77
-15.69
-16.20
-17.48
-19.63
-22.68
-26.61
-31.41
-37.17
-44.06
-52.14
-61.08
-69.85
-76.63
-79.21
-75.69
-65.17
-48.27
-27.05
-4.35
17.00
34.88
48.24
56.98
61.54
62.54
60.54
56.10
49.82
42.44
34.74
27.41
20.95
15.63
11.52
8.65
6.93
6.21
6.15
6.27
6.08
5.23
3.63
1.39
-1.31
-4.40
-7.94
-12.07
-16.87
-22.32
-28.23
-34.19
-39.49
-42.90
-42.83
-37.69
-26.47
-9.40
11.85
34.50
55.37
71.69
81.53
83.84
78.16
64.47
43.36
16.33
-14.08
-44.54
-71.57
-92.41
-105.61
-111.20
-110.35
-104.74
-96.18
-86.23
-76.18
-67.00
-59.33
-53.36
-48.91
-45.54
-42.83
-40.57
-38.81
-37.85
-38.15
-40.14
-44.07
-49.61
-55.75
-60.59
-61.73
-56.94
-44.98
-26.22
-2.66
22.63
46.44
66.26
80.83
89.97
94.23
94.34
90.91
84.43
75.34
64.26
52.06
39.83
28.72
19.71
13.37
9.78
8.43
8.51
9.09
9.45
9.17
8.10
6.25
3.67
0.30
-3.94
-9.15
-15.46
-23.03
-32.01
-42.30
-53.20
-63.14
-69.83
-70.77
-64.19
-49.80
-29.09
-4.91
19.42
41.08
58.31
70.50
77.72
80.31
78.51
72.57
62.89
50.28
35.99
21.57
8.55
-1.79
-8.68
-11.95
-11.93
-9.36
-5.24
-0.59
3.67
6.77
8.11
7.27
4.06
-1.48
-9.04
-18.18
-28.51
-39.82
-52.07
-65.02
-77.68
-88.12
-93.66
-91.67
-80.64
-61.03
-35.25
-7.02
19.80
42.29
58.97
69.59
74.66
74.83
70.71
62.88
52.10
39.44
26.25
13.92
3.75
-3.33
-6.90
-7.09
-4.48
-0.01
5.25
10.31
14.37
16.90
17.61
16.43
13.48
8.99
3.27
-3.43
-10.99
-19.57
-29.44
-40.58
-52.31
-62.91
-69.78
-70.09
-61.79
-44.52
-19.96
8.47
36.70
61.15
79.51
91.02
96.00
95.31
89.90
80.64
68.45
54.46
39.96
26.24
14.32
4.87
-1.76
-5.52
-6.47
-4.91
-1.46
2.96
7.21
10.21
11.24
10.06
6.89
2.11
-3.92
-11.03
-19.23
-28.64
-39.36
-51.32
-64.07
-76.61
-87.22
-93.57
-93.23
-84.42
-66.79
-41.83
-12.62
16.87
42.93
63.01
76.03
82.32
82.91
79.01
71.61
61.44
49.22
35.95
22.92
11.61
3.25
-1.48
-2.67
-1.10
2.07
5.74
9.00
11.33
12.47
12.30
10.76
7.79
3.42
-2.20
-8.78
-15.95
-23.45
-31.29
-39.82
-49.57
-60.79
-72.78
-83.66
-90.57
-90.52
-81.64
-64.01
-39.96
-13.24
12.11
33.05
48.06
57.08
60.87
60.39
56.40
49.56
40.60
30.47
20.40
11.59
4.98
1.13
0.08
1.56
5.09
10.04
15.70
21.26
25.85
28.63
29.03
26.82
22.21
15.77
8.16
0.00
-8.38
-16.98
-26.19
-36.59
-48.66
-62.27
-76.18
-87.91
-94.10
-91.52
-78.30
-54.88
-24.13
9.36
40.70
65.98
83.09
91.73
92.85
87.90
78.31
65.50
50.96
36.38
23.45
13.58
7.54
5.25
5.91
8.40
11.67
15.07
18.30
21.33
24.01
25.96
26.51
25.02
21.19
15.32
8.28
1.22
-4.91
-9.83
-14.01
-18.64
-24.99
-34.01
-45.65
-58.70
-70.79
-78.94
-80.35
-73.29
-57.64
-35.09
-8.59
18.43
43.01
63.07
77.62
86.39
89.58
87.57
80.96
70.69
58.10
44.81
32.40
22.17
14.86
10.66
9.20
9.92
12.20
15.50
19.34
23.10
26.03
27.22
25.87
21.58
14.58
5.74
-3.66
-12.38
-19.55
-24.97
-29.11
-32.85
-37.27
-43.29
-51.35
-61.10
-71.20
-79.42
-83.08
-79.88
-68.73
-50.28
-26.86
-1.75
21.83
41.52
56.18
65.65
70.27
70.38
66.22
58.11
46.77
33.49
19.98
8.10
-0.72
-5.73
-7.07
-5.50
-2.10
2.16
6.64
11.00
15.00
18.18
19.87
19.28
15.89
9.74
1.58
-7.36
-15.85
-23.07
-28.94
-34.04
-39.34
-45.79
-53.96
-63.72
-74.02
-83.03
-88.39
-87.84
-79.98
-64.75
-43.59
-19.11
5.70
28.23
46.73
60.30
68.72
72.11
70.71
64.96
55.65
43.97
31.48
19.87
10.57
4.56
2.19
3.20
6.96
12.67
19.55
26.97
34.27
40.78
45.72
48.30
47.86
44.14
37.39
28.43
18.37
8.33
-0.89
-9.08
-16.69
-24.60
-33.79
-44.87
-57.60
-70.64
-81.68
-87.97
-87.15
-78.07
-61.28
-38.97
-14.28
9.63
30.32
46.48
57.72
64.21
66.17
63.82
57.43
47.60
35.37
22.13
9.39
-1.59
-10.04
-15.71
-18.75
-19.52
-18.39
-15.73
-11.93
-7.56
-3.41
-0.35
0.79
-0.44
-4.03
-9.46
-15.91
-22.43
-28.30
-33.20
-37.32
-41.31
-46.07
-52.51
-60.92
-70.66
-79.93
-86.12
-86.53
-79.36
-64.38
-43.30
-19.09
4.88
25.93
42.60
54.59
62.21
65.82
65.50
61.24
53.30
42.58
30.50
18.75
8.75
1.27
-3.59
-6.18
-6.92
-6.08
-3.76
-0.16
4.23
8.54
11.67
12.64
10.97
6.82
0.94
-5.69
-12.19
-18.10
-23.50
-28.90
-35.10
-42.73
-51.93
-61.94
-71.03
-76.75
-76.64
-69.08
-53.96
-32.90
-8.80
15.00
35.66
51.51
62.08
67.77
69.30
67.32
62.27
54.50
44.55
33.25
21.67
10.97
2.13
-4.21
-7.83
-8.89
-7.81
-5.27
-2.08
0.85
2.65
2.70
0.70
-3.23
-8.67
-15.08
-21.96
-29.04
-36.40
-44.40
-53.62
-64.41
-76.50
-88.55
-98.21
-102.52
-98.91
-86.17
-65.01
-38.01
-8.85
18.72
41.77
58.65
68.91
72.93
71.52
65.65
56.32
44.62
31.75
18.86
6.99
-3.04
-10.70
-15.73
-18.12
-18.13
-16.28
-13.34
-10.24
-7.86
-6.81
-7.26
-8.94
-11.33
-13.95
-16.62
-19.47
-22.99
-27.78
-34.44
-43.23
-53.87
-65.26
-75.41
-81.73
-81.69
-73.61
-57.32
-34.37
-7.59
19.65
44.32
64.29
78.42
86.42
88.56
85.46
78.05
67.44
54.94
41.91
29.61
19.13
11.33
6.78
5.71
7.91
12.67
18.85
25.00
29.57
31.33
29.57
24.26
16.01
5.87
-4.97
-15.51
-25.19
-33.96
-42.29
-50.92
-60.62
-71.70
-83.60
-94.60
-102.08
-103.09
-95.50
-78.82
-54.61
-26.11
2.74
28.45
48.80
62.94
71.16
74.31
73.23
68.72
61.52
52.54
42.83
33.54
25.69
19.98
16.59
15.34
15.75
17.34
19.67
22.40
25.07
27.05
27.53
25.76
21.42
14.84
6.91
-1.14
-8.29
-14.10
-18.97
-23.86
-29.98
-38.21
-48.60
-60.07
-70.48
-77.10
-77.40
-69.86
-54.53
-33.08
-8.31
16.64
39.04
57.03
69.65
76.63
78.16
74.72
67.07
56.31
43.80
31.02
19.29
9.61
2.50
-1.91
-3.79
-3.52
-1.60
1.44
4.94
8.21
10.51
11.16
9.75
6.16
0.71
-5.97
-13.15
-20.25
-27.03
-33.65
-40.63
-48.58
-57.93
-68.49
-79.23
-88.27
-93.16
-91.57
-82.09
-64.86
-41.67
-15.52
10.24
32.83
50.54
62.72
69.48
71.23
68.45
61.74
51.91
40.11
27.71
16.06
6.28
-0.95
-5.33
-6.90
-5.99
-3.10
1.05
5.66
9.82
12.71
13.70
12.52
9.26
4.38
-1.50
-7.73
-13.90
-20.00
-26.41
-33.79
-42.76
-53.40
-64.88
-75.32
-82.08
-82.51
-74.82
-58.80
-36.02
-9.43
17.50
41.64
60.92
74.34
81.82
83.74
80.70
73.46
62.92
50.25
36.84
24.10
13.21
4.99
-0.19
-2.37
-1.87
0.78
4.86
9.52
13.79
16.70
17.54
15.90
11.87
5.90
-1.28
-8.91
-16.44
-23.68
-30.88
-38.77
-48.19
-59.65
-72.64
-85.36
-94.84
-97.73
-91.48
-75.37
-50.87
-21.25
9.45
37.62
60.85
78.06
89.15
94.41
94.24
89.10
79.75
67.46
53.89
40.86
29.89
21.85
16.88
14.57
14.31
15.57
18.05
21.53
25.60
29.52
32.13
32.26
29.07
22.46
13.22
2.75
-7.46
-16.34
-23.66
-29.98
-36.40
-44.09
-53.83
-65.57
-78.21
-89.66
-97.08
-97.67
-89.47
-72.14
-47.25
-17.91
12.08
39.31
61.46
77.52
87.46
91.72
90.80
85.22
75.66
63.26
49.63
36.57
25.76
18.26
14.33
13.47
14.77
17.24
20.13
23.08
25.94
28.62
30.78
31.87
31.13
27.94
22.04
13.74
3.91
-6.32
-15.88
-24.16
-31.17
-37.44
-43.81
-51.16
-60.02
-70.35
-81.26
-91.00
-97.22
-97.49
-90.13
-74.80
-52.78
-26.65
0.42
25.52
46.62
62.66
73.35
78.79
79.20
74.95
66.60
55.13
41.92
28.62
16.88
7.94
2.44
0.37
1.21
4.25
8.90
14.74
21.47
28.71
35.78
41.65
45.25
45.68
42.64
36.48
28.11
18.66
9.18
0.31
-7.78
-15.39
-23.06
-31.43
-41.00
-51.86
-63.40
-74.21
-82.16
-84.97
-80.90
-69.41
-51.41
-29.04
-4.98
18.20
38.59
54.88
66.34
72.60
73.64
69.90
62.34
52.33
41.39
30.76
21.28
13.31
6.97
2.30
-0.58
-1.57
-0.63
1.92
5.48
9.21
12.18
13.64
13.14
10.56
6.16
0.34
-6.34
-13.31
-20.05
-26.26
-31.96
-37.60
-43.91
-51.73
-61.34
-72.11
-82.17
-88.79
-89.10
-81.17
-64.78
-41.61
-14.78
12.16
36.25
55.68
69.85
78.95
83.48
83.81
80.32
73.43
63.93
52.95
41.86
31.89
23.97
18.44
15.12
13.51
13.10
13.53
14.66
16.48
18.76
20.95
22.18
21.51
18.34
12.74
5.42
-2.53
-10.09
-16.74
-22.60
-28.34
-34.87
-43.00
-53.16
-65.16
-78.02
-89.90
-98.32
-100.69
-95.08
-80.99
-59.65
-33.83
-6.97
17.77
38.29
53.73
64.14
69.97
71.55
69.08
62.79
53.30
41.77
29.77
18.87
10.26
4.45
1.27
0.19
0.61
2.13
4.55
7.71
11.24
14.47
16.51
16.49
13.86
8.65
1.44
-6.83
-15.09
-22.53
-28.79
-34.02
-38.80
-43.92
-50.19
-58.11
-67.61
-77.78
-86.92
-92.72
-92.89
-85.88
-71.53
-51.24
-27.57
-3.56
18.20
36.03
49.25
57.83
61.90
61.64
57.25
49.29
38.77
27.11
15.74
5.78
-2.26
-8.38
-12.88
-15.97
-17.65
-17.69
-15.92
-12.56
-8.34
-4.40
-1.94
-1.78
-4.06
-8.22
-13.37
-18.59
-23.38
-27.74
-32.07
-36.89
-42.68
-49.62
-57.54
-65.70
-72.77
-76.92
-76.14
-68.96
-54.94
-35.01
-11.31
13.41
36.48
55.96
70.71
80.40
85.16
85.44
81.81
75.03
66.03
55.86
45.64
36.35
28.74
23.23
19.82
18.27
18.19
19.22
20.98
23.07
24.88
25.65
24.59
21.18
15.47
8.12
0.21
-7.22
-13.56
-18.86
-23.84
-29.53
-36.90
-46.29
-57.07
-67.57
-75.36
-77.90
-73.49
-61.81
-44.22
-23.21
-1.67
17.91
33.98
45.92
53.64
57.26
56.91
52.78
45.32
35.30
23.76
11.88
0.67
-9.08
-16.84
-22.34
-25.40
-26.04
-24.46
-21.11
-16.74
-12.33
-8.90
-7.26
-7.78
-10.21
-13.77
-17.34
-19.98
-21.27
-21.69
-22.52
-25.32
-31.16
-39.90
-49.87
-58.29
-62.18
-59.52
-49.96
-35.01
-17.33
0.12
14.97
25.93
32.66
35.48
34.90
31.39
25.30
16.99
6.95
-4.02
-14.82
-24.19
-30.91
-34.17
-33.81
-30.35
-24.85
-18.56
-12.54
-7.48
-3.63
-1.00
0.46
0.71
-0.39
-3.02
-7.37
-13.60
-21.89
-32.21
-44.14
-56.53
-67.40
-74.22
-74.56
-66.94
-51.40
-29.63
-4.48
20.85
43.63
62.04
75.24
83.05
85.65
83.40
76.90
66.92
54.57
41.10
27.82
15.98
6.59
0.35
-2.49
-2.17
0.55
4.55
8.57
11.51
12.62
11.64
8.69
4.13
-1.59
-8.06
-14.98
-22.30
-30.24
-39.17
-49.29
-60.08
-70.00
-76.56
-77.02
-69.36
-53.22
-30.24
-3.56
23.16
46.85
65.72
79.23
87.63
91.33
90.67
85.81
77.11
65.34
51.71
37.70
24.76
14.01
6.07
1.09
-1.18
-1.26
0.15
2.24
4.20
5.33
5.09
3.21
-0.28
-5.16
-11.06
-17.64
-24.74
-32.47
-41.22
-51.30
-62.46
-73.42
-81.83
-84.71
-79.54
-65.25
-42.83
-15.11
14.14
41.37
64.11
81.22
92.50
98.26
98.86
94.75
86.61
75.55
63.03
50.61
39.62
30.95
24.96
21.60
20.58
21.41
23.48
26.01
28.14
29.01
27.95
24.61
19.08
11.79
3.34
-5.71
-15.06
-24.73
-35.10
-46.72
-59.96
-74.57
-89.33
-101.95
-109.51
-109.30
-99.70
-80.91
-54.97
-25.21
4.64
31.44
53.07
68.58
77.80
81.04
78.83
71.95
61.46
48.73
35.30
22.57
11.64
3.14
-2.71
-5.93
-6.69
-5.30
-2.20
1.91
6.15
9.52
11.17
10.58
7.68
2.81
-3.46
-10.50
-17.83
-25.25
-32.98
-41.60
-51.79
-63.88
-77.17
-89.72
-98.48
-100.35
-93.17
-76.74
-52.88
-24.76
4.19
31.28
54.86
74.14
88.65
97.87
101.34
98.99
91.48
80.19
66.97
53.57
41.38
31.13
23.11
17.32
13.71
12.23
12.77
14.98
18.10
20.97
22.27
20.98
16.73
10.01
1.91
-6.35
-13.94
-20.81
-27.58
-35.30
-44.90
-56.84
-70.81
-85.62
-99.19
-108.84
-111.76
-105.79
-90.16
-65.95
-35.95
-3.94
26.32
51.90
71.15
83.59
89.48
89.45
84.28
74.90
62.50
48.49
34.36
21.49
10.89
3.11
-1.74
-3.86
-3.55
-1.25
2.59
7.31
12.04
15.68
17.15
15.64
10.97
3.66
-5.17
-14.22
-22.46
-29.51
-35.68
-41.93
-49.38
-59.01
-71.04
-84.61
-97.53
-106.66
-108.60
-100.81
-82.56
-55.31
-22.40
11.99
44.03
71.09
91.93
106.33
114.57
117.05
114.21
106.77
95.86
83.04
69.96
58.12
48.51
41.59
37.33
35.41
35.43
37.02
39.85
43.51
47.42
50.68
52.21
50.94
46.27
38.26
27.73
16.09
4.75
-5.25
-13.72
-21.24
-29.01
-38.37
-50.30
-64.87
-80.90
-95.87
-106.40
-109.12
-101.77
-84.05
-57.87
-26.75
5.21
34.49
58.80
77.15
89.44
95.89
96.81
92.58
83.87
71.77
57.76
43.44
30.23
19.13
10.55
4.51
0.66
-1.43
-2.13
-1.73
-0.45
1.37
3.19
4.22
3.64
0.78
-4.51
-11.75
-19.95
-27.94
-34.76
-40.08
-44.26
-48.30
-53.48
-60.96
-71.39
-84.42
-98.49
-110.86
-118.09
-116.98
-105.55
-83.86
-54.04
-19.72
15.03
46.81
73.35
93.62
107.40
114.80
116.11
111.79
102.65
89.96
75.34
60.39
46.50
34.60
25.13
18.22
13.80
11.77
11.97
13.98
17.09
20.20
22.02
21.42
17.78
11.22
2.51
-7.25
-17.02
-26.16
-34.64
-42.89
-51.68
-61.84
-73.91
-87.76
-102.17
-114.74
-122.27
-121.61
-110.76
-89.71
-60.66
-27.46
5.58
34.83
58.08
74.56
84.49
88.48
87.16
81.11
71.05
58.04
43.50
29.01
16.03
5.63
-1.59
-5.52
-6.32
-4.38
-0.21
5.47
11.68
17.27
21.09
22.20
20.13
15.02
7.51
-1.45
-10.93
-20.30
-29.47
-38.94
-49.62
-62.44
-77.63
-94.07
-109.08
-118.87
-119.65
-109.05
-87.11
-56.46
-21.51
12.97
43.18
66.92
83.55
93.29
96.70
94.34
86.94
75.57
61.73
47.12
33.33
21.51
12.31
5.97
2.47
1.68
3.37
7.06
11.95
16.93
20.67
21.87
19.66
13.84
5.02
-5.54
-16.27
-25.94
-33.97
-40.69
-47.21
-55.03
-65.40
-78.66
-93.67
-107.77
-117.25
-118.38
-108.76
-88.20
-58.95
-25.03
9.00
39.36
63.67
81.05
91.58
95.77
94.23
87.65
77.07
63.76
49.24
34.91
21.88
11.00
2.86
-2.11
-3.66
-1.93
2.40
8.01
13.15
16.06
15.45
10.87
2.83
-7.41
-18.36
-28.74
-37.87
-45.76
-53.10
-61.02
-70.62
-82.51
-96.13
-109.35
-118.56
-119.42
-108.30
-83.65
-46.89
-2.20
44.66
88.04
123.80
150.04
166.72
174.99
176.33
172.14
163.64
152.15
139.07
125.91
113.94
103.86
95.70
88.89
82.64
76.27
69.56
62.81
56.54
51.12
46.48
41.92
36.35
28.79
18.76
6.62
-6.57
-19.43
-30.76
-40.02
-47.46
-54.01
-60.94
-69.46
-80.33
-93.55
-108.06
-121.71
-131.52
-134.39
-127.96
-111.52
-86.40
-55.68
-23.27
7.06
32.55
51.63
63.76
68.97
67.64
60.47
48.53
33.40
16.92
0.95
-13.03
-24.06
-31.69
-35.83
-36.59
-34.25
-29.28
-22.54
-15.25
-8.87
-4.76
-3.80
-6.11
-11.09
-17.65
-24.65
-31.28
-37.26
-42.87
-48.77
-55.77
-64.59
-75.37
-87.36
-98.56
-105.95
-106.16
-96.56
-76.42
-47.39
-13.17
21.58
52.56
76.86
93.32
102.11
104.12
100.35
91.76
79.33
64.30
48.17
32.53
18.85
8.12
0.82
-3.07
-3.90
-2.18
1.46
6.36
11.65
16.33
19.25
19.49
16.49
10.38
1.93
-7.64
-17.09
-25.56
-32.83
-39.47
-46.57
-55.43
-66.86
-80.63
-95.00
-106.85
-112.38
-108.33
-93.13
-67.66
-35.05
0.26
33.76
61.93
82.82
95.90
101.60
100.81
94.60
84.10
70.48
55.00
38.99
23.79
10.67
0.72
-5.27
-6.99
-4.74
0.51
7.38
14.24
19.62
22.46
22.28
19.16
13.63
6.36
-1.95
-10.70
-19.55
-28.39
-37.52
-47.57
-59.27
-72.90
-87.54
-100.80
-108.98
-108.32
-96.30
-72.94
-41.07
-5.56
28.24
56.12
75.86
87.22
91.16
88.94
81.64
70.07
55.15
38.16
20.79
4.81
-8.30
-17.72
-23.23
-25.15
-24.08
-20.70
-15.83
-10.50
-5.99
-3.62
-4.45
-8.91
-16.59
-26.36
-36.83
-46.82
-55.87
-64.21
-72.71
-82.44
-94.24
-108.33
-123.81
-138.39
-148.49
-150.03
-139.61
-115.91
-80.39
-37.23
7.86
49.27
82.90
106.81
120.97
126.50
124.87
117.49
105.72
91.05
75.21
60.03
47.12
37.43
31.07
27.36
25.24
23.73
22.41
21.34
20.86
21.05
21.37
20.67
17.57
11.22
1.68
-9.91
-21.77
-32.23
-40.38
-46.42
-51.52
-57.40
-65.67
-77.14
-91.27
-105.85
-117.31
-121.51
-115.06
-96.55
-67.30
-31.03
7.25
42.71
72.02
93.63
107.55
114.42
114.97
109.75
99.46
85.30
69.06
52.98
39.17
29.12
23.42
21.71
23.06
26.30
30.42
34.80
39.02
42.77
45.58
46.74
45.42
40.95
33.11
22.38
9.88
-2.96
-14.80
-24.82
-32.94
-39.74
-46.26
-53.68
-63.03
-74.75
-88.37
-102.11
-112.95
-117.28
-111.93
-95.41
-68.68
-34.99
1.02
34.78
62.96
83.88
97.31
103.83
104.20
99.10
89.23
75.57
59.51
42.83
27.43
15.06
6.97
3.65
4.80
9.38
15.99
23.15
29.65
34.69
37.78
38.68
37.23
33.43
27.53
20.09
12.05
4.48
-1.62
-5.57
-7.09
-6.33
-3.74
-0.10
3.47
5.60
5.02
1.10
-5.63
-13.15
-18.24
-17.37
-7.72
11.82
40.20
74.26
109.21
139.56
160.03
166.49
156.87
131.63
93.81
48.36
1.14
-42.32
-77.86
-103.25
-118.12
-123.58
-121.59
-114.37
-103.93
-91.83
-79.10
-66.52
-54.72
-44.42
-36.42
-31.50
-30.10
-32.13
-36.93
-43.40
-50.35
-56.85
-62.49
-67.48
-72.62
-79.02
-87.59
-98.45
-110.43
-120.88
-126.18
-122.79
-108.52
-83.43
-50.00
-12.39
24.77
57.62
83.74
102.19
113.02
116.76
114.04
105.66
92.71
76.77
59.79
43.79
30.47
20.80
14.92
12.30
12.07
13.46
15.93
19.25
23.20
27.32
30.77
32.45
31.29
26.63
18.60
8.06
-3.59
-14.87
-24.69
-32.65
-39.12
-45.09
-51.88
-60.69
-72.21
-86.15
-100.80
-113.14
-119.35
-115.96
-101.10
-75.38
-41.85
-5.10
30.19
60.49
83.96
100.24
109.73
112.92
110.18
101.90
88.85
72.44
54.57
37.30
22.42
11.14
3.96
0.69
0.67
3.01
6.80
11.27
15.83
20.04
23.45
25.52
25.63
23.20
17.91
9.89
-0.18
-11.21
-22.06
-31.82
-40.13
-47.15
-53.43
-59.76
-66.95
-75.70
-86.38
-98.65
-110.99
-120.64
-124.09
-118.14
-101.18
-74.06
-39.95
-3.36
31.26
60.77
83.67
99.79
109.47
113.09
110.87
103.15
90.76
75.10
57.96
41.17
26.27
14.41
6.26
2.05
1.65
4.54
9.83
16.39
22.97
28.49
32.13
33.48
32.50
29.39
24.45
17.98
10.22
1.41
-8.11
-17.92
-27.54
-36.52
-44.61
-51.90
-58.74
-65.80
-73.81
-83.36
-94.38
-105.78
-115.36
-120.04
-116.81
-103.82
-81.12
-50.94
-16.99
16.64
46.56
70.76
88.49
99.84
105.15
104.78
99.11
88.80
74.88
58.72
41.88
25.91
12.19
1.88
-4.34
-6.31
-4.55
-0.11
5.65
11.49
16.57
20.44
22.96
24.00
23.28
20.47
15.40
8.25
-0.31
-9.34
-17.93
-25.50
-32.00
-37.87
-43.84
-50.66
-58.95
-68.91
-80.17
-91.49
-100.82
-105.49
-102.94
-91.50
-71.19
-43.88
-12.83
18.24
46.19
68.98
85.81
96.60
101.59
101.07
95.43
85.39
72.11
57.02
41.62
27.16
14.51
4.20
-3.47
-8.31
-10.24
-9.34
-5.99
-0.88
5.01
10.51
14.43
15.80
14.11
9.47
2.57
-5.46
-13.45
-20.54
-26.55
-31.98
-37.89
-45.54
-55.86
-68.95
-83.64
-97.41
-106.88
-108.64
-100.41
-81.89
-54.94
-23.04
9.73
39.79
64.69
83.20
95.03
100.37
99.73
93.86
83.79
70.79
56.12
40.90
26.04
12.29
0.33
-9.16
-15.56
-18.50
-18.03
-14.67
-9.40
-3.50
1.69
4.97
5.55
3.21
-1.69
-8.31
-15.61
-22.66
-28.96
-34.54
-40.08
-46.65
-55.43
-67.04
-80.96
-95.10
-106.02
-109.76
-103.20
-85.22
-57.31
-23.11
12.76
46.04
73.85
94.87
108.91
116.38
117.73
113.49
104.39
91.49
76.19
59.96
44.15
29.82
17.69
8.28
1.95
-1.05
-0.69
2.70
8.26
14.68
20.41
23.97
24.40
21.47
15.73
8.18
-0.02
-8.00
-15.39
-22.42
-29.85
-38.77
-50.13
-64.17
-79.79
-94.35
-104.13
-105.35
-95.61
-74.94
-45.98
-13.12
18.89
46.35
67.25
81.21
88.70
90.40
86.85
78.57
66.33
51.33
35.08
19.04
4.42
-7.98
-17.71
-24.45
-28.00
-28.25
-25.39
-20.02
-13.23
-6.53
-1.46
0.73
-0.55
-5.04
-11.79
-19.52
-27.09
-33.89
-40.08
-46.43
-54.08
-64.04
-76.60
-90.90
-104.69
-114.68
-117.36
-110.24
-92.75
-66.68
-35.68
-4.15
23.97
46.12
61.31
69.75
72.24
69.69
62.87
52.56
39.67
25.44
11.36
-0.95
-10.08
-15.11
-15.89
-13.04
-7.81
-1.74
3.65
7.18
8.22
6.69
2.96
-2.38
-8.70
-15.57
-22.87
-30.68
-39.27
-48.96
-60.03
-72.45
-85.49
-97.42
-105.54
-106.68
-98.29
-79.49
-51.78
-18.68
15.22
45.64
69.69
86.24
95.53
98.50
96.13
89.25
78.60
65.11
49.94
34.56
20.53
9.28
1.79
-1.51
-0.84
3.03
8.91
15.48
21.45
25.81
27.84
27.20
23.95
18.46
11.33
3.27
-5.20
-13.86
-23.10
-33.65
-46.11
-60.27
-74.57
-86.00
-90.87
-86.05
-70.28
-44.85
-13.29
19.76
50.01
74.53
92.02
102.41
106.15
103.80
96.03
83.78
68.46
51.91
36.00
22.40
12.17
5.78
3.17
3.88
7.11
11.84
16.84
20.94
23.10
22.70
19.57
13.94
6.31
-2.75
-12.70
-23.18
-34.05
-45.42
-57.62
-71.05
-85.72
-100.86
-114.62
-124.29
-127.03
-120.96
-106.02
-84.14
-58.63
-32.99
-9.86
9.61
25.41
38.03
47.73
54.26
57.11
56.01
51.35
44.21
36.07
28.37
22.25
18.43
17.27
18.90
23.20
29.69
37.46
45.14
51.15
54.07
53.09
48.32
40.64
31.40
21.90
12.89
4.41
-4.17
-13.80
-25.35
-39.08
-54.23
-68.89
-80.14
-84.79
-80.36
-66.03
-43.09
-14.71
15.07
42.44
64.79
80.96
90.85
94.94
93.71
87.66
77.39
63.92
48.71
33.43
19.69
8.71
1.17
-2.82
-3.63
-1.90
1.50
5.68
9.67
12.64
13.95
13.25
10.55
6.18
0.62
-5.68
-12.52
-20.06
-28.77
-39.16
-51.29
-64.31
-76.20
-84.06
-84.91
-76.70
-59.23
-34.35
-5.45
23.64
49.69
70.70
85.90
95.26
99.00
97.34
90.65
79.69
65.68
50.26
35.11
21.68
11.04
3.81
0.21
0.11
2.92
7.68
13.08
17.74
20.54
20.80
18.47
13.99
8.07
1.32
-5.90
-13.57
-22.01
-31.73
-43.18
-56.38
-70.53
-83.67
-92.90
-95.03
-87.53
-69.63
-42.74
-10.22
23.61
54.56
79.62
97.23
107.19
110.04
106.70
98.24
85.85
70.92
54.97
39.57
26.09
15.51
8.41
4.93
4.87
7.82
13.06
19.60
26.20
31.50
34.17
33.28
28.57
20.46
10.06
-1.21
-12.05
-21.64
-29.94
-37.68
-46.09
-56.43
-69.26
-83.83
-97.88
-107.91
-110.18
-101.99
-82.72
-54.23
-20.40
14.12
45.23
70.24
88.04
98.66
102.57
100.26
92.26
79.46
63.35
46.07
29.95
16.95
8.15
3.57
2.39
3.41
5.61
8.43
11.76
15.68
19.99
23.99
26.44
26.01
21.71
13.49
2.26
-10.33
-22.49
-32.85
-40.98
-47.31
-52.95
-59.24
-67.41
-78.15
-91.21
-105.09
-117.03
-123.45
-120.94
-107.39
-82.97
-50.22
-13.41
22.76
54.41
79.21
96.44
106.41
109.87
107.47
99.83
87.69
72.20
55.04
38.23
23.81
13.28
7.39
5.97
8.10
12.48
17.82
23.07
27.54
30.75
32.33
31.92
29.20
24.02
16.48
6.95
-3.87
-15.28
-26.59
-37.28
-47.02
-55.66
-63.28
-70.14
-76.83
-84.16
-92.91
-103.31
-114.47
-124.20
-129.26
-126.32
-113.17
-89.75
-58.36
-23.01
11.78
42.25
66.16
82.77
92.35
95.54
93.01
85.43
73.63
58.86
42.75
27.13
13.76
4.04
-1.30
-2.25
0.50
5.74
12.09
18.34
23.67
27.60
29.89
30.32
28.67
24.72
18.46
10.17
0.38
-10.19
-20.83
-30.99
-40.28
-48.39
-55.13
-60.40
-64.40
-67.70
-71.24
-76.14
-83.07
-91.61
-99.90
-104.78
-102.77
-91.29
-69.82
-40.28
-6.52
26.91
56.10
78.67
93.87
102.10
104.20
100.92
92.84
80.53
64.98
47.64
30.34
14.99
3.11
-4.50
-7.84
-7.63
-4.88
-0.60
4.41
9.60
14.50
18.54
20.92
20.83
17.56
10.87
1.17
-10.54
-22.84
-34.30
-43.84
-51.01
-56.02
-59.63
-62.84
-66.63
-71.71
-78.16
-85.28
-91.39
-93.99
-90.35
-78.29
-57.15
-28.19
5.57
40.18
71.87
97.92
117.03
129.08
134.58
134.21
128.59
118.46
104.80
89.04
72.94
58.20
46.18
37.47
31.83
28.46
26.35
24.75
23.46
22.73
22.87
23.78
24.76
24.57
21.97
16.30
7.83
-2.30
-12.61
-21.82
-29.39
-35.58
-41.30
-47.62
-55.49
-65.37
-77.11
-89.70
-101.22
-109.06
-110.49
-103.49
-87.52
-63.82
-35.25
-5.38
22.39
45.57
62.83
73.82
78.76
78.18
72.67
63.01
50.25
35.66
20.65
6.51
-5.76
-15.58
-22.80
-27.50
-29.82
-29.84
-27.63
-23.48
-18.16
-12.89
-9.21
-8.50
-11.39
-17.49
-25.50
-33.55
-40.03
-44.09
-46.05
-47.22
-49.38
-54.15
-62.39
-73.81
-86.81
-98.75
-106.50
-107.15
-98.88
-81.56
-56.88
-27.97
1.47
28.15
49.84
65.62
75.60
80.42
80.84
77.55
71.18
62.40
51.97
40.74
29.59
19.45
11.14
5.40
2.71
3.14
6.21
10.91
15.85
19.65
21.26
20.27
16.91
11.90
6.10
0.10
-5.87
-12.08
-19.12
-27.68
-38.22
-50.63
-63.81
-75.58
-82.98
-83.00
-73.65
-54.85
-28.74
0.83
29.44
53.38
70.53
80.46
83.94
82.15
76.13
66.53
53.85
38.67
21.92
4.89
-10.86
-23.83
-32.84
-37.33
-37.53
-34.38
-29.35
-24.00
-19.55
-16.54
-14.97
-14.50
-14.88
-16.20
-18.84
-23.30
-29.90
-38.78
-49.79
-62.49
-75.79
-87.57
-94.72
-93.78
-82.14
-59.42
-27.93
7.76
42.26
71.16
92.05
104.60
109.84
109.01
102.98
92.22
77.21
58.89
38.73
18.56
0.11
-15.22
-26.51
-33.34
-35.73
-34.15
-29.52
-23.13
-16.48
-10.94
-7.48
-6.36
-7.31
-9.70
-13.01
-17.11
-22.43
-29.83
-40.13
-53.68
-69.82
-86.62
-100.98
-109.28
-108.26
-96.14
-73.32
-42.44
-7.75
26.05
54.96
76.53
90.00
95.93
95.54
90.15
80.89
68.75
54.75
40.14
26.42
15.24
7.93
5.27
7.16
12.67
20.24
28.12
34.78
39.13
40.64
39.27
35.34
29.29
21.67
12.88
3.29
-6.96
-17.88
-29.63
-42.33
-55.66
-68.51
-78.77
-83.75
-80.80
-68.41
-46.93
-18.77
12.17
41.61
65.98
83.26
92.97
95.80
92.96
85.69
75.02
61.89
47.34
32.57
18.97
7.82
0.11
-3.71
-3.85
-1.01
3.70
9.00
13.66
16.60
17.09
14.80
9.89
2.89
-5.35
-13.97
-22.27
-29.91
-37.04
-44.30
-52.56
-62.48
-73.91
-85.45
-94.55
-98.10
-93.58
-80.07
-58.77
-32.65
-5.50
19.28
39.52
54.37
63.92
68.53
68.46
63.84
55.02
42.95
29.26
16.00
5.18
-1.73
-4.16
-2.42
2.45
9.00
15.62
20.85
23.51
22.95
19.15
12.71
4.73
-3.58
-11.20
-17.68
-23.13
-28.22
-33.93
-41.25
-50.79
-62.39
-74.77
-85.56
-91.74
-90.58
-80.55
-62.11
-37.61
-10.65
15.01
36.38
51.68
60.34
62.62
59.20
51.07
39.40
25.50
10.75
-3.64
-16.68
-27.60
-35.74
-40.58
-41.77
-39.34
-33.89
-26.57
-18.85
-12.07
-7.11
-4.24
-3.16
-3.38
-4.43
-6.04
-8.13
-10.60
-13.38
-16.50
-20.21
-24.96
-31.06
-38.08
-44.42
-47.34
-43.73
-31.37
-10.03
18.09
49.00
78.10
101.65
117.67
126.00
127.75
124.42
117.31
107.36
95.32
82.03
68.65
56.54
46.88
40.48
37.45
37.30
39.16
42.07
45.23
47.93
49.53
49.38
46.86
41.62
33.78
23.97
13.23
2.68
-6.87
-15.17
-22.60
-30.06
-38.62
-49.05
-61.23
-73.79
-84.19
-89.27
-86.33
-74.08
-53.26
-26.47
2.58
30.14
53.27
70.23
80.43
84.01
81.56
73.87
61.99
47.26
31.39
16.31
3.93
-4.28
-7.63
-6.42
-1.83
4.56
11.22
17.19
22.06
25.85
28.51
29.71
28.84
25.31
18.94
10.24
0.31
-9.51
-18.14
-25.15
-30.86
-36.18
-42.19
-49.75
-59.11
-69.72
-80.13
-88.16
-91.36
-87.61
-75.81
-56.43
-31.46
-4.00
22.59
45.56
63.28
75.23
81.64
82.97
79.65
72.15
61.23
48.15
34.62
22.49
13.21
7.53
5.37
6.03
8.60
12.26
16.44
20.80
24.99
28.56
30.89
31.27
29.18
24.45
17.47
9.07
0.34
-7.65
-14.19
-19.08
-22.72
-25.86
-29.51
-34.57
-41.57
-50.34
-59.83
-68.09
-72.64
-71.19
-62.46
-46.69
-25.76
-2.56
19.88
39.15
53.93
63.80
68.92
69.54
65.99
58.68
48.44
36.50
24.44
13.73
5.46
0.05
-2.67
-3.23
-2.25
-0.16
2.77
6.30
9.98
13.11
14.75
14.10
10.74
4.88
-2.70
-10.96
-18.90
-25.95
-31.95
-37.24
-42.42
-48.18
-55.12
-63.32
-72.16
-80.01
-84.58
-83.41
-74.80
-58.50
-36.07
-10.37
15.27
37.96
55.95
68.58
75.93
78.38
76.24
69.83
59.76
47.11
33.42
20.41
9.54
1.72
-2.91
-4.83
-4.81
-3.59
-1.57
1.08
4.27
7.71
10.68
12.18
11.25
7.48
1.24
-6.39
-14.03
-20.47
-25.29
-28.78
-31.92
-35.87
-41.58
-49.36
-58.69
-68.02
-75.01
-77.05
-72.00
-58.98
-38.81
-13.91
12.42
36.91
57.05
71.49
79.91
82.62
80.25
73.58
63.63
51.62
38.96
26.98
16.73
8.85
3.63
1.14
1.31
4.04
9.06
15.87
23.71
31.58
38.38
43.11
45.07
43.97
40.00
33.78
26.18
18.09
10.16
2.67
-4.54
-11.94
-20.16
-29.74
-40.79
-52.75
-64.18
-72.96
-76.75
-73.76
-63.38
-46.55
-25.52
-3.17
17.73
35.18
48.14
56.38
60.09
59.59
55.18
47.21
36.21
23.05
8.94
-4.65
-16.31
-24.93
-29.99
-31.58
-30.30
-26.92
-22.27
-16.99
-11.72
-7.19
-4.25
-3.77
-6.24
-11.57
-18.95
-27.09
-34.66
-40.79
-45.38
-49.09
-53.03
-58.31
-65.46
-74.04
-82.61
-88.86
-90.30
-85.01
-72.26
-52.87
-28.97
-3.43
20.93
41.93
58.25
69.33
75.14
75.98
72.36
65.03
55.00
43.40
31.43
20.11
10.26
2.37
-3.28
-6.62
-7.69
-6.67
-3.88
0.09
4.42
8.10
10.17
9.92
7.17
2.29
-3.88
-10.44
-16.67
-22.27
-27.39
-32.47
-38.13
-44.95
-53.21
-62.64
-72.21
-80.06
-83.81
-81.26
-71.19
-53.96
-31.55
-7.03
16.37
36.09
50.80
60.26
64.95
65.56
62.70
56.85
48.53
38.47
27.61
17.02
7.68
0.32
-4.74
-7.46
-8.06
-6.84
-4.18
-0.53
3.50
7.13
9.50
9.93
8.12
4.32
-0.76
-6.18
-11.23
-15.66
-19.79
-24.44
-30.45
-38.37
-47.98
-58.07
-66.60
-71.17
-69.77
-61.38
-46.48
-26.88
-5.21
15.80
33.94
47.89
57.14
61.73
62.03
58.51
51.73
42.44
31.48
19.81
8.35
-2.06
-10.69
-16.89
-20.20
-20.46
-17.96
-13.58
-8.59
-4.41
-2.09
-2.09
-4.18
-7.74
-12.13
-16.94
-22.08
-27.68
-33.98
-41.23
-49.63
-59.13
-69.16
-78.33
-84.48
-85.13
-78.36
-63.64
-42.28
-17.12
8.29
30.75
48.19
59.92
66.28
68.13
66.36
61.61
54.33
44.93
33.99
22.33
11.03
1.18
-6.26
-10.83
-12.54
-11.93
-9.86
-7.27
-4.96
-3.44
-3.01
-3.80
-5.86
-9.20
-13.72
-19.21
-25.52
-32.62
-40.85
-50.70
-62.32
-74.92
-86.40
-93.59
-93.19
-83.05
-63.18
-36.11
-6.03
22.57
46.27
63.46
74.23
79.52
80.40
77.45
70.88
60.93
48.29
34.25
20.49
8.68
0.04
-4.97
-6.59
-5.64
-3.12
-0.05
2.73
4.62
5.24
4.38
1.91
-2.17
-7.71
-14.44
-21.99
-30.10
-38.76
-48.34
-59.33
-71.84
-85.02
-96.73
-103.83
-103.09
-92.43
-71.88
-43.75
-12.04
18.85
45.34
65.37
78.43
85.05
86.19
82.84
75.83
65.98
54.18
41.48
29.06
18.04
9.43
3.86
1.51
2.07
4.81
8.71
12.65
15.63
16.85
15.87
12.63
7.41
0.85
-6.34
-13.50
-20.32
-26.93
-34.01
-42.49
-53.17
-66.06
-79.90
-92.03
-98.91
-97.30
-85.41
-63.73
-35.01
-3.37
27.00
52.98
72.92
86.48
93.97
95.83
92.47
84.45
72.77
58.93
44.69
31.69
21.10
13.48
8.90
7.15
7.92
10.88
15.62
21.43
27.29
31.94
34.16
33.10
28.64
21.29
12.17
2.48
-6.77
-15.18
-22.93
-30.76
-39.66
-50.45
-63.34
-77.44
-90.60
-99.70
-101.40
-93.34
-75.07
-48.43
-17.11
14.53
42.65
64.85
80.26
89.08
91.97
89.61
82.65
71.87
58.39
43.62
29.04
15.96
5.26
-2.59
-7.38
-9.20
-8.24
-4.97
-0.18
5.01
9.28
11.41
10.52
6.31
-0.85
-10.07
-20.20
-30.14
-39.16
-47.08
-54.30
-61.72
-70.23
-80.24
-91.01
-100.45
-105.48
-102.89
-90.55
-68.36
-38.46
-4.63
28.94
58.79
82.88
100.53
111.94
117.49
117.54
112.45
102.90
90.09
75.71
61.56
49.10
39.18
31.98
27.25
24.66
23.97
24.96
27.28
30.18
32.51
32.97
30.56
25.00
16.92
7.59
-1.61
-9.66
-16.36
-22.26
-28.38
-35.84
-45.38
-56.99
-69.67
-81.29
-88.97
-89.78
-81.67
-64.34
-39.62
-11.03
17.32
41.89
60.60
72.93
79.44
81.05
78.52
72.32
62.88
51.02
37.92
25.08
13.90
5.38
-0.06
-2.45
-2.19
0.17
3.93
8.24
12.07
14.38
14.35
11.66
6.60
-0.02
-7.22
-14.23
-20.78
-27.16
-34.03
-42.24
-52.51
-65.12
-79.48
-93.87
-105.47
-110.89
-107.23
-93.18
-69.74
-40.00
-8.21
21.53
46.32
64.82
76.91
83.10
83.95
79.95
71.72
60.25
46.90
33.32
21.03
11.21
4.51
1.07
0.64
2.76
6.77
11.89
17.15
21.43
23.56
22.60
18.13
10.38
0.25
-11.03
-22.17
-32.31
-41.15
-49.00
-56.61
-64.93
-74.61
-85.50
-96.23
-104.23
-106.26
-99.53
-82.83
-57.20
-25.77
7.22
37.74
62.96
81.61
93.65
99.59
100.01
95.45
86.49
74.12
59.70
44.88
31.30
20.28
12.60
8.46
7.52
9.07
12.31
16.42
20.68
24.34
26.59
26.60
23.69
17.73
9.20
-0.78
-10.85
-19.88
-27.38
-33.65
-39.63
-46.49
-55.12
-65.66
-77.07
-87.14
-92.91
-91.49
-81.00
-61.41
-34.66
-4.16
26.19
53.14
74.67
90.08
99.53
103.44
102.24
96.32
86.35
73.42
59.08
45.05
32.84
23.47
17.26
14.00
13.11
13.97
16.04
18.85
21.88
24.42
25.59
24.49
20.56
13.84
5.04
-4.68
-14.13
-22.51
-29.65
-36.07
-42.69
-50.55
-60.37
-72.23
-85.20
-97.23
-105.48
-106.92
-99.38
-82.32
-57.25
-27.29
3.67
32.09
55.51
72.75
83.58
88.23
87.04
80.45
69.18
54.41
37.87
21.56
7.38
-3.25
-9.68
-11.98
-10.90
-7.42
-2.62
2.53
7.13
10.36
11.47
9.95
5.72
-0.76
-8.54
-16.43
-23.44
-29.15
-33.79
-38.29
-43.86
-51.51
-61.47
-72.75
-83.05
-89.26
-88.34
-78.44
-59.65
-34.15
-5.58
22.14
45.84
63.73
75.33
81.01
81.43
77.23
69.02
57.57
43.96
29.52
15.72
3.92
-4.76
-9.60
-10.41
-7.60
-2.16
4.42
10.49
14.51
15.41
12.80
6.96
-1.28
-10.78
-20.43
-29.34
-37.14
-44.00
-50.62
-58.02
-67.12
-78.29
-90.68
-102.08
-109.19
-108.60
-97.98
-77.14
-48.33
-15.71
15.97
42.82
62.65
75.11
81.10
81.90
78.51
71.49
61.26
48.54
34.61
21.17
9.96
2.26
-1.38
-1.32
1.54
6.13
11.46
16.70
21.07
23.70
23.72
20.46
13.83
4.44
-6.47
-17.52
-27.72
-36.90
-45.69
-55.37
-67.20
-81.69
-98.03
-113.84
-125.56
-129.44
-122.77
-105.00
-78.07
-45.80
-12.70
17.30
41.71
59.44
70.41
74.86
73.09
65.47
52.74
36.19
17.66
-0.71
-16.71
-28.42
-34.48
-34.34
-28.36
-17.79
-4.53
9.30
21.70
31.06
36.24
36.64
32.16
23.27
11.01
-3.21
-17.87
-31.80
-44.37
-55.56
-65.71
-75.17
-83.85
-90.85
-94.41
-92.22
-82.01
-62.50
-34.05
1.11
39.28
76.29
108.63
134.15
152.27
163.45
168.49
168.03
162.41
151.91
137.21
119.63
101.02
83.44
68.62
57.54
50.31
46.36
44.79
44.76
45.62
46.78
47.55
47.04
44.28
38.52
29.71
18.53
6.25
-5.72
-16.38
-25.42
-33.30
-40.93
-49.36
-59.32
-70.92
-83.32
-94.70
-102.43
-103.67
-96.25
-79.52
-54.73
-24.79
6.52
35.62
59.84
77.75
88.92
93.57
92.17
85.44
74.32
60.15
44.56
29.34
16.17
6.32
0.41
-1.60
-0.39
3.05
7.68
12.69
17.49
21.60
24.42
25.17
23.10
17.81
9.59
-0.56
-11.15
-20.80
-28.73
-35.05
-40.65
-46.89
-54.91
-65.13
-76.76
-87.67
-94.88
-95.29
-86.76
-68.91
-43.38
-13.38
17.32
45.39
68.56
85.71
96.52
101.07
99.63
92.71
81.23
66.62
50.61
34.97
21.17
10.25
2.76
-1.19
-1.79
0.49
4.90
10.47
16.10
20.61
22.93
22.33
18.54
11.89
3.14
-6.67
-16.51
-25.63
-33.78
-41.24
-48.69
-57.07
-67.22
-79.37
-92.64
-104.90
-113.06
-113.90
-105.21
-86.68
-60.22
-29.30
2.04
30.43
53.73
71.01
82.05
86.80
85.15
77.17
63.54
45.86
26.53
8.21
-6.82
-17.22
-22.80
-24.23
-22.57
-18.81
-13.62
-7.39
-0.51
6.42
12.45
16.54
17.92
16.34
12.28
6.73
0.82
-4.63
-9.46
-14.17
-19.77
-27.36
-37.66
-50.58
-64.90
-78.29
-87.65
-89.94
-83.06
-66.65
-42.31
-13.23
16.74
44.08
66.38
82.46
92.15
95.73
93.66
86.53
75.17
60.87
45.27
30.11
16.88
6.57
-0.44
-4.23
-5.10
-3.40
0.50
6.10
12.58
18.77
23.33
25.02
23.12
17.71
9.65
0.26
-9.12
-17.59
-24.92
-31.52
-38.23
-46.03
-55.65
-67.19
-79.79
-91.42
-99.20
-100.05
-91.78
-73.92
-48.06
-17.53
13.62
41.65
64.00
79.46
87.94
90.06
86.63
78.59
66.96
52.89
37.74
22.98
9.98
-0.17
-6.96
-10.47
-11.21
-9.90
-7.16
-3.47
0.76
4.92
8.13
9.36
7.87
3.54
-2.96
-10.40
-17.45
-23.29
-27.91
-32.09
-37.11
-44.19
-54.00
-66.16
-79.07
-90.01
-95.75
-93.50
-81.88
-61.53
-35.08
-6.31
20.92
43.73
60.68
71.53
76.70
76.67
71.74
62.20
48.61
32.06
14.16
-3.28
-18.55
-30.34
-37.89
-40.94
-39.70
-34.72
-26.92
-17.60
-8.33
-0.69
4.09
5.45
3.66
-0.33
-5.33
-10.44
-15.31
-20.25
-26.01
-33.45
-43.09
-54.64
-66.75
-76.96
-82.17
-79.56
-67.60
-46.79
-19.75
9.53
36.89
59.17
74.77
83.54
86.21
83.75
77.06
66.91
54.12
39.78
25.18
11.74
0.74
-6.84
-10.47
-10.23
-6.77
-1.31
4.70
9.80
12.96
13.70
12.16
8.80
4.20
-1.22
-7.23
-13.79
-20.96
-28.95
-38.08
-48.65
-60.59
-72.88
-83.31
-88.75
-86.05
-73.34
-50.99
-21.81
9.81
39.23
62.95
79.27
88.19
90.72
88.06
81.20
70.84
57.64
42.55
26.85
12.09
-0.20
-8.81
-13.10
-13.19
-9.84
-4.29
1.97
7.51
11.18
12.33
10.75
6.72
0.76
-6.50
-14.50
-22.81
-31.16
-39.50
-48.18
-57.78
-68.83
-81.17
-93.36
-102.58
-105.24
-98.30
-80.63
-53.75
-21.49
11.33
40.42
63.12
78.55
87.09
89.47
86.40
78.51
66.72
52.41
37.43
23.62
12.45
4.64
0.27
-1.06
0.14
3.33
7.98
13.32
18.35
21.77
22.38
19.45
13.05
4.07
-6.01
-15.75
-24.21
-31.31
-37.70
-44.46
-52.59
-62.61
-74.15
-85.88
-95.48
-100.15
-97.34
-85.57
-65.14
-38.26
-8.52
20.15
44.51
62.63
73.99
79.00
78.50
73.37
64.49
52.93
40.08
27.49
16.67
8.74
4.18
2.85
4.17
7.39
11.82
16.84
21.87
26.19
28.90
29.10
26.16
20.11
11.68
2.20
-6.87
-14.45
-20.22
-24.65
-28.83
-34.00
-41.16
-50.62
-61.71
-72.69
-80.91
-83.46
-78.01
-63.69
-41.56
-14.42
13.94
39.87
60.71
75.21
83.28
85.47
82.49
74.98
63.65
49.50
33.94
18.71
5.57
-4.08
-9.48
-10.56
-7.90
-2.47
4.57
11.96
18.54
23.26
25.27
24.12
19.84
12.99
4.52
-4.44
-12.96
-20.55
-27.33
-33.94
-41.37
-50.49
-61.49
-73.37
-83.77
-89.45
-87.26
-75.37
-54.09
-26.02
4.79
34.07
58.49
76.31
87.20
91.64
90.37
84.09
73.53
59.68
43.92
27.93
13.40
1.77
-6.06
-9.84
-9.91
-7.10
-2.37
3.23
8.74
13.20
15.64
15.22
11.44
4.45
-4.97
-15.49
-25.77
-34.94
-42.89
-50.28
-58.28
-68.03
-80.00
-93.50
-106.37
-115.28
-116.62
-107.67
-87.80
-58.85
-24.77
9.73
40.43
64.69
81.50
91.06
94.09
91.29
83.38
71.28
56.43
40.66
25.91
13.82
5.37
0.83
-0.19
1.63
5.53
10.80
16.73
22.47
26.97
29.08
27.83
22.78
14.28
3.30
-8.68
-20.26
-30.45
-38.96
-46.20
-53.20
-61.23
-71.32
-83.56
-96.60
-107.48
-112.38
-107.77
-91.88
-65.61
-32.42
2.79
35.31
61.89
81.21
93.48
99.44
99.72
94.56
84.32
70.00
53.46
37.15
23.43
13.89
8.95
8.00
9.83
13.26
17.51
22.24
27.22
32.04
35.81
37.34
35.50
29.81
20.70
9.47
-2.21
-12.83
-21.60
-28.64
-34.83
-41.46
-49.75
-60.41
-73.24
-86.80
-98.44
-104.80
-102.71
-90.37
-68.12
-38.58
-5.88
25.60
52.46
72.90
86.57
93.94
95.58
91.86
83.10
70.05
54.16
37.54
22.39
10.45
2.57
-1.42
-2.30
-0.99
1.88
6.02
11.26
17.14
22.70
26.56
27.34
24.23
17.31
7.60
-3.39
-14.10
-23.52
-31.37
-38.08
-44.55
-51.77
-60.52
-71.02
-82.64
-93.62
-101.31
-102.74
-95.56
-79.00
-54.30
-24.53
6.35
34.57
57.51
73.93
83.77
87.59
86.09
79.97
69.97
57.07
42.54
27.86
14.52
3.77
-3.50
-6.91
-6.53
-2.87
3.22
10.66
18.23
24.68
28.92
30.18
28.16
23.11
15.78
7.20
-1.67
-10.14
-18.06
-25.83
-34.29
-44.39
-56.67
-70.63
-84.41
-94.88
-98.49
-92.42
-75.77
-50.10
-18.94
13.22
42.35
65.79
82.43
92.34
96.07
94.26
87.46
76.38
62.07
46.00
29.85
15.21
3.36
-4.96
-9.50
-10.44
-8.24
-3.62
2.47
8.81
14.03
16.84
16.38
12.49
5.78
-2.53
-11.17
-19.25
-26.56
-33.63
-41.47
-51.23
-63.62
-78.39
-93.95
-107.32
-114.72
-112.64
-99.12
-74.59
-41.91
-5.57
29.68
60.06
83.37
98.89
106.86
107.97
103.08
93.26
79.87
64.55
48.97
34.56
22.40
13.12
6.98
3.97
3.83
6.03
9.81
14.16
17.93
20.00
19.48
16.02
9.84
1.75
-7.20
-16.04
-24.24
-31.85
-39.45
-47.91
-58.11
-70.50
-84.58
-98.65
-109.76
-114.37
-109.45
-93.67
-68.14
-36.25
-2.61
28.42
53.84
72.48
84.54
90.81
91.91
88.19
79.95
67.88
53.34
38.15
24.19
12.90
5.01
0.46
-1.23
-0.68
1.64
5.37
10.06
14.89
18.65
19.98
17.88
12.12
3.44
-6.71
-16.77
-25.62
-33.02
-39.59
-46.57
-55.30
-66.68
-80.56
-95.42
-108.42
-115.98
-114.79
-102.98
-80.89
-51.10
-17.59
15.47
44.75
68.31
85.38
95.89
99.96
97.88
90.25
78.20
63.41
47.84
33.31
21.17
12.16
6.45
3.87
4.01
6.35
10.29
15.25
20.57
25.56
29.49
31.60
31.30
28.29
22.76
15.41
7.20
-0.92
-8.41
-15.38
-22.54
-31.00
-41.62
-54.31
-67.60
-78.69
-84.17
-81.14
-68.41
-47.05
-20.11
8.45
34.97
57.01
73.55
84.50
90.16
90.63
85.95
76.36
62.71
46.54
29.81
14.48
2.11
-6.47
-11.07
-12.06
-10.11
-6.08
-0.95
4.25
8.52
10.99
11.14
8.88
4.55
-1.25
-7.80
-14.54
-21.22
-28.00
-35.45
-44.36
-55.29
-67.98
-80.88
-91.14
-95.26
-90.32
-75.14
-51.00
-21.35
9.31
36.84
58.56
73.57
82.28
85.62
84.32
78.75
69.09
55.77
39.80
22.83
6.83
-6.32
-15.25
-19.46
-19.34
-15.98
-10.87
-5.55
-1.26
1.18
1.42
-0.53
-4.40
-9.76
-16.14
-23.13
-30.52
-38.42
-47.31
-57.88
-70.48
-84.58
-98.28
-108.38
-111.16
-103.67
-84.94
-56.66
-22.67
12.11
43.23
67.79
84.70
94.24
97.28
94.69
87.14
75.36
60.46
43.96
27.71
13.50
2.72
-3.94
-6.48
-5.44
-1.78
3.36
8.76
13.25
15.84
15.81
12.90
7.34
-0.19
-8.75
-17.46
-25.73
-33.56
-41.58
-50.85
-62.35
-76.29
-91.39
-104.80
-112.60
-111.02
-97.92
-73.74
-41.55
-6.10
27.73
56.19
77.33
90.77
97.00
96.78
90.84
80.08
65.83
49.88
34.24
20.73
10.56
4.20
1.56
2.13
5.26
10.20
16.05
21.76
26.22
28.42
27.76
24.15
18.03
10.14
1.36
-7.63
-16.40
-24.86
-33.33
-42.41
-52.80
-64.76
-77.60
-89.33
-96.88
-96.91
-87.02
-66.81
-38.23
-5.16
27.80
56.70
79.06
94.03
101.92
103.50
99.52
90.63
77.68
62.04
45.62
30.59
18.81
11.33
8.18
8.50
11.09
14.85
19.03
23.23
27.10
30.08
31.35
30.06
25.67
18.31
8.77
-1.64
-11.66
-20.45
-27.93
-34.72
-41.95
-50.74
-61.65
-74.26
-86.82
-96.54
-100.21
-95.28
-80.80
-57.86
-29.42
0.64
28.64
51.97
69.36
80.60
85.95
85.73
80.28
70.20
56.65
41.40
26.55
14.00
4.91
-0.46
-2.70
-2.79
-1.61
0.40
3.15
6.62
10.47
13.85
15.54
14.43
10.06
2.88
-5.87
-14.68
-22.39
-28.58
-33.73
-38.91
-45.34
-53.84
-64.42
-75.99
-86.43
-92.97
-92.89
-84.41
-67.39
-43.42
-15.48
12.93
38.72
59.75
74.97
84.10
87.30
84.90
77.53
66.18
52.28
37.56
23.76
12.33
4.13
-0.57
-1.95
-0.51
3.09
8.09
13.59
18.57
21.93
22.72
20.38
14.96
7.15
-1.98
-11.30
-19.95
-27.64
-34.62
-41.55
-49.34
-58.73
-69.90
-82.04
-93.12
-100.16
-100.05
-90.60
-71.45
-44.46
-13.19
18.22
46.18
68.44
84.16
93.38
96.49
93.85
85.86
73.29
57.62
40.91
25.53
13.48
5.88
2.78
3.25
5.94
9.58
13.34
16.91
20.22
23.06
24.91
24.87
22.03
15.92
6.86
-4.10
-15.44
-25.80
-34.43
-41.45
-47.65
-54.19
-62.09
-71.97
-83.62
-95.90
-106.64
-112.89
-111.63
-100.78
-80.08
-51.50
-18.77
13.73
42.32
64.78
80.46
89.74
93.25
91.44
84.65
73.46
59.04
43.24
28.27
16.23
8.52
5.58
6.83
11.02
16.60
22.22
27.04
30.68
33.08
34.21
33.90
31.78
27.53
21.01
12.49
2.59
-7.81
-17.83
-26.78
-34.26
-40.30
-45.28
-49.91
-55.07
-61.62
-70.04
-79.96
-89.93
-97.44
-99.46
-93.45
-78.26
-54.73
-25.57
5.48
34.68
59.24
77.66
89.60
95.42
95.68
90.98
82.01
69.70
55.36
40.69
27.47
17.30
11.22
9.41
11.20
15.32
20.33
25.06
28.84
31.52
33.18
33.88
33.44
31.46
27.50
21.34
13.18
3.73
-6.09
-15.31
-23.27
-29.78
-35.12
-39.81
-44.55
-49.91
-56.32
-63.91
-72.26
-80.17
-85.60
-86.08
-79.39
-64.55
-42.31
-15.16
13.37
39.81
61.62
77.52
87.36
91.62
90.86
85.67
76.70
64.83
51.26
37.44
24.81
14.58
7.48
3.68
2.80
4.10
6.70
9.88
13.23
16.57
19.71
22.23
23.34
22.12
17.93
10.77
1.45
-8.65
-18.13
-26.04
-32.26
-37.34
-42.13
-47.49
-53.86
-61.32
-69.56
-77.88
-85.18
-89.90
-90.23
-84.53
-71.98
-53.05
-29.54
-4.22
19.92
40.48
56.05
66.22
71.26
71.66
67.88
60.43
49.89
37.20
23.60
10.54
-0.65
-9.02
-14.16
-16.18
-15.57
-12.96
-8.99
-4.23
0.70
5.09
8.19
9.32
8.06
4.48
-0.91
-7.26
-13.74
-19.76
-25.16
-30.26
-35.63
-41.97
-49.81
-59.28
-69.80
-79.91
-87.31
-89.39
-84.04
-70.53
-49.93
-24.90
1.13
25.07
44.83
59.56
69.23
74.09
74.25
69.75
60.86
48.35
33.58
18.22
3.90
-8.19
-17.41
-23.66
-27.10
-28.02
-26.68
-23.44
-18.95
-14.29
-10.86
-10.03
-12.65
-18.59
-26.81
-35.72
-43.87
-50.40
-55.38
-59.51
-63.78
-69.12
-76.06
-84.48
-93.49
-101.24
-105.17
-102.57
-91.46
-71.35
-43.71
-11.56
21.31
51.40
76.15
94.27
105.46
110.00
108.54
101.91
91.17
77.63
62.73
47.91
34.38
23.09
14.62
9.26
7.04
7.75
10.87
15.56
20.74
25.16
27.72
27.64
24.76
19.41
12.34
4.37
-3.78
-11.74
-19.47
-27.32
-35.91
-45.91
-57.64
-70.52
-82.80
-91.67
-94.06
-87.65
-71.91
-48.44
-20.45
8.15
33.94
54.72
69.60
78.60
82.17
80.83
75.08
65.60
53.37
39.71
26.08
13.93
4.35
-2.07
-5.22
-5.44
-3.25
0.73
5.81
11.17
15.80
18.55
18.50
15.25
9.16
1.31
-6.99
-14.62
-21.17
-27.01
-33.03
-40.23
-49.31
-60.26
-72.16
-83.16
-90.79
-92.47
-86.30
-71.78
-50.07
-23.71
4.01
30.01
52.02
68.76
79.78
85.16
85.20
80.44
71.71
60.12
46.98
33.66
21.37
11.11
3.57
-0.91
-2.36
-1.11
2.22
6.79
11.70
16.07
19.08
20.05
18.58
14.65
8.66
1.34
-6.36
-13.68
-20.16
-25.91
-31.53
-37.91
-45.90
-55.78
-66.95
-77.63
-85.23
-87.01
-81.02
-66.82
-45.80
-20.73
5.11
28.86
48.70
63.80
74.04
79.49
80.18
76.17
67.87
56.24
42.79
29.26
17.23
7.82
1.57
-1.51
-1.76
0.29
4.01
8.67
13.44
17.45
19.89
20.19
18.14
13.98
8.32
1.90
-4.61
-10.83
-16.79
-22.93
-29.88
-38.27
-48.33
-59.44
-70.03
-77.66
-79.68
-74.16
-60.67
-40.55
-16.59
7.93
30.20
48.48
62.10
71.07
75.56
75.65
71.43
63.25
51.93
38.74
25.22
12.86
2.89
-3.89
-7.20
-7.28
-4.82
-0.82
3.62
7.50
10.06
10.88
9.82
6.95
2.54
-3.02
-9.27
-15.88
-22.82
-30.52
-39.64
-50.71
-63.35
-75.89
-85.41
-88.59
-82.88
-67.68
-44.66
-17.29
10.44
35.15
54.87
68.97
77.62
81.19
79.96
74.22
64.48
51.70
37.25
22.64
9.37
-1.37
-8.75
-12.40
-12.50
-9.74
-5.26
-0.37
3.66
5.94
6.03
3.92
-0.09
-5.50
-11.84
-18.69
-25.78
-33.18
-41.24
-50.58
-61.58
-73.97
-86.25
-95.80
-99.43
-94.53
-80.15
-57.45
-29.52
-0.27
26.63
48.70
64.79
74.78
79.08
78.18
72.66
63.29
51.20
37.83
24.73
13.34
4.74
-0.47
-2.15
-0.62
3.48
9.14
15.18
20.38
23.73
24.63
22.97
19.12
13.72
7.44
0.75
-6.10
-13.21
-20.90
-29.64
-39.76
-51.11
-62.61
-72.15
-77.01
-74.67
-63.74
-44.68
-19.78
7.62
34.01
56.63
73.89
85.15
90.45
90.11
84.70
75.08
62.46
48.36
34.31
21.67
11.43
4.22
0.24
-0.64
1.16
4.95
9.83
14.80
18.87
21.20
21.25
18.83
14.20
7.86
0.46
-7.49
-15.67
-24.07
-32.87
-42.41
-52.96
-64.45
-76.14
-86.40
-92.89
-93.01
-84.89
-68.18
-44.48
-16.97
10.48
34.50
53.01
65.52
72.53
74.95
73.44
68.29
59.75
48.43
35.55
22.84
12.04
4.40
0.36
-0.41
1.31
4.68
9.00
13.68
18.03
21.18
22.22
20.50
15.92
9.14
1.26
-6.58
-13.66
-19.95
-25.99
-32.68
-40.80
-50.57
-61.39
-71.73
-79.39
-82.03
-77.80
-66.00
-47.37
-24.01
1.17
25.16
45.47
60.59
69.95
73.81
72.85
67.93
59.84
49.40
37.34
24.62
12.45
2.23
-4.70
-7.47
-5.99
-1.09
5.63
12.26
17.16
19.35
18.67
15.62
10.94
5.33
-0.83
-7.39
-14.34
-21.75
-29.79
-38.77
-49.07
-60.73
-72.97
-83.86
-90.51
-89.92
-80.18
-61.34
-35.62
-6.70
21.47
45.73
64.32
76.75
83.31
84.53
80.98
73.28
62.35
49.44
36.11
23.88
14.02
7.26
3.73
3.12
4.80
8.06
12.21
16.53
20.17
22.18
21.67
18.10
11.56
2.82
-6.90
-16.39
-24.90
-32.35
-39.32
-46.76
-55.60
-66.41
-78.94
-91.88
-102.86
-108.80
-106.86
-95.36
-74.59
-46.87
-15.89
14.40
40.83
61.60
76.15
84.60
87.31
84.66
77.19
65.87
52.25
38.28
25.89
16.51
10.80
8.59
9.09
11.35
14.56
18.25
22.18
26.06
29.32
31.06
30.28
26.31
19.20
9.82
-0.44
-10.13
-18.33
-24.98
-30.78
-36.94
-44.64
-54.64
-66.80
-79.97
-91.91
-99.73
-100.60
-92.68
-75.81
-51.75
-23.65
4.87
30.70
51.91
67.74
78.13
83.31
83.48
78.88
70.07
58.15
44.73
31.60
20.40
12.24
7.52
5.98
6.96
9.69
13.54
18.04
22.82
27.34
30.75
32.03
30.28
25.11
16.92
6.83
-3.65
-13.19
-21.09
-27.41
-32.91
-38.70
-45.87
-55.13
-66.39
-78.56
-89.45
-96.17
-95.91
-86.88
-69.09
-44.43
-16.18
12.09
37.47
58.21
73.72
83.95
89.04
89.12
84.41
75.59
63.87
50.88
38.27
27.32
18.75
12.74
9.09
7.50
7.76
9.68
13.04
17.28
21.52
24.65
25.61
23.77
19.12
12.29
4.28
-3.98
-11.82
-19.05
-25.84
-32.59
-39.79
-47.93
-57.32
-67.93
-78.99
-88.80
-94.91
-94.76
-86.61
-70.33
-47.54
-21.22
5.33
29.36
49.18
64.06
73.89
78.69
78.53
73.67
64.76
52.93
39.64
26.43
14.61
5.11
-1.52
-5.15
-5.99
-4.45
-1.14
3.25
7.92
12.02
14.70
15.22
13.20
8.75
2.46
-4.73
-11.87
-18.39
-24.23
-29.85
-36.04
-43.60
-52.95
-63.81
-74.88
-83.91
-88.19
-85.25
-73.91
-54.78
-30.25
-3.71
21.46
42.82
59.19
70.45
76.97
79.14
77.19
71.28
61.85
49.73
36.20
22.71
10.66
1.16
-5.19
-8.29
-8.47
-6.37
-2.83
1.26
5.02
7.64
8.49
7.23
3.97
-0.84
-6.47
-12.24
-17.80
-23.31
-29.50
-37.32
-47.43
-59.48
-71.75
-81.33
-84.89
-79.92
-65.65
-43.52
-16.70
11.02
36.30
57.05
72.43
82.48
87.58
88.07
84.26
76.57
65.69
52.61
38.56
24.84
12.66
3.04
-3.39
-6.48
-6.56
-4.46
-1.28
1.80
3.76
3.98
2.22
-1.27
-6.03
-11.54
-17.44
-23.67
-30.60
-38.86
-49.16
-61.77
-75.90
-89.52
-99.45
-102.20
-95.25
-78.04
-52.35
-21.83
9.21
37.08
59.52
75.72
85.86
90.45
90.00
84.98
75.98
63.91
49.96
35.49
21.81
10.09
1.19
-4.37
-6.50
-5.65
-2.69
1.21
4.81
7.12
7.54
5.94
2.52
-2.30
-8.12
-14.68
-21.94
-30.17
-39.83
-51.37
-64.73
-78.89
-91.63
-99.87
-100.46
-91.38
-72.56
-46.09
-15.60
14.86
41.87
63.34
78.47
87.34
90.41
88.26
81.56
71.14
58.09
43.66
29.21
16.11
5.56
-1.55
-4.81
-4.47
-1.37
3.18
7.81
11.38
13.20
13.09
11.19
7.82
3.32
-2.07
-8.17
-14.98
-22.68
-31.64
-42.22
-54.36
-67.13
-78.51
-85.65
-85.64
-76.57
-58.34
-32.86
-3.47
26.05
52.51
73.85
89.16
98.31
101.49
99.00
91.38
79.55
64.87
49.02
33.74
20.46
10.17
3.30
-0.13
-0.50
1.56
5.22
9.50
13.41
16.07
16.88
15.60
12.38
7.57
1.66
-4.97
-12.02
-19.47
-27.61
-36.97
-48.00
-60.62
-73.70
-84.94
-91.26
-89.85
-79.36
-60.52
-36.01
-9.56
15.34
36.32
52.41
63.57
70.01
71.79
68.82
61.26
49.82
35.90
21.28
7.67
-3.66
-12.05
-17.32
-19.58
-19.16
-16.53
-12.48
-8.03
-4.42
-2.68
-3.32
-6.19
-10.62
-15.77
-21.05
-26.42
-32.41
-39.82
-49.37
-61.29
-74.93
-88.61
-99.69
-105.17
-102.50
-90.52
-69.93
-43.19
-13.88
14.39
38.75
57.55
70.16
76.69
77.61
73.49
65.08
53.24
39.10
23.91
8.99
-4.46
-15.48
-23.58
-28.87
-31.95
-33.74
-35.13
-36.76
-38.95
-41.91
-45.91
-51.34
-58.50
-67.22
-76.64
-85.33
-91.90
-95.66
-96.88
-96.36
-94.59
-90.98
-83.73
-70.72
-50.70
-24.32
5.84
36.06
62.89
84.14
99.18
108.49
112.83
112.74
108.42
100.09
88.30
74.22
59.48
45.79
34.70
27.17
23.46
23.09
25.07
28.15
31.17
33.25
33.95
33.15
30.90
27.23
22.17
15.75
8.04
-0.90
-11.15
-23.03
-36.86
-52.44
-68.43
-82.13
-89.92
-88.45
-75.99
-53.38
-23.86
7.91
37.40
61.41
78.55
88.91
93.19
92.17
86.38
76.35
62.88
47.22
31.03
15.98
3.56
-5.27
-10.06
-10.93
-8.50
-3.70
2.25
8.04
12.42
14.39
13.42
9.57
3.38
-4.28
-12.60
-21.09
-29.70
-38.87
-49.25
-61.28
-74.70
-88.08
-98.86
-103.77
-99.89
-85.70
-61.86
-31.13
2.31
34.21
61.23
81.56
94.77
101.25
101.68
96.81
87.49
74.87
60.44
45.89
32.78
22.32
15.17
11.54
11.27
13.95
18.95
25.35
31.98
37.48
40.57
40.36
36.64
29.95
21.36
12.10
3.18
-4.92
-12.34
-19.69
-27.93
-37.99
-50.28
-64.28
-78.13
-88.79
-92.78
-87.29
-71.30
-46.16
-15.32
16.79
46.03
69.59
86.30
96.23
100.06
98.49
92.14
81.64
67.94
52.46
36.94
23.12
12.39
5.43
2.24
2.19
4.42
8.09
12.49
16.97
20.81
23.08
22.84
19.40
12.71
3.48
-6.99
-17.26
-26.30
-33.83
-40.35
-46.96
-54.89
-64.99
-77.14
-90.01
-101.00
-106.89
-104.73
-92.99
-72.21
-44.95
-15.00
13.84
38.66
57.94
71.26
78.75
80.66
77.20
68.84
56.51
41.67
26.18
11.90
0.34
-7.52
-11.32
-11.28
-8.02
-2.42
4.48
11.58
17.77
21.96
23.28
21.26
16.03
8.35
-0.59
-9.51
-17.58
-24.61
-31.21
-38.51
-47.69
-59.39
-73.08
-86.75
-97.22
-100.87
-94.96
-78.62
-53.36
-22.61
9.40
38.88
63.28
81.48
93.27
98.86
98.46
92.39
81.36
66.71
50.33
34.32
20.50
10.03
3.28
0.00
-0.39
1.50
5.18
10.12
15.57
20.36
23.06
22.43
17.91
9.95
-0.13
-10.66
-20.29
-28.46
-35.49
-42.37
-50.27
-60.23
-72.68
-87.08
-101.60
-113.14
-117.95
-112.80
-96.16
-69.04
-34.89
1.52
35.52
63.81
84.82
98.40
105.03
105.20
99.35
88.13
72.81
55.32
38.01
23.02
11.81
4.88
1.83
1.80
3.81
7.14
11.38
16.22
21.09
25.04
26.80
25.18
19.56
10.24
-1.52
-14.00
-25.54
-35.14
-42.80
-49.40
-56.42
-65.38
-77.20
-91.64
-106.95
-119.89
-126.55
-123.45
-108.82
-83.36
-50.13
-13.60
21.69
52.32
76.44
93.53
103.74
107.32
104.47
95.65
81.93
65.14
47.67
31.88
19.57
11.62
7.90
7.60
9.66
13.13
17.39
22.05
26.75
30.88
33.52
33.60
30.24
23.19
13.02
1.05
-11.14
-22.22
-31.53
-39.24
-46.11
-53.23
-61.61
-71.93
-84.08
-96.94
-108.16
-114.51
-112.76
-100.75
-78.44
-48.11
-13.78
20.08
49.84
73.45
90.35
100.82
105.22
103.73
96.48
84.08
67.93
50.23
33.53
20.09
11.25
7.22
7.18
9.75
13.57
17.70
21.77
25.72
29.48
32.51
33.87
32.44
27.44
18.86
7.67
-4.56
-16.14
-25.92
-33.61
-39.83
-45.71
-52.49
-61.06
-71.73
-84.00
-96.38
-106.46
-111.27
-108.03
-95.14
-72.85
-43.49
-10.81
21.10
48.94
70.82
86.21
95.30
98.47
95.93
87.89
74.94
58.40
40.27
22.89
8.37
-1.89
-7.57
-9.23
-7.95
-4.88
-0.77
3.94
8.98
13.83
17.50
18.77
16.62
10.86
2.29
-7.43
-16.57
-23.97
-29.53
-34.11
-39.00
-45.37
-53.81
-64.18
-75.66
-86.70
-95.13
-98.44
-94.30
-81.39
-60.06
-32.45
-2.00
27.53
53.02
72.63
85.71
92.48
93.46
89.24
80.49
68.10
53.28
37.49
22.27
9.06
-1.04
-7.41
-9.99
-9.18
-5.77
-0.79
4.68
9.56
12.82
13.63
11.52
6.57
-0.58
-8.85
-17.12
-24.59
-31.13
-37.29
-44.18
-52.97
-64.46
-78.35
-92.93
-105.11
-111.09
-107.57
-92.95
-68.08
-36.12
-1.55
31.18
58.77
79.50
92.99
99.52
99.66
94.01
83.41
69.08
52.58
35.63
19.82
6.40
-3.80
-10.35
-13.15
-12.46
-8.85
-3.16
3.49
9.75
14.28
15.93
14.08
8.82
0.93
-8.32
-17.64
-26.10
-33.49
-40.33
-47.68
-56.80
-68.54
-82.77
-97.77
-110.31
-116.30
-112.04
-95.72
-68.30
-33.41
3.80
38.30
66.56
87.03
99.76
105.56
105.26
99.44
88.73
74.11
57.17
39.88
24.16
11.44
2.48
-2.64
-4.28
-2.98
0.72
6.16
12.46
18.43
22.67
23.90
21.39
15.25
6.45
-3.55
-13.30
-21.92
-29.37
-36.40
-44.27
-54.26
-66.98
-81.86
-96.77
-108.25
-112.42
-106.14
-88.30
-60.39
-26.16
9.57
42.32
68.96
88.16
99.86
104.64
103.19
96.19
84.45
69.23
52.19
35.22
20.03
7.88
-0.56
-5.17
-6.21
-4.16
0.35
6.47
13.10
18.91
22.55
22.96
19.69
13.05
3.97
-6.24
-16.31
-25.40
-33.26
-40.31
-47.50
-56.10
-67.07
-80.44
-94.70
-106.74
-112.55
-108.57
-93.11
-67.17
-34.24
0.86
33.53
60.54
80.46
93.20
99.28
99.19
93.33
82.30
67.27
50.05
32.83
17.64
5.92
-1.82
-5.80
-6.62
-4.95
-1.24
4.08
10.38
16.61
21.28
22.91
20.54
14.25
5.14
-5.07
-14.74
-22.93
-29.71
-35.97
-42.98
-51.87
-63.15
-76.28
-89.52
-100.02
-104.43
-99.88
-85.08
-60.90
-30.36
2.27
32.78
58.10
76.71
88.41
93.67
93.04
87.02
76.19
61.52
44.49
26.96
10.80
-2.45
-11.81
-16.94
-18.02
-15.65
-10.70
-4.22
2.60
8.49
12.33
13.33
11.22
6.34
-0.51
-8.33
-16.22
-23.67
-30.70
-37.89
-46.17
-56.44
-68.85
-82.23
-93.93
-100.27
-97.78
-84.50
-60.99
-30.34
2.88
34.07
59.90
78.88
90.97
96.81
97.01
91.91
81.87
67.59
50.42
32.27
15.20
0.99
-9.14
-14.71
-15.90
-13.40
-8.25
-1.76
4.67
9.69
12.28
11.88
8.55
2.86
-4.32
-12.14
-20.07
-28.01
-36.41
-46.02
-57.61
-71.37
-86.34
-100.07
-108.98
-109.31
-98.45
-76.17
-44.83
-8.77
27.09
58.60
83.19
99.88
108.81
110.57
105.96
95.88
81.54
64.51
46.55
29.44
14.69
3.43
-3.74
-6.72
-5.92
-2.22
3.14
8.71
13.07
15.12
14.24
10.45
4.30
-3.41
-11.85
-20.52
-29.25
-38.28
-48.17
-59.64
-73.27
-88.89
-104.99
-118.57
-125.57
-122.18
-106.28
-78.60
-42.67
-3.82
32.54
62.37
83.71
96.43
101.42
99.87
92.80
81.22
66.30
49.60
32.91
18.00
6.29
-1.43
-5.01
-4.87
-1.74
3.47
9.83
16.31
21.83
25.33
25.94
23.20
17.28
8.95
-0.66
-10.43
-19.57
-27.92
-36.04
-44.97
-55.78
-68.88
-83.28
-96.34
-104.25
-103.20
-90.82
-67.25
-35.27
0.58
35.50
65.69
89.04
104.84
113.25
114.66
109.48
98.42
82.82
64.65
46.27
29.88
17.02
8.34
3.67
2.31
3.48
6.49
10.78
15.73
20.50
23.98
25.03
22.80
17.13
8.62
-1.57
-12.15
-22.15
-31.15
-39.41
-47.63
-56.76
-67.58
-80.24
-93.87
-106.32
-114.49
-115.10
-105.85
-86.34
-58.44
-25.79
7.31
37.09
61.13
78.40
88.85
92.83
90.79
83.26
71.13
55.88
39.44
23.87
10.94
1.82
-3.11
-4.12
-1.88
2.69
8.58
14.76
20.13
23.67
24.61
22.56
17.69
10.63
2.30
-6.32
-14.48
-21.86
-28.65
-35.60
-43.71
-53.85
-66.06
-79.05
-90.12
-95.75
-92.72
-79.42
-56.53
-27.01
4.94
35.13
60.54
79.60
92.01
97.97
97.81
91.90
80.90
66.10
49.38
32.92
18.67
7.86
0.94
-2.34
-2.53
-0.25
3.87
9.04
14.20
18.06
19.40
17.49
12.38
4.90
-3.69
-12.22
-20.06
-27.33
-34.78
-43.50
-54.41
-67.78
-82.73
-97.02
-107.25
-109.83
-102.05
-83.20
-55.02
-21.23
13.52
45.05
70.55
88.75
99.60
103.68
101.73
94.53
83.10
68.75
53.11
37.87
24.53
14.15
7.26
3.87
3.58
5.77
9.67
14.41
18.99
22.34
23.44
21.58
16.56
8.86
-0.52
-10.34
-19.63
-27.99
-35.79
-43.96
-53.65
-65.67
-79.75
-94.26
-106.16
-111.75
-107.75
-92.59
-67.08
-34.35
1.07
34.65
62.98
84.24
98.04
104.77
105.08
99.69
89.46
75.71
60.19
44.86
31.50
21.32
14.71
11.41
10.74
11.98
14.56
18.08
22.12
26.00
28.76
29.27
26.65
20.66
11.85
1.42
-9.22
-18.96
-27.37
-34.74
-41.92
-50.05
-60.05
-72.17
-85.57
-98.07
-106.49
-107.38
-98.30
-78.73
-50.50
-17.35
16.30
46.59
71.00
88.50
99.08
103.15
101.15
93.69
81.72
66.74
50.74
35.72
23.37
14.62
9.60
7.73
8.16
10.12
13.09
16.81
21.05
25.23
28.36
29.24
26.85
20.88
11.93
1.38
-9.14
-18.38
-25.92
-32.26
-38.53
-46.08
-55.90
-68.16
-81.82
-94.57
-103.21
-104.53
-96.34
-78.38
-52.50
-22.15
8.77
36.91
60.19
77.72
89.32
95.06
95.03
89.52
79.32
65.77
50.64
35.77
22.66
12.26
4.95
0.64
-0.98
-0.32
2.28
6.43
11.59
16.91
21.27
23.47
22.57
18.22
10.93
1.85
-7.51
-15.86
-22.47
-27.47
-31.63
-36.25
-42.62
-51.57
-62.98
-75.42
-86.24
-92.15
-90.23
-79.00
-59.05
-32.88
-4.06
23.85
48.24
67.71
81.77
90.26
93.05
90.16
82.01
69.73
55.04
39.86
25.80
13.84
4.33
-2.77
-7.57
-10.08
-10.26
-8.22
-4.44
0.15
4.29
6.73
6.57
3.59
-1.75
-8.46
-15.48
-22.00
-27.75
-33.06
-38.69
-45.59
-54.52
-65.56
-77.74
-88.87
-95.98
-96.06
-87.16
-69.21
-44.09
-15.12
13.97
40.02
61.00
76.01
84.91
87.95
85.56
78.40
67.40
53.72
38.62
23.33
8.88
-3.86
-14.24
-21.76
-26.25
-27.86
-27.18
-25.14
-22.84
-21.31
-21.24
-22.93
-26.30
-31.04
-36.77
-43.20
-50.18
-57.73
-66.12
-75.79
-87.12
-99.92
-112.92
-123.61
-128.61
-124.69
-110.03
-85.01
-52.26
-15.88
19.82
51.36
76.60
94.68
105.55
109.60
107.46
99.96
88.18
73.38
56.87
39.93
23.75
9.46
-1.95
-9.68
-13.36
-13.12
-9.73
-4.39
1.43
6.32
9.19
9.45
7.06
2.50
-3.52
-10.24
-17.17
-24.27
-31.98
-41.08
-52.35
-65.81
-80.31
-93.19
-100.88
-99.91
-88.21
-66.03
-35.98
-2.24
30.75
59.40
81.62
96.71
104.82
106.51
102.42
93.30
80.18
64.41
47.57
31.32
17.15
6.15
-1.08
-4.52
-4.60
-2.14
1.84
6.24
9.94
11.98
11.69
8.84
3.72
-3.04
-10.61
-18.36
-26.00
-33.78
-42.33
-52.45
-64.66
-78.56
-92.45
-103.43
-107.99
-103.22
-87.91
-63.16
-32.11
1.01
32.15
58.39
78.23
91.33
97.95
98.62
93.94
84.75
72.16
57.57
42.45
28.12
15.62
5.67
-1.34
-5.22
-6.03
-4.08
-0.02
5.14
10.15
13.79
15.12
13.75
9.90
4.25
-2.38
-9.30
-16.24
-23.40
-31.41
-41.07
-52.88
-66.40
-79.92
-90.54
-94.84
-90.10
-75.37
-51.94
-23.01
7.39
35.54
58.95
76.48
87.95
93.61
93.76
88.73
79.13
65.98
50.71
34.96
20.23
7.73
-1.82
-8.11
-11.18
-11.32
-9.12
-5.39
-1.14
2.62
5.00
5.51
4.05
0.94
-3.32
-8.27
-13.71
-19.86
-27.31
-36.71
-48.31
-61.39
-74.01
-83.21
-85.87
-79.70
-64.18
-40.86
-12.85
16.08
42.56
64.28
80.19
90.14
94.43
93.50
87.74
77.64
63.91
47.69
30.47
14.00
-0.03
-10.39
-16.54
-18.77
-18.03
-15.59
-12.70
-10.32
-9.00
-8.93
-10.10
-12.48
-16.12
-21.02
-27.25
-34.80
-43.74
-54.28
-66.50
-80.08
-93.67
-104.73
-109.91
-106.09
-91.55
-66.87
-34.98
-0.33
32.51
60.06
80.51
93.62
100.02
100.60
96.15
87.33
74.89
59.88
43.71
27.96
14.15
3.39
-3.73
-7.24
-7.70
-6.00
-3.21
-0.40
1.46
1.72
0.07
-3.47
-8.54
-14.67
-21.47
-28.78
-36.85
-46.26
-57.79
-71.91
-88.09
-104.42
-117.60
-123.70
-119.36
-103.12
-76.02
-41.41
-3.95
31.75
62.14
85.22
100.26
107.45
107.45
101.23
90.05
75.41
58.97
42.41
27.20
14.47
5.03
-0.76
-2.92
-1.86
1.61
6.40
11.27
15.06
16.85
16.19
13.07
7.85
1.08
-6.67
-14.98
-23.72
-33.07
-43.58
-55.95
-70.49
-86.50
-101.82
-113.00
-116.09
-108.08
-88.10
-57.95
-21.66
15.78
49.81
77.34
96.97
108.60
112.88
110.69
103.02
91.00
75.96
59.45
43.05
28.24
16.10
7.35
2.24
0.65
2.09
5.76
10.63
15.52
19.23
20.76
19.48
15.31
8.69
0.46
-8.45
-17.26
-25.64
-33.78
-42.45
-52.60
-64.91
-79.07
-93.37
-104.75
-109.51
-104.49
-88.29
-61.89
-28.47
7.56
41.80
70.91
93.02
107.55
114.70
115.03
109.26
98.33
83.52
66.42
48.81
32.38
18.56
8.28
1.96
-0.46
0.58
4.36
9.91
16.06
21.48
24.85
25.19
22.08
15.90
7.65
-1.38
-10.11
-18.04
-25.44
-33.16
-42.25
-53.55
-67.05
-81.62
-94.86
-103.49
-104.26
-94.91
-75.08
-46.62
-13.07
21.19
52.17
77.02
94.35
103.98
106.46
102.68
93.62
80.41
64.35
47.00
30.04
15.12
3.53
-3.98
-7.29
-6.92
-3.72
1.27
6.97
12.32
16.36
18.24
17.43
13.70
7.35
-0.94
-10.20
-19.48
-28.15
-36.15
-44.09
-53.05
-63.95
-76.80
-90.14
-101.02
-105.72
-101.07
-85.62
-60.45
-28.79
4.89
36.31
62.30
81.24
92.83
97.52
96.05
89.18
77.77
62.90
45.96
28.70
12.96
0.45
-7.66
-11.00
-10.08
-6.11
-0.68
4.63
8.63
10.59
10.32
7.91
3.67
-2.06
-8.92
-16.60
-24.91
-33.85
-43.77
-55.20
-68.50
-83.16
-97.32
-107.80
-110.83
-103.39
-84.43
-55.55
-20.64
15.33
47.75
73.50
91.28
101.24
104.29
101.47
93.63
81.64
66.48
49.53
32.43
16.93
4.53
-3.80
-7.80
-7.93
-5.15
-0.75
3.92
7.64
9.48
8.96
5.97
0.81
-6.01
-13.92
-22.43
-31.34
-40.77
-51.30
-63.62
-78.10
-94.06
-109.28
-120.15
-122.55
-113.36
-91.75
-59.71
-21.59
17.34
52.39
80.39
100.01
111.22
114.67
111.24
101.98
88.17
71.40
53.53
36.38
21.54
10.13
2.76
-0.52
-0.16
3.02
7.88
13.19
17.74
20.48
20.63
17.81
12.08
3.99
-5.58
-15.64
-25.43
-34.68
-43.81
-53.90
-66.19
-81.33
-98.59
-115.41
-127.73
-131.15
-122.50
-101.15
-69.39
-31.79
6.31
40.34
67.41
86.36
97.21
100.50
96.88
87.22
72.85
55.69
38.02
22.03
9.30
0.57
-4.20
-5.54
-4.08
-0.36
5.11
11.60
18.03
23.00
25.12
23.51
18.14
9.89
0.18
-9.61
-18.61
-26.70
-34.44
-42.76
-52.66
-64.80
-79.03
-94.05
-107.24
-115.04
-113.82
-101.18
-76.91
-43.38
-4.93
33.40
67.17
93.48
111.13
120.24
121.55
116.08
104.98
89.63
71.77
53.39
36.49
22.67
12.88
7.34
5.61
6.96
10.55
15.63
21.50
27.35
32.18
34.85
34.37
30.22
22.58
12.43
1.19
-9.69
-19.20
-27.11
-34.00
-41.03
-49.57
-60.59
-74.09
-88.64
-101.40
-108.68
-107.03
-94.49
-71.35
-40.20
-5.15
29.48
60.12
84.53
101.65
111.16
113.09
107.80
96.16
79.75
60.77
41.68
24.67
11.19
1.88
-3.35
-5.00
-3.60
0.32
6.20
13.23
20.24
25.73
28.26
26.83
21.27
12.36
1.53
-9.55
-19.58
-28.00
-35.03
-41.50
-48.54
-57.17
-68.00
-80.66
-93.54
-103.80
-107.91
-102.73
-86.68
-60.48
-27.24
8.56
42.35
70.65
91.60
104.74
110.43
109.27
101.88
89.05
72.05
52.73
33.29
15.87
2.07
-7.36
-12.53
-14.13
-12.99
-9.84
-5.30
-0.01
5.07
8.69
9.46
6.45
-0.39
-10.12
-21.09
-31.58
-40.49
-47.68
-54.05
-61.16
-70.56
-83.10
-98.23
-113.73
-125.87
-130.41
-123.82
-104.60
-73.95
-35.53
5.61
44.44
77.12
101.52
116.98
123.82
122.75
114.77
101.13
83.53
64.05
44.93
28.17
15.13
6.37
1.69
0.42
1.72
4.92
9.48
14.89
20.38
24.80
26.80
25.17
19.41
10.00
-1.66
-13.76
-24.75
-33.91
-41.52
-48.80
-57.33
-68.45
-82.56
-98.53
-113.67
-124.04
-125.55
-115.24
-92.43
-59.10
-19.46
21.31
58.47
88.70
110.34
123.05
127.23
123.66
113.39
97.97
79.36
59.81
41.41
25.71
13.53
5.03
0.04
-1.73
-0.55
3.24
9.05
15.91
22.47
27.21
28.79
26.40
20.00
10.36
-1.17
-13.04
-23.99
-33.34
-41.26
-48.59
-56.61
-66.58
-79.06
-93.35
-107.15
-116.79
-118.22
-108.36
-86.32
-54.03
-15.68
23.51
58.84
87.19
107.29
119.20
123.49
120.79
111.72
97.18
78.73
58.56
39.16
22.70
10.52
2.93
-0.64
-1.16
0.48
3.70
8.23
13.73
19.53
24.43
26.96
25.83
20.50
11.46
0.13
-11.64
-22.21
-30.74
-37.40
-43.13
-49.33
-57.29
-67.72
-80.46
-94.11
-106.03
-112.82
-111.06
-98.58
-75.31
-43.66
-7.80
27.50
58.26
82.13
98.34
107.22
109.42
105.52
96.08
81.99
64.73
46.29
28.81
14.04
3.00
-4.15
-7.89
-8.93
-7.81
-4.84
-0.17
5.89
12.56
18.53
22.16
22.09
17.77
9.73
-0.51
-11.04
-20.28
-27.59
-33.40
-38.91
-45.53
-54.32
-65.55
-78.47
-91.27
-101.25
-105.38
-101.04
-86.90
-63.59
-33.57
-0.63
31.21
58.66
79.71
93.51
100.05
99.76
93.29
81.59
66.01
48.26
30.15
13.32
-0.99
-12.05
-19.54
-23.47
-24.08
-21.79
-17.30
-11.58
-5.87
-1.56
0.09
-1.64
-6.84
-14.82
-24.47
-34.64
-44.57
-54.17
-63.93
-74.74
-87.53
-102.77
-120.03
-137.61
-152.50
-160.95
-159.57
-146.62
-122.87
-91.69
-58.01
-26.79
-1.52
16.44
27.58
33.24
34.63
32.39
26.81
18.41
8.38
-1.42
-8.95
-12.64
-11.88
-7.08
0.69
10.18
20.32
30.30
39.40
46.91
52.04
54.20
53.13
49.12
42.79
34.96
26.33
17.26
7.73
-2.68
-14.51
-27.99
-42.51
-56.17
-65.96
-68.49
-61.19
-43.39
-16.88
14.60
46.43
74.49
96.10
110.20
117.04
117.48
112.52
103.12
90.25
75.01
58.67
42.58
28.07
16.21
7.72
2.89
1.57
3.17
6.73
10.95
14.40
15.72
13.93
8.64
0.17
-10.59
-22.42
-34.25
-45.52
-56.45
-68.04
-81.63
-98.19
-117.27
-136.56
-152.03
-159.03
-153.97
-135.92
-107.18
-72.79
-39.10
-11.85
5.36
11.95
10.40
5.33
2.24
5.84
18.80
40.95
69.60
100.49
129.15
152.12
167.36
174.21
172.91
164.25
149.39
129.84
107.52
84.49
62.69
43.62
28.26
17.01
9.79
6.21
5.57
6.97
9.30
11.42
12.21
10.91
7.18
1.20
-6.43
-14.99
-23.82
-32.57
-41.34
-50.70
-61.53
-74.48
-89.38
-104.60
-117.05
-122.77
-118.27
-101.94
-74.88
-40.75
-4.57
28.80
55.95
75.32
86.87
91.25
89.19
81.34
68.46
51.76
33.05
14.55
-1.58
-13.70
-21.03
-23.69
-22.52
-18.75
-13.64
-8.23
-3.20
1.04
4.25
6.32
7.17
6.85
5.59
3.83
2.09
0.87
0.47
0.85
1.69
2.52
2.92
2.67
1.87
0.86
0.00
-0.42
-0.34
0.08
0.58
0.88
0.86
0.51
0.00
-0.48
-0.77
-0.82
-0.66
-0.40
-0.16
-0.03
-0.00
-0.06
-0.14
-0.18
-0.15
-0.07
0.03
0.10
0.12
0.07
-0.01
-0.12
-0.22
-0.29
-0.33
-0.34
-0.33
-0.32
-0.31
-0.30
-0.31
-0.31
-0.31
-0.31
-0.31
-0.31
-0.30
-0.30
-0.30
-0.30
-0.30
-0.30
-0.30
-0.30
-0.30
-0.30
-0.29
-0.29
-0.29
-0.29
-0.29
-0.29
-0.29
-0.29
-0.29
-0.29
-0.29
-0.29
-0.28
-0.28
-0.28
-0.28
-0.28
-0.28
-0.28
-0.28
-0.28
-0.28
-0.27
-0.27
-0.27
-0.27
-0.27
-0.27
-0.27
-0.27
-0.27
-0.27
-0.27
-0.27
-0.26
-0.26
-0.26
-0.26
-0.26
-0.26
-0.26
-0.26
-0.26
-0.26
-0.26
-0.26
-0.25
-0.25
-0.25
-0.25
-0.25
-0.25
-0.25
-0.25
-0.25
-0.25
-0.25
-0.25
-0.25
-0.25
-0.24
-0.24
-0.24
-0.24
-0.24
-0.24
-0.24
-0.24
-0.24
-0.24
-0.24
-0.24
-0.24
-0.23
-0.23
-0.23
-0.23
-0.23
-0.23
-0.23
-0.23
-0.23
-0.23
-0.23
-0.23
-0.23
-0.22
-0.22
-0.22
-0.22
-0.22
-0.22
-0.22
-0.22
-0.22
-0.22
-0.22
-0.22
-0.22
-0.22
-0.21
-0.22
-0.21
-0.21
-0.21
-0.21
-0.21
-0.21
-0.21
-0.21
-0.21
-0.21
-0.21
-0.21
-0.21
-0.21
-0.20
-0.20
-0.20
-0.20
-0.20
-0.20
-0.20
-0.20
-0.20
-0.20
-0.19
-0.19
-0.19
-0.19
-0.20
-0.20
-0.19
-0.16
-0.11
-0.04
0.04
0.12
0.19
0.25
0.31
0.37
0.45
0.56
0.70
0.85
0.98
1.05
1.05
1.01
0.94
0.90
0.92
1.03
1.19
1.36
1.50
1.58
1.64
1.73
1.95
2.36
2.94
3.63
4.29
4.81
5.12
5.29
5.47
5.87
6.62
7.74
9.09
10.39
11.39
11.93
12.11
12.22
12.64
13.67
15.39
17.58
19.77
21.48
22.40
22.52
22.19
22.00
22.55
24.27
27.14
30.61
33.60
34.77
32.90
27.36
18.39
7.07
-5.06
-16.58
-26.70
-35.52
-43.89
-52.95
-63.54
-75.55
-87.68
-97.56
-102.33
-99.51
-87.87
-67.92
-41.83
-12.80
15.78
41.16
61.61
76.23
84.82
87.45
84.43
76.40
64.42
49.96
34.74
20.36
8.03
-1.51
-8.01
-11.52
-12.24
-10.40
-6.33
-0.57
6.01
12.25
16.85
18.68
17.16
12.37
5.13
-3.30
-11.64
-18.96
-24.98
-30.08
-35.09
-40.99
-48.46
-57.67
-67.91
-77.57
-84.23
-85.25
-78.54
-63.32
-40.57
-12.91
16.12
43.05
65.33
81.71
92.07
96.94
97.00
92.76
84.72
73.48
59.99
45.47
31.26
18.56
8.19
0.58
-4.19
-6.21
-5.73
-3.14
0.92
5.45
9.25
11.10
10.14
6.17
-0.30
-8.21
-16.34
-23.79
-30.20
-35.93
-41.88
-49.20
-58.75
-70.60
-83.61
-95.32
-102.41
-101.65
-91.01
-70.57
-42.58
-10.84
20.42
47.78
69.16
83.85
92.07
94.37
91.40
83.87
72.73
59.17
44.57
30.24
17.22
6.24
-2.29
-8.14
-11.19
-11.50
-9.30
-5.16
-0.02
4.85
8.11
8.65
5.94
0.25
-7.48
-15.97
-24.06
-31.13
-37.26
-43.21
-50.12
-59.01
-70.23
-83.00
-95.21
-103.76
-105.42
-97.84
-80.53
-55.11
-24.92
6.01
34.11
56.97
73.53
83.73
87.95
86.71
80.67
70.71
58.07
44.23
30.62
18.34
8.06
0.02
-5.67
-8.96
-9.71
-7.95
-4.01
1.29
6.72
10.90
12.67
11.43
7.32
1.03
-6.42
-14.06
-21.22
-27.69
-33.72
-40.00
-47.39
-56.68
-68.03
-80.48
-91.77
-98.72
-98.10
-87.91
-68.22
-41.37
-11.22
18.13
43.44
63.04
76.63
84.63
87.59
85.83
79.62
69.48
56.44
42.01
27.84
15.33
5.38
-1.72
-6.01
-7.69
-6.93
-3.91
1.02
7.12
13.20
17.85
19.79
18.31
13.56
6.45
-1.70
-9.62
-16.60
-22.62
-28.33
-34.68
-42.59
-52.48
-63.91
-75.41
-84.58
-88.62
-85.14
-73.02
-52.95
-27.30
0.53
27.10
49.74
66.94
78.24
83.86
84.31
80.21
72.26
61.36
48.55
34.96
21.66
9.60
-0.50
-8.08
-12.85
-14.74
-13.95
-10.99
-6.61
-1.84
2.22
4.59
4.61
2.11
-2.58
-8.74
-15.55
-22.25
-28.43
-34.09
-39.65
-45.82
-53.31
-62.30
-72.00
-80.43
-84.84
-82.50
-71.89
-53.39
-29.24
-2.90
22.18
43.43
59.63
70.52
76.31
77.21
73.39
65.17
53.34
39.19
24.27
10.08
-2.26
-12.03
-18.85
-22.56
-23.17
-21.03
-16.84
-11.64
-6.68
-3.07
-1.48
-2.03
-4.34
-7.81
-11.90
-16.34
-21.23
-26.96
-33.99
-42.68
-52.96
-64.13
-74.65
-82.29
-84.62
-79.66
-66.62
-46.29
-20.95
6.27
32.23
54.49
71.60
83.04
88.90
89.62
85.79
78.17
67.71
55.53
42.78
30.57
19.94
11.73
6.53
4.54
5.52
8.69
12.92
16.96
19.73
20.66
19.60
16.84
12.80
7.89
2.33
-3.86
-10.83
-18.88
-28.36
-39.43
-51.70
-63.86
-73.62
-78.10
-74.78
-62.45
-41.88
-15.77
12.05
37.83
58.87
73.93
83.00
86.65
85.52
80.12
70.92
58.62
44.30
29.35
15.29
3.39
-5.44
-10.84
-12.89
-12.03
-9.03
-4.79
-0.32
3.45
5.80
6.33
4.98
2.01
-2.16
-7.17
-12.86
-19.34
-26.97
-36.15
-46.95
-58.77
-70.03
-78.38
-81.21
-76.51
-63.69
-43.97
-20.06
4.59
26.79
44.36
56.37
62.84
64.28
61.29
54.36
44.04
31.10
16.67
2.21
-10.76
-20.93
-27.49
-30.24
-29.58
-26.32
-21.41
-15.75
-10.09
-4.98
-0.89
1.82
2.86
2.07
-0.51
-4.75
-10.50
-17.74
-26.53
-36.81
-47.92
-58.37
-65.88
-67.97
-62.87
-50.23
-31.46
-9.30
13.05
32.87
48.46
59.17
64.99
66.10
62.61
54.68
42.79
27.91
11.60
-4.19
-17.54
-26.88
-31.48
-31.57
-28.27
-23.22
-18.07
-13.98
-11.45
-10.36
-10.37
-11.16
-12.78
-15.50
-19.78
-26.11
-34.77
-45.67
-58.02
-70.12
-79.37
-82.87
-78.24
-64.62
-43.09
-16.51
11.46
37.40
59.00
75.20
85.85
91.21
91.53
87.00
78.02
65.46
50.78
35.79
22.34
11.91
5.29
2.43
2.56
4.47
6.92
8.93
10.03
10.11
9.25
7.43
4.44
-0.14
-6.71
-15.70
-27.37
-41.69
-58.05
-74.92
-89.73
-99.16
-100.02
-90.38
-70.39
-42.50
-10.74
20.50
47.62
68.56
82.71
90.34
92.05
88.34
79.70
66.88
51.13
34.34
18.72
6.33
-1.45
-4.31
-3.06
0.70
5.12
8.71
10.66
10.86
9.53
6.97
3.21
-1.92
-8.67
-17.17
-27.41
-39.24
-52.59
-67.25
-82.57
-97.02
-108.03
-112.47
-107.55
-91.99
-66.73
-34.86
-0.78
31.11
57.49
76.60
88.13
92.64
91.03
84.25
73.35
59.59
44.58
30.08
17.78
8.97
4.29
3.65
6.37
11.33
17.27
22.92
27.13
28.99
27.93
23.76
16.77
7.67
-2.54
-12.91
-22.77
-31.99
-40.99
-50.62
-61.76
-74.63
-88.34
-100.62
-108.13
-107.45
-96.31
-74.57
-44.48
-10.10
23.96
53.82
77.07
92.91
101.55
103.60
99.70
90.56
77.23
61.37
45.15
30.85
20.25
14.12
12.14
13.23
16.02
19.46
23.04
26.61
30.00
32.65
33.57
31.66
26.23
17.44
6.33
-5.52
-16.56
-25.81
-33.12
-39.04
-44.60
-50.95
-58.99
-69.05
-80.51
-91.65
-99.76
-101.77
-95.22
-79.24
-54.94
-25.28
5.94
35.08
59.54
78.04
90.25
96.36
96.64
91.42
81.36
67.67
52.23
37.34
25.21
17.44
14.60
16.18
20.88
27.09
33.38
38.88
43.24
46.43
48.37
48.72
46.89
42.30
34.73
24.56
12.81
0.82
-10.12
-19.21
-26.35
-32.07
-37.35
-43.24
-50.56
-59.62
-69.92
-80.01
-87.60
-89.95
-84.69
-70.70
-48.55
-20.59
9.78
39.00
64.26
83.83
97.00
103.71
104.14
98.67
88.02
73.49
56.92
40.49
26.18
15.41
8.70
5.76
5.74
7.69
10.80
14.59
18.75
22.84
26.14
27.68
26.43
21.77
13.76
3.18
-8.63
-20.20
-30.40
-38.71
-45.26
-50.72
-56.03
-62.16
-69.88
-79.32
-89.68
-99.00
-104.38
-102.76
-91.97
-71.68
-43.69
-11.45
21.00
50.19
73.90
91.22
102.05
106.62
105.20
98.24
86.64
71.89
55.96
40.90
28.41
19.43
14.09
11.93
12.20
14.19
17.46
21.67
26.39
30.86
33.98
34.50
31.51
24.87
15.35
4.38
-6.39
-15.77
-23.34
-29.50
-35.23
-41.74
-50.11
-60.89
-73.76
-87.28
-98.88
-105.35
-103.75
-92.51
-72.11
-45.07
-15.21
13.60
38.44
57.82
71.38
79.27
81.68
78.72
70.71
58.49
43.59
27.99
13.64
2.04
-6.04
-10.50
-11.62
-9.81
-5.46
1.01
8.94
17.26
24.53
29.25
30.32
27.50
21.48
13.64
5.51
-1.82
-8.05
-13.60
-19.35
-26.27
-35.11
-46.13
-58.88
-71.89
-82.77
-88.52
-86.41
-74.94
-54.59
-27.86
1.48
29.50
53.17
70.86
82.21
87.61
87.67
83.01
74.31
62.51
48.79
34.47
20.80
8.73
-1.09
-8.28
-12.62
-14.07
-12.73
-9.12
-4.05
1.30
5.69
8.06
7.86
5.07
0.24
-5.82
-12.28
-18.55
-24.48
-30.36
-36.90
-44.94
-54.96
-66.57
-78.12
-86.93
-89.93
-84.76
-70.74
-49.19
-23.09
3.93
28.63
48.85
63.67
73.08
77.45
77.19
72.68
64.39
53.04
39.70
25.72
12.51
1.41
-6.59
-11.01
-11.98
-10.19
-6.74
-2.85
0.41
2.35
2.69
1.48
-1.06
-4.74
-9.41
-15.03
-21.73
-29.77
-39.53
-51.19
-64.26
-77.17
-87.27
-91.39
-86.90
-72.78
-50.21
-22.29
6.95
33.77
55.65
71.54
81.49
86.04
85.78
81.14
72.57
60.74
46.69
31.72
17.26
4.66
-5.07
-11.41
-14.36
-14.49
-12.73
-10.16
-7.79
-6.29
-5.97
-6.84
-8.77
-11.66
-15.54
-20.60
-27.14
-35.55
-46.05
-58.47
-71.85
-84.21
-92.72
-94.37
-86.92
-69.84
-44.72
-14.93
15.32
42.18
63.06
77.02
84.37
86.10
83.22
76.43
66.22
53.15
38.12
22.44
7.70
-4.61
-13.45
-18.47
-20.00
-18.82
-16.00
-12.54
-9.31
-6.89
-5.58
-5.53
-6.78
-9.32
-13.15
-18.33
-24.98
-33.34
-43.59
-55.63
-68.54
-80.34
-88.09
-88.59
-79.52
-60.40
-33.10
-1.34
30.42
58.29
79.86
94.40
102.41
104.92
102.91
97.01
87.65
75.37
61.07
46.07
31.95
20.25
12.10
7.91
7.34
9.47
13.07
16.93
20.08
21.87
21.97
20.19
16.59
11.36
4.81
-2.68
-10.89
-19.87
-29.97
-41.67
-54.97
-68.88
-81.14
-88.60
-88.17
-78.01
-58.39
-31.78
-2.14
26.33
50.23
67.67
78.22
82.36
81.04
75.25
65.89
53.80
39.89
25.12
10.61
-2.47
-12.92
-19.86
-22.88
-22.25
-18.86
-13.99
-8.98
-4.88
-2.33
-1.60
-2.69
-5.45
-9.64
-14.91
-20.91
-27.35
-34.28
-42.12
-51.44
-62.37
-74.03
-84.26
-90.00
-88.31
-77.58
-58.29
-33.00
-5.54
20.32
41.89
57.91
68.34
73.68
74.45
71.00
63.70
53.17
40.43
26.82
13.79
2.66
-5.66
-10.78
-12.87
-12.59
-10.80
-8.37
-5.95
-3.87
-2.32
-1.41
-1.34
-2.37
-4.73
-8.57
-13.89
-20.67
-28.93
-38.63
-49.35
-59.95
-68.47
-72.50
-69.92
-59.77
-42.73
-21.05
2.19
23.99
42.17
55.69
64.35
68.39
68.06
63.57
55.19
43.50
29.51
14.61
0.35
-11.86
-21.02
-26.69
-29.10
-29.01
-27.40
-25.24
-23.17
-21.50
-20.26
-19.47
-19.33
-20.22
-22.65
-27.11
-33.92
-43.11
-54.20
-65.94
-76.24
-82.43
-81.92
-73.11
-56.13
-32.92
-6.77
18.81
41.00
58.28
70.32
77.42
79.96
78.13
72.02
61.90
48.63
33.62
18.69
5.61
-4.24
-10.28
-12.77
-12.57
-10.85
-8.65
-6.66
-5.24
-4.46
-4.40
-5.19
-7.10
-10.43
-15.51
-22.66
-32.09
-43.78
-57.03
-70.19
-80.59
-85.17
-81.39
-68.28
-46.98
-20.50
7.24
32.67
53.40
68.50
78.09
82.67
82.63
78.21
69.75
57.95
44.05
29.61
16.25
5.29
-2.46
-6.79
-8.06
-7.02
-4.66
-1.93
0.45
2.03
2.71
2.46
1.26
-1.05
-4.75
-10.19
-17.72
-27.59
-39.75
-53.51
-67.26
-78.41
-83.87
-81.04
-68.78
-48.05
-21.75
6.21
32.14
53.55
69.39
79.70
84.90
85.30
81.03
72.33
59.85
44.83
28.97
14.07
1.71
-7.11
-12.02
-13.35
-11.93
-8.92
-5.48
-2.52
-0.57
0.20
-0.13
-1.46
-3.81
-7.28
-12.08
-18.42
-26.50
-36.45
-48.15
-60.86
-72.98
-82.04
-85.20
-80.24
-66.42
-44.97
-18.85
8.20
32.70
52.35
66.18
74.29
77.30
75.85
70.45
61.62
50.04
36.76
23.20
10.94
1.35
-4.69
-7.13
-6.67
-4.53
-2.01
-0.08
0.90
1.05
0.74
0.22
-0.53
-1.85
-4.23
-8.10
-13.71
-21.16
-30.35
-40.85
-51.65
-61.02
-66.62
-66.08
-57.88
-42.04
-20.35
4.09
27.87
48.23
63.67
73.86
79.14
79.95
76.50
68.91
57.57
43.44
28.11
13.48
1.31
-7.25
-11.95
-13.39
-12.70
-11.10
-9.55
-8.49
-7.98
-7.90
-8.23
-9.18
-11.11
-14.39
-19.25
-25.78
-34.08
-44.14
-55.57
-67.20
-76.86
-81.66
-78.91
-67.20
-47.14
-21.39
6.21
31.90
53.03
68.51
78.43
83.41
83.91
80.06
71.92
59.93
45.23
29.60
15.07
3.35
-4.63
-8.85
-10.05
-9.31
-7.67
-5.88
-4.38
-3.38
-3.09
-3.73
-5.50
-8.56
-12.91
-18.43
-25.05
-32.92
-42.40
-53.78
-66.72
-79.78
-90.26
-94.82
-90.57
-76.30
-53.11
-24.26
5.95
33.51
55.76
71.68
81.45
85.76
85.26
80.38
71.61
59.68
45.79
31.43
18.09
6.97
-1.17
-6.11
-8.01
-7.34
-4.78
-1.24
2.34
4.93
5.74
4.31
0.65
-4.79
-11.30
-18.22
-25.18
-32.25
-39.99
-49.15
-60.31
-73.25
-86.55
-97.55
-102.90
-99.64
-86.28
-63.57
-34.33
-2.66
27.36
52.63
71.54
83.71
89.52
89.62
84.76
75.85
64.07
50.85
37.64
25.71
15.90
8.65
4.09
2.13
2.52
4.79
8.29
12.15
15.41
17.23
17.04
14.68
10.34
4.55
-2.08
-8.93
-15.52
-21.67
-27.62
-34.04
-41.82
-51.52
-62.70
-73.54
-81.06
-81.99
-74.06
-57.03
-32.94
-5.52
21.12
43.79
60.82
72.05
78.09
79.60
77.03
70.57
60.62
48.02
34.12
20.48
8.50
-0.86
-7.21
-10.64
-11.51
-10.27
-7.39
-3.44
0.90
4.81
7.48
8.32
7.12
4.13
-0.09
-4.89
-9.81
-14.74
-19.97
-26.13
-33.92
-43.62
-54.63
-65.22
-72.80
-74.68
-69.08
-56.01
-37.39
-16.45
3.32
19.24
29.99
35.52
36.55
33.97
28.53
20.74
11.00
-0.18
-12.17
-24.21
-35.38
-44.76
-51.50
-54.98
-54.94
-51.51
-45.19
-36.79
-27.34
-17.96
-9.71
-3.45
0.36
1.76
1.21
-0.50
-2.60
-4.59
-6.48
-8.81
-12.48
-18.23
-26.06
-34.82
-42.19
-45.21
-41.31
-29.30
-9.97
14.11
39.46
62.77
81.79
95.62
104.32
108.36
108.15
103.95
96.05
85.04
71.89
57.88
44.32
32.41
23.02
16.64
13.31
12.60
13.75
15.76
17.71
18.91
19.04
17.97
15.78
12.48
8.16
2.92
-3.07
-9.72
-17.17
-25.80
-35.95
-47.34
-58.68
-67.57
-71.19
-67.29
-55.25
-36.37
-13.60
9.57
30.19
46.55
58.15
65.29
68.40
67.73
63.37
55.53
44.82
32.36
19.55
7.79
-1.89
-8.93
-13.35
-15.55
-16.12
-15.64
-14.54
-13.11
-11.53
-9.97
-8.65
-7.92
-8.14
-9.75
-13.17
-18.79
-26.90
-37.31
-49.04
-60.08
-67.63
-68.79
-61.62
-45.97
-23.73
1.71
26.60
47.98
64.33
75.48
82.00
84.46
83.10
77.88
68.94
56.88
42.95
28.75
15.85
5.41
-2.08
-6.75
-9.17
-10.05
-10.00
-9.45
-8.65
-7.77
-7.05
-6.87
-7.63
-9.72
-13.43
-18.95
-26.48
-36.15
-47.75
-60.40
-72.25
-80.62
-82.72
-76.59
-61.99
-40.67
-15.87
8.74
30.18
46.73
57.98
64.29
66.13
63.77
57.31
47.07
33.84
19.05
4.52
-7.96
-17.14
-22.55
-24.57
-24.16
-22.43
-20.29
-18.24
-16.38
-14.69
-13.25
-12.41
-12.74
-14.81
-19.03
-25.55
-34.28
-44.82
-56.39
-67.61
-76.45
-80.52
-77.76
-67.23
-49.63
-27.34
-3.63
18.28
36.10
48.79
56.30
58.99
57.17
51.01
40.81
27.31
11.98
-3.23
-16.26
-25.54
-30.43
-31.36
-29.53
-26.42
-23.20
-20.44
-18.08
-15.88
-13.75
-12.08
-11.68
-13.51
-18.32
-26.45
-37.71
-51.19
-65.23
-77.35
-84.59
-84.21
-74.59
-55.97
-30.61
-2.19
25.26
48.48
65.64
76.29
80.90
80.28
75.16
66.17
54.06
39.95
25.34
11.96
1.36
-5.52
-8.58
-8.59
-6.84
-4.68
-3.08
-2.41
-2.55
-3.17
-4.13
-5.63
-8.20
-12.39
-18.65
-27.11
-37.72
-50.24
-64.01
-77.73
-89.21
-95.53
-93.75
-82.01
-60.38
-31.26
1.29
32.63
58.93
78.00
89.42
94.07
93.26
88.20
79.74
68.54
55.43
41.65
28.72
18.18
11.15
7.95
8.16
10.69
14.23
17.54
19.75
20.34
19.14
16.17
11.64
5.78
-1.13
-8.86
-17.33
-26.63
-37.03
-48.86
-62.07
-75.84
-88.24
-96.45
-97.38
-88.80
-70.22
-43.31
-11.53
20.84
49.89
72.85
88.37
96.25
97.04
91.66
81.38
67.78
52.70
38.00
25.22
15.33
8.64
4.96
3.87
4.94
7.82
12.11
17.25
22.30
26.09
27.45
25.55
20.28
12.23
2.57
-7.39
-16.65
-24.77
-32.04
-39.25
-47.47
-57.63
-69.98
-83.66
-96.53
-105.42
-106.98
-98.73
-80.11
-52.78
-20.32
12.93
43.02
67.26
84.48
94.65
98.33
96.24
89.08
77.73
63.46
47.97
33.18
20.90
12.33
7.80
6.84
8.42
11.46
15.14
19.11
23.19
27.12
30.26
31.67
30.32
25.65
17.85
7.85
-2.95
-13.26
-22.27
-29.92
-36.83
-43.99
-52.47
-63.04
-75.91
-90.38
-104.68
-116.12
-121.61
-118.59
-105.92
-84.42
-56.65
-26.24
3.18
28.80
48.96
62.99
70.79
72.55
68.60
59.60
46.69
31.48
15.92
1.91
-9.01
-15.97
-18.86
-18.22
-14.97
-10.09
-4.32
1.89
8.28
14.48
19.88
23.54
24.50
22.18
16.67
8.88
0.25
-7.75
-14.19
-19.06
-23.23
-28.09
-35.03
-44.78
-57.00
-70.07
-81.28
-87.52
-86.03
-75.31
-55.59
-28.83
1.76
32.59
60.54
83.37
99.94
109.96
113.77
112.02
105.62
95.62
83.24
69.68
56.02
43.18
31.87
22.63
15.85
11.79
10.53
11.82
15.07
19.31
23.39
26.14
26.66
24.51
19.81
13.09
5.21
-2.95
-10.64
-17.47
-23.50
-29.26
-35.63
-43.49
-53.26
-64.39
-75.07
-82.51
-83.58
-75.98
-59.04
-34.14
-4.40
26.30
54.32
77.09
93.31
102.81
106.04
103.76
96.86
86.33
73.29
58.90
44.29
30.44
18.16
8.10
0.74
-3.60
-4.81
-3.08
1.05
6.73
12.85
18.25
21.86
23.01
21.49
17.64
12.22
6.15
0.16
-5.44
-10.98
-17.23
-25.21
-35.48
-47.62
-59.87
-69.33
-72.69
-67.42
-52.71
-29.89
-2.06
26.86
53.31
74.82
90.25
99.46
102.88
101.10
94.85
84.96
72.42
58.31
43.63
29.20
15.66
3.59
-6.42
-13.72
-17.81
-18.51
-16.17
-11.71
-6.43
-1.68
1.52
2.62
1.69
-0.81
-4.21
-7.92
-11.65
-15.49
-19.93
-25.72
-33.40
-42.84
-52.83
-61.12
-64.95
-61.93
-50.96
-32.68
-9.37
15.77
39.57
59.55
74.26
83.23
86.67
85.24
79.83
71.46
61.13
49.65
37.59
25.38
13.43
2.38
-7.00
-13.92
-17.92
-19.03
-17.86
-15.35
-12.51
-10.12
-8.65
-8.27
-8.91
-10.47
-12.86
-16.01
-19.99
-25.02
-31.46
-39.55
-49.05
-58.92
-67.21
-71.48
-69.55
-60.32
-44.32
-23.62
-1.20
19.93
37.45
50.11
57.57
60.10
58.21
52.55
43.80
32.81
20.45
7.65
-4.71
-15.88
-25.20
-32.15
-36.49
-38.27
-37.87
-35.92
-33.08
-29.96
-26.98
-24.40
-22.43
-21.25
-21.02
-21.96
-24.23
-27.99
-33.31
-40.06
-47.62
-54.73
-59.50
-59.83
-54.07
-41.62
-23.28
-1.09
22.27
44.23
62.83
76.98
86.36
91.07
91.49
88.11
81.57
72.61
62.07
50.77
39.56
29.16
20.20
13.07
7.92
4.61
2.80
2.07
2.03
2.35
2.78
3.03
2.71
1.40
-1.26
-5.55
-11.58
-19.30
-28.38
-38.07
-47.04
-53.51
-55.59
-51.86
-41.99
-26.90
-8.59
10.47
28.02
42.48
53.05
59.61
62.33
61.54
57.67
51.26
43.00
33.73
24.24
15.23
7.26
0.76
-4.02
-6.99
-8.26
-8.10
-6.84
-4.81
-2.30
0.36
2.78
4.41
4.69
3.18
-0.34
-5.73
-12.57
-20.21
-27.82
-34.32
-38.51
-39.11
-35.18
-26.40
-13.36
2.53
19.28
34.78
47.31
55.82
60.01
60.14
56.78
50.54
42.02
31.78
20.53
9.14
-1.40
-10.21
-16.74
-20.94
-23.18
-24.09
-24.23
-23.92
-23.22
-22.09
-20.58
-19.04
-18.14
-18.71
-21.45
-26.58
-33.62
-41.28
-47.77
-51.19
-50.11
-43.98
-33.22
-19.09
-3.25
12.64
27.23
39.49
48.78
54.59
56.58
54.67
49.10
40.51
29.94
18.56
7.49
-2.49
-10.96
-17.87
-23.36
-27.54
-30.49
-32.18
-32.66
-32.17
-31.19
-30.45
-30.79
-33.05
-37.82
-45.12
-54.16
-63.28
-70.14
-72.39
-68.36
-57.68
-41.42
-21.79
-1.42
17.36
32.87
44.22
50.98
53.01
50.38
43.43
32.95
20.16
6.53
-6.57
-18.17
-27.87
-35.68
-41.82
-46.46
-49.55
-50.96
-50.63
-48.79
-46.08
-43.46
-42.08
-43.04
-47.19
-54.82
-65.35
-77.22
-87.90
-94.43
-94.22
-85.93
-69.97
-48.46
-24.64
-1.80
17.48
31.72
40.51
44.02
42.72
37.13
28.00
16.42
3.87
-8.00
-17.74
-24.44
-27.95
-28.79
-27.86
-25.97
-23.63
-20.95
-17.88
-14.44
-11.00
-8.28
-7.29
-9.06
-14.31
-23.11
-34.57
-46.76
-56.87
-61.82
-59.11
-47.66
-28.29
-3.55
23.04
47.98
68.68
83.87
93.30
97.36
96.56
91.38
82.39
70.49
57.09
43.91
32.66
24.57
20.13
18.96
20.11
22.38
24.75
26.57
27.70
28.21
28.27
27.79
26.42
23.58
18.63
11.13
1.15
-10.54
-22.35
-31.95
-36.71
-34.36
-23.76
-5.39
18.53
44.65
69.37
89.87
104.63
113.47
116.96
115.84
110.67
101.76
89.60
75.20
60.16
46.35
35.37
27.99
24.02
22.40
21.77
20.90
19.15
16.45
13.15
9.66
6.17
2.47
-1.89
-7.48
-14.74
-23.86
-34.86
-47.41
-60.74
-73.46
-83.54
-88.70
-87.11
-78.13
-62.86
-43.85
-24.38
-7.38
5.26
12.93
15.82
14.44
9.09
0.02
-12.34
-26.97
-42.16
-55.80
-65.97
-71.47
-72.26
-69.45
-64.77
-59.99
-56.32
-54.04
-52.75
-51.73
-50.59
-49.61
-49.65
-51.86
-57.16
-65.85
-77.40
-90.44
-102.83
-111.92
-114.95
-109.76
-95.41
-72.73
-44.31
-13.89
14.62
38.10
54.80
64.28
67.02
63.87
55.80
43.90
29.53
14.44
0.67
-9.90
-15.97
-17.25
-14.57
-9.54
-4.14
-0.03
1.79
1.23
-1.17
-4.57
-8.39
-12.47
-17.24
-23.53
-32.21
-43.90
-58.43
-74.54
-89.69
-100.36
-102.93
-94.74
-75.22
-46.30
-12.06
22.40
52.47
75.13
89.36
95.78
95.86
91.13
82.86
72.04
59.64
46.86
35.08
25.62
19.41
16.72
17.17
19.76
23.23
26.26
27.75
27.03
23.93
18.76
12.13
4.73
-2.98
-10.83
-19.00
-27.94
-38.25
-50.43
-64.60
-80.07
-94.97
-106.23
-110.20
-103.80
-85.76
-57.41
-22.63
13.33
45.37
70.02
85.90
93.54
94.41
90.10
81.86
70.71
57.86
44.85
33.47
25.28
21.06
20.52
22.51
25.47
28.13
29.97
31.21
32.47
34.13
35.88
36.69
35.19
30.38
22.16
11.50
0.11
-10.33
-18.70
-24.82
-29.34
-33.34
-37.96
-44.12
-52.37
-62.62
-73.92
-84.20
-90.44
-89.36
-78.50
-57.31
-27.70
6.36
40.02
68.99
90.65
104.30
110.74
111.33
107.32
99.57
88.82
76.07
62.89
51.18
42.75
38.72
39.14
42.99
48.59
54.14
58.32
60.52
60.84
59.75
57.69
54.75
50.67
45.01
37.50
28.24
17.83
7.20
-2.72
-11.30
-18.36
-24.21
-29.51
-35.08
-41.70
-49.91
-59.78
-70.59
-80.66
-87.42
-87.98
-79.97
-62.50
-36.75
-5.88
25.80
54.06
75.86
89.90
96.44
96.68
92.05
83.74
72.70
59.90
46.55
34.10
24.09
17.66
15.22
16.41
20.14
25.03
29.73
33.24
35.02
34.93
33.11
29.81
25.28
19.70
13.18
5.83
-2.19
-10.59
-19.03
-27.16
-34.71
-41.57
-47.74
-53.32
-58.46
-63.46
-68.79
-75.05
-82.68
-91.42
-99.88
-105.55
-105.39
-96.95
-79.38
-54.00
-24.02
6.51
33.86
55.51
70.44
78.79
81.39
79.27
73.51
65.23
55.60
45.83
36.95
29.73
24.65
21.95
21.58
23.29
26.55
30.64
34.68
37.77
39.18
38.54
35.89
31.62
26.32
20.49
14.40
8.00
1.11
-6.38
-14.32
-22.21
-29.43
-35.44
-40.07
-43.68
-46.98
-50.84
-56.05
-62.99
-71.49
-80.58
-88.52
-93.04
-91.86
-83.38
-67.34
-45.17
-19.61
5.93
28.31
45.33
56.05
60.63
59.93
55.10
47.27
37.49
26.74
15.94
5.96
-2.35
-8.36
-11.72
-12.49
-11.11
-8.29
-4.81
-1.33
1.68
3.90
5.11
5.13
3.86
1.41
-1.96
-5.83
-9.82
-13.69
-17.38
-20.94
-24.44
-27.89
-31.22
-34.39
-37.48
-40.70
-44.36
-48.85
-54.45
-61.08
-68.05
-73.87
-76.49
-73.80
-64.40
-48.26
-26.88
-2.99
20.30
40.32
55.51
65.35
70.20
70.76
67.75
61.86
53.79
44.36
34.54
25.33
17.63
12.06
8.81
7.69
8.22
9.87
12.15
14.76
17.49
20.05
22.00
22.74
21.68
18.46
13.15
6.28
-1.28
-8.57
-14.90
-19.98
-24.01
-27.56
-31.40
-36.24
-42.48
-49.88
-57.47
-63.55
-66.03
-63.04
-53.57
-37.93
-17.82
4.17
25.27
43.31
57.02
66.10
70.78
71.50
68.72
62.97
54.94
45.55
35.89
26.91
19.28
13.26
8.82
5.83
4.20
3.96
5.08
7.40
10.45
13.43
15.42
15.56
13.41
9.09
3.23
-3.25
-9.44
-14.76
-19.11
-22.85
-26.70
-31.48
-37.89
-46.08
-55.36
-64.04
-69.66
-69.64
-62.21
-47.14
-26.02
-1.87
21.81
42.06
57.11
66.53
70.75
70.62
66.91
60.26
51.27
40.66
29.33
18.24
8.24
-0.09
-6.52
-11.11
-13.97
-15.21
-14.84
-13.00
-10.09
-6.90
-4.56
-4.16
-6.37
-11.14
-17.69
-24.81
-31.35
-36.61
-40.65
-44.11
-48.03
-53.39
-60.73
-69.85
-79.56
-87.77
-91.99
-89.93
-80.37
-63.53
-41.22
-16.28
8.15
29.44
45.91
56.92
62.69
63.88
61.36
55.96
48.43
39.47
29.75
19.97
10.82
2.96
-3.05
-6.87
-8.37
-7.70
-5.25
-1.65
2.27
5.57
7.39
7.17
4.79
0.65
-4.46
-9.68
-14.37
-18.35
-21.93
-25.80
-30.74
-37.34
-45.63
-54.85
-63.36
-68.98
-69.43
-63.17
-49.92
-30.90
-8.55
14.16
34.51
50.56
61.47
67.24
68.42
65.82
60.34
52.83
44.08
34.82
25.65
17.06
9.50
3.39
-0.89
-3.11
-3.26
-1.69
0.98
3.91
6.28
7.44
7.08
5.22
2.21
-1.49
-5.41
-9.28
-13.06
-17.00
-21.54
-27.13
-33.97
-41.64
-48.95
-54.00
-54.68
-49.37
-37.66
-20.64
-0.69
19.20
36.40
49.27
57.33
60.97
60.97
58.01
52.57
44.99
35.70
25.37
14.88
5.28
-2.55
-8.00
-10.90
-11.56
-10.59
-8.78
-6.85
-5.29
-4.37
-4.15
-4.62
-5.80
-7.79
-10.69
-14.61
-19.64
-25.91
-33.49
-42.13
-50.99
-58.46
-62.44
-60.88
-52.62
-37.88
-18.41
3.06
23.60
40.92
53.74
61.80
65.42
65.15
61.51
54.94
45.95
35.28
23.86
12.75
2.99
-4.65
-9.82
-12.60
-13.46
-13.06
-12.06
-10.96
-10.06
-9.51
-9.41
-9.88
-11.05
-13.16
-16.44
-21.23
-27.89
-36.64
-47.26
-58.73
-69.12
-75.87
-76.49
-69.45
-54.83
-34.42
-11.20
11.52
31.07
45.88
55.53
60.36
61.00
58.06
52.03
43.46
33.00
21.57
10.25
0.12
-7.88
-13.19
-15.79
-16.18
-15.20
-13.82
-12.78
-12.42
-12.72
-13.49
-14.63
-16.33
-19.05
-23.35
-29.76
-38.56
-49.65
-62.31
-75.06
-85.68
-91.53
-90.23
-80.41
-62.40
-38.17
-10.99
15.61
38.67
56.37
68.17
74.40
75.83
73.25
67.32
58.61
47.80
35.82
23.85
13.09
4.60
-1.09
-4.06
-4.88
-4.42
-3.53
-2.88
-2.81
-3.40
-4.56
-6.21
-8.38
-11.30
-15.39
-21.18
-29.09
-39.18
-50.98
-63.24
-74.01
-80.96
-81.94
-75.62
-62.02
-42.60
-19.93
3.02
23.64
40.12
51.70
58.39
60.63
59.04
54.16
46.57
36.97
26.26
15.55
6.06
-1.16
-5.50
-7.05
-6.48
-4.83
-3.03
-1.62
-0.62
0.22
1.05
1.59
1.20
-0.86
-5.08
-11.49
-19.67
-28.96
-38.51
-47.29
-53.97
-56.89
-54.43
-45.54
-30.35
-10.34
11.90
33.42
51.75
65.45
74.17
78.31
78.52
75.37
69.26
60.67
50.32
39.38
29.26
21.22
16.00
13.56
13.13
13.55
13.77
13.15
11.62
9.53
7.25
4.90
2.24
-1.29
-6.38
-13.53
-22.90
-34.01
-45.63
-55.76
-61.95
-61.91
-54.26
-39.11
-18.22
5.41
28.53
48.46
63.71
73.97
79.57
80.95
78.31
71.68
61.32
48.10
33.56
19.68
8.28
0.54
-3.38
-4.25
-3.42
-2.28
-1.76
-2.15
-3.22
-4.55
-5.94
-7.58
-10.04
-13.98
-19.88
-27.96
-38.09
-49.87
-62.35
-73.96
-82.35
-84.83
-79.11
-64.23
-41.25
-13.07
16.24
42.77
63.69
77.82
85.42
87.59
85.54
80.23
72.32
62.36
51.12
39.64
29.22
21.08
16.01
14.07
14.60
16.37
18.08
18.72
17.84
15.49
12.00
7.70
2.73
-2.95
-9.46
-16.87
-25.23
-34.59
-45.09
-56.68
-68.77
-79.84
-87.43
-88.67
-81.29
-64.61
-40.12
-11.18
17.91
43.24
62.24
74.03
79.11
78.69
74.05
66.27
56.33
45.25
34.21
24.49
17.10
12.58
10.82
11.16
12.77
14.95
17.27
19.52
21.49
22.71
22.44
19.94
14.80
7.23
-1.85
-11.21
-19.63
-26.49
-31.88
-36.57
-41.72
-48.39
-57.03
-67.05
-76.74
-83.46
-84.33
-77.17
-61.36
-38.21
-10.75
17.16
41.88
60.86
73.01
78.51
78.26
73.46
65.33
54.98
43.63
32.48
22.68
15.15
10.33
8.14
8.10
9.51
11.68
14.06
16.34
18.31
19.75
20.34
19.60
17.05
12.41
5.80
-2.18
-10.55
-18.22
-24.44
-29.03
-32.54
-36.04
-40.76
-47.58
-56.51
-66.47
-75.31
-80.35
-79.12
-70.20
-53.89
-32.12
-7.97
15.32
35.15
50.15
60.00
65.06
65.85
62.83
56.52
47.67
37.47
27.39
18.86
12.87
9.67
8.88
9.68
11.34
13.37
15.70
18.40
21.40
24.17
25.78
25.21
21.81
15.64
7.55
-1.12
-9.09
-15.62
-20.70
-24.99
-29.47
-35.08
-42.32
-51.02
-60.09
-67.64
-71.31
-68.90
-59.11
-42.17
-19.91
4.66
28.23
48.04
62.55
71.35
74.88
73.94
69.26
61.54
51.58
40.40
29.27
19.49
12.03
7.29
5.07
4.75
5.65
7.30
9.43
11.93
14.46
16.37
16.80
15.01
10.68
4.23
-3.40
-11.06
-17.82
-23.31
-27.79
-31.97
-36.74
-42.89
-50.79
-60.12
-69.66
-77.31
-80.48
-76.86
-65.22
-46.06
-21.67
4.52
28.90
48.73
62.61
70.47
73.11
71.55
66.66
59.14
49.70
39.23
28.88
19.83
12.99
8.76
6.91
6.75
7.52
8.66
9.93
11.40
13.13
14.84
15.88
15.37
12.51
7.04
-0.57
-9.25
-17.64
-24.64
-29.78
-33.33
-36.19
-39.52
-44.36
-51.23
-59.80
-68.73
-75.84
-78.60
-74.85
-63.60
-45.44
-22.52
2.15
25.47
45.07
59.64
68.82
72.91
72.46
68.14
60.74
51.23
40.74
30.53
21.71
15.12
11.16
9.71
10.28
12.12
14.44
16.64
18.37
19.55
20.16
20.12
19.16
16.89
12.97
7.33
0.38
-7.06
-13.97
-19.56
-23.58
-26.39
-28.90
-32.18
-37.06
-43.81
-51.89
-59.99
-66.15
-68.23
-64.49
-54.17
-37.88
-17.49
4.30
24.72
41.65
53.93
61.32
64.18
63.02
58.37
50.78
40.97
29.97
19.00
9.28
1.73
-3.26
-5.83
-6.54
-6.03
-4.81
-3.13
-1.05
1.38
3.90
5.93
6.77
5.80
2.76
-2.08
-8.01
-14.08
-19.53
-23.95
-27.47
-30.63
-34.17
-38.73
-44.69
-52.00
-60.04
-67.63
-73.13
-74.74
-71.01
-61.35
-46.38
-27.86
-8.24
10.02
25.07
35.99
42.71
45.68
45.43
42.43
37.01
29.59
20.74
11.26
2.04
-6.06
-12.41
-16.63
-18.60
-18.40
-16.30
-12.75
-8.37
-3.96
-0.41
1.59
1.63
-0.19
-3.31
-6.86
-9.95
-12.06
-13.13
-13.71
-14.68
-16.97
-21.25
-27.57
-35.24
-42.81
-48.33
-49.78
-45.70
-35.63
-20.45
-2.11
16.78
33.74
46.97
55.71
60.08
60.78
58.60
54.18
47.82
39.75
30.26
19.99
9.85
0.93
-5.86
-10.03
-11.64
-11.26
-9.69
-7.69
-5.83
-4.45
-3.76
-3.98
-5.32
-7.84
-11.37
-15.47
-19.60
-23.45
-27.16
-31.34
-36.86
-44.23
-53.09
-61.93
-68.36
-69.79
-64.39
-51.74
-33.18
-11.31
10.72
30.19
45.33
55.53
61.00
62.40
60.45
55.75
48.86
40.38
30.99
21.40
12.31
4.34
-1.97
-6.27
-8.39
-8.45
-6.88
-4.38
-1.76
0.23
1.09
0.64
-1.05
-3.75
-7.20
-11.17
-15.50
-20.14
-25.15
-30.80
-37.43
-45.27
-53.99
-62.45
-68.69
-70.35
-65.48
-53.30
-34.74
-12.22
11.00
31.77
47.91
58.52
63.79
64.59
61.85
56.36
48.71
39.51
29.46
19.49
10.55
3.47
-1.29
-3.67
-3.97
-2.76
-0.62
1.85
4.12
5.71
6.23
5.39
3.15
-0.32
-4.65
-9.37
-14.13
-18.80
-23.56
-28.88
-35.28
-43.04
-51.80
-60.35
-66.77
-68.83
-64.77
-53.98
-37.31
-16.90
4.46
24.12
40.18
51.74
58.65
61.28
60.13
55.80
48.97
40.44
31.12
21.86
13.42
6.30
0.86
-2.71
-4.37
-4.19
-2.45
0.39
3.65
6.59
8.48
8.79
7.37
4.42
0.44
-3.97
-8.32
-12.42
-16.43
-20.85
-26.22
-32.96
-40.96
-49.41
-56.78
-61.04
-60.28
-53.31
-40.16
-22.18
-1.75
18.44
35.98
49.31
57.79
61.55
61.17
57.40
50.92
42.36
32.35
21.66
11.23
2.08
-4.87
-9.01
-10.30
-9.22
-6.61
-3.48
-0.69
1.19
1.92
1.51
0.07
-2.28
-5.37
-9.08
-13.17
-17.49
-22.01
-26.95
-32.76
-39.80
-47.82
-55.67
-61.30
-62.32
-56.93
-44.75
-27.18
-6.97
12.72
29.29
41.40
48.92
52.48
52.82
50.38
45.25
37.50
27.47
16.03
4.51
-5.65
-13.25
-17.75
-19.37
-18.90
-17.46
-16.04
-15.23
-15.18
-15.70
-16.55
-17.61
-19.03
-21.09
-24.08
-28.22
-33.62
-40.26
-47.94
-56.09
-63.47
-68.30
-68.45
-62.20
-48.91
-29.50
-6.32
17.47
38.83
55.61
66.88
72.74
73.93
71.26
65.50
57.24
47.21
36.30
25.60
16.24
9.18
4.97
3.61
4.57
6.92
9.59
11.63
12.44
11.83
9.94
7.11
3.62
-0.39
-4.99
-10.36
-16.73
-24.34
-33.26
-43.35
-53.97
-63.86
-71.14
-73.64
-69.56
-58.13
-40.10
-17.68
6.04
27.91
45.52
57.63
64.10
65.55
62.91
57.12
49.03
39.41
29.06
18.85
9.70
2.45
-2.24
-4.04
-3.12
-0.09
4.02
8.05
10.92
12.01
11.19
8.76
5.27
1.22
-3.15
-7.81
-13.00
-18.96
-25.92
-34.02
-43.15
-52.75
-61.62
-67.92
-69.52
-64.63
-52.53
-34.07
-11.55
11.88
33.06
49.72
60.82
66.44
67.40
64.72
59.31
51.88
43.04
33.50
24.12
15.89
9.74
6.29
5.66
7.42
10.71
14.51
17.85
20.05
20.71
19.67
16.92
12.51
6.60
-0.49
-8.29
-16.25
-23.91
-31.18
-38.32
-45.75
-53.60
-61.22
-67.02
-68.83
-64.67
-53.61
-36.36
-15.10
7.13
27.40
43.67
55.05
61.63
64.00
62.85
58.69
51.95
43.13
33.01
22.68
13.49
6.73
3.27
3.32
6.27
10.94
15.88
19.81
21.98
22.20
20.70
17.92
14.25
9.97
5.21
-0.04
-5.84
-12.38
-19.89
-28.51
-38.06
-47.67
-55.75
-60.18
-58.89
-50.65
-35.61
-15.49
6.85
28.20
45.87
58.28
65.07
66.82
64.51
59.10
51.37
41.90
31.32
20.44
10.32
2.08
-3.34
-5.54
-4.74
-1.76
2.20
5.96
8.59
9.56
8.78
6.41
2.75
-1.88
-7.13
-12.73
-18.40
-24.06
-29.94
-36.54
-44.45
-53.85
-63.98
-72.98
-78.16
-76.88
-67.60
-50.61
-28.08
-3.38
19.97
39.35
53.43
62.06
65.72
65.03
60.51
52.76
42.58
31.21
20.06
10.49
3.42
-0.75
-2.16
-1.29
1.28
4.92
8.90
12.46
14.78
15.19
13.37
9.52
4.21
-1.80
-7.89
-13.77
-19.52
-25.49
-32.13
-39.82
-48.79
-58.88
-69.36
-78.79
-85.07
-85.92
-79.60
-65.63
-45.19
-20.89
3.88
25.98
43.31
55.07
61.62
63.85
62.66
58.72
52.46
44.38
35.35
26.57
19.35
14.73
13.06
13.95
16.43
19.41
22.12
24.26
25.90
27.15
27.87
27.54
25.51
21.32
15.08
7.49
-0.34
-7.36
-12.98
-17.29
-20.99
-25.10
-30.55
-37.80
-46.57
-55.69
-63.21
-66.83
-64.51
-55.23
-39.45
-19.06
3.10
24.11
41.80
55.07
63.79
68.26
68.79
65.52
58.59
48.54
36.51
24.12
13.10
4.80
-0.20
-2.12
-1.76
-0.04
2.28
4.85
7.61
10.54
13.42
15.74
16.81
15.97
12.92
7.87
1.48
-5.39
-11.99
-17.91
-23.17
-28.16
-33.40
-39.34
-46.13
-53.49
-60.57
-66.02
-68.22
-65.68
-57.60
-44.17
-26.66
-7.06
12.38
29.72
43.67
53.58
59.39
61.30
59.75
55.27
48.48
40.15
31.16
22.39
14.66
8.66
4.84
3.41
4.24
6.95
10.87
15.18
19.04
21.69
22.65
21.74
19.13
15.20
10.45
5.33
0.19
-4.78
-9.61
-14.59
-20.20
-26.98
-35.14
-44.15
-52.61
-58.38
-59.19
-53.48
-41.04
-23.22
-2.58
17.90
35.71
49.35
58.42
63.31
64.67
63.05
58.78
52.11
43.51
33.68
23.59
14.26
6.56
1.09
-1.87
-2.34
-0.67
2.54
6.41
9.97
12.37
13.08
11.97
9.31
5.63
1.50
-2.60
-6.49
-10.38
-14.82
-20.62
-28.39
-38.03
-48.40
-57.32
-62.12
-60.55
-51.61
-36.04
-16.08
5.30
25.24
41.65
53.49
60.58
63.24
61.95
57.30
49.91
40.52
29.97
19.18
9.06
0.43
-6.06
-10.00
-11.33
-10.33
-7.69
-4.32
-1.28
0.57
0.66
-1.14
-4.53
-8.98
-13.98
-19.20
-24.54
-30.17
-36.35
-43.43
-51.59
-60.62
-69.71
-77.24
-81.05
-79.00
-69.70
-53.24
-31.37
-7.00
16.54
36.51
51.23
60.27
64.01
63.27
58.94
51.83
42.73
32.42
21.73
11.53
2.63
-4.26
-8.65
-10.32
-9.46
-6.63
-2.72
1.20
4.19
5.54
4.98
2.65
-1.03
-5.54
-10.47
-15.55
-20.75
-26.21
-32.21
-39.08
-46.95
-55.52
-63.78
-69.99
-72.04
-68.11
-57.42
-40.67
-19.99
1.71
21.55
37.49
48.59
54.85
56.81
55.16
50.49
43.37
34.42
24.48
14.50
5.49
-1.70
-6.51
-8.72
-8.48
-6.22
-2.63
1.47
5.21
7.82
8.78
7.94
5.50
1.91
-2.32
-6.81
-11.40
-16.13
-21.23
-27.03
-33.86
-41.79
-50.36
-58.32
-63.72
-64.44
-58.92
-46.87
-29.59
-9.59
10.22
27.39
40.51
49.22
53.82
54.83
52.68
47.66
40.12
30.68
20.28
10.18
1.67
-4.19
-6.82
-6.31
-3.38
0.78
4.90
7.94
9.34
9.05
7.30
4.48
0.89
-3.27
-7.87
-12.80
-18.00
-23.55
-29.66
-36.56
-44.21
-51.95
-58.35
-61.43
-59.30
-50.86
-36.40
-17.70
2.51
21.36
36.64
47.23
53.12
54.87
53.22
48.73
41.78
32.76
22.33
11.48
1.41
-6.68
-11.99
-14.24
-13.72
-11.17
-7.53
-3.74
-0.57
1.42
2.00
1.16
-0.88
-3.83
-7.42
-11.52
-16.14
-21.50
-27.89
-35.60
-44.68
-54.66
-64.30
-71.61
-74.22
-70.12
-58.44
-39.99
-17.23
6.52
27.95
44.72
55.84
61.49
62.52
59.88
54.35
46.56
37.15
26.96
17.01
8.39
1.98
-1.71
-2.63
-1.16
2.08
6.34
10.81
14.67
17.13
17.56
15.64
11.49
5.69
-0.92
-7.45
-13.37
-18.62
-23.64
-29.20
-36.07
-44.57
-54.25
-63.69
-70.67
-72.73
-67.90
-55.54
-36.65
-13.74
9.99
31.50
48.72
60.77
67.67
69.95
68.21
63.03
55.12
45.43
35.22
25.77
18.16
12.98
10.32
9.89
11.25
13.96
17.59
21.66
25.58
28.58
29.91
28.98
25.62
20.15
13.27
5.91
-1.11
-7.24
-12.36
-16.75
-20.95
-25.72
-31.69
-39.18
-47.74
-56.11
-62.22
-63.74
-58.88
-47.11
-29.52
-8.48
13.09
32.67
48.70
60.61
68.42
72.24
72.02
67.71
59.64
48.78
36.80
25.58
16.68
10.87
8.04
7.46
8.21
9.62
11.43
13.62
16.18
18.77
20.72
21.22
19.63
15.77
9.98
2.98
-4.41
-11.58
-18.10
-23.82
-28.69
-32.84
-36.52
-40.23
-44.61
-50.06
-56.44
-62.62
-66.76
-66.75
-61.08
-49.50
-33.13
-14.18
4.90
22.06
36.09
46.42
52.91
55.50
54.22
49.37
41.64
32.15
22.20
13.00
5.40
-0.15
-3.53
-4.83
-4.28
-2.20
0.96
4.64
8.23
11.11
12.74
12.73
10.75
6.65
0.41
-7.83
-17.70
-28.59
-39.78
-50.56
-60.50
-69.57
-77.99
-86.00
-93.32
-98.85
-100.77
-97.14
-86.72
-69.60
-47.40
-22.79
1.34
22.79
40.33
53.73
63.19
68.94
70.96
69.17
63.79
55.55
45.72
35.87
27.36
21.09
17.25
15.53
15.34
16.16
17.71
19.87
22.56
25.42
27.83
28.96
28.09
24.93
19.78
13.41
6.80
0.74
-4.41
-8.83
-13.11
-17.98
-24.11
-31.88
-41.16
-51.08
-60.04
-65.84
-66.26
-59.74
-46.01
-26.39
-3.39
19.86
40.59
56.90
67.95
73.74
74.79
71.74
65.31
56.30
45.71
34.72
24.61
16.45
10.95
8.28
8.15
9.90
12.77
16.07
19.25
21.98
24.00
25.02
24.70
22.67
18.66
12.70
5.20
-3.08
-11.21
-18.47
-24.51
-29.59
-34.40
-39.83
-46.55
-54.72
-63.72
-72.16
-78.14
-79.61
-75.08
-64.02
-47.27
-26.83
-5.41
14.27
30.14
41.13
47.17
48.84
46.97
42.35
35.55
27.07
17.44
7.38
-2.15
-10.18
-15.89
-18.88
-19.17
-17.13
-13.19
-7.73
-1.00
6.75
14.98
22.75
28.88
32.12
31.73
27.78
21.16
13.28
5.54
-1.20
-6.81
-11.79
-16.89
-22.69
-29.36
-36.63
-43.81
-49.90
-53.70
-53.95
-49.60
-40.14
-25.95
-8.31
10.81
29.21
44.99
56.91
64.40
67.45
66.38
61.70
54.10
44.43
33.77
23.24
13.87
6.50
1.55
-0.94
-1.26
0.09
2.57
5.67
8.95
11.94
14.17
15.12
14.44
12.05
8.27
3.70
-0.92
-5.02
-8.42
-11.35
-14.41
-18.34
-23.78
-30.99
-39.65
-48.75
-56.64
-61.41
-61.39
-55.68
-44.48
-29.03
-11.31
6.55
22.73
36.01
45.72
51.59
53.61
51.97
47.06
39.58
30.42
20.61
11.13
2.81
-3.77
-8.28
-10.64
-10.94
-9.46
-6.64
-3.05
0.57
3.40
4.73
4.08
1.41
-2.95
-8.28
-13.80
-18.92
-23.42
-27.50
-31.72
-36.83
-43.41
-51.60
-60.74
-69.26
-74.92
-75.43
-69.20
-56.07
-37.43
-15.82
5.89
25.25
40.81
51.98
58.80
61.48
60.29
55.60
48.01
38.49
28.22
18.38
9.89
3.30
-1.25
-3.85
-4.71
-4.08
-2.19
0.67
4.02
7.18
9.30
9.54
7.36
2.79
-3.57
-10.69
-17.48
-23.25
-27.92
-32.03
-36.53
-42.37
-50.07
-59.38
-69.09
-77.17
-81.23
-79.21
-70.07
-54.26
-33.57
-10.70
11.57
31.02
46.30
56.88
62.77
64.24
61.67
55.65
47.00
36.83
26.44
17.10
9.76
4.90
2.47
1.98
2.86
4.63
7.05
9.95
13.02
15.63
16.85
15.75
11.81
5.27
-2.93
-11.43
-19.06
-25.17
-29.90
-33.97
-38.36
-43.88
-50.91
-59.14
-67.51
-74.28
-77.39
-75.00
-66.13
-51.11
-31.56
-9.98
11.00
29.37
43.96
54.44
60.85
63.32
61.91
56.85
48.73
38.64
28.04
18.40
10.78
5.66
2.86
1.84
1.96
2.78
4.13
6.02
8.40
10.94
13.03
13.84
12.72
9.46
4.40
-1.67
-7.86
-13.47
-18.25
-22.39
-26.37
-30.78
-36.13
-42.68
-50.23
-57.94
-64.32
-67.44
-65.47
-57.36
-43.31
-24.84
-4.40
15.48
32.75
46.28
55.76
61.31
63.18
61.56
56.72
49.18
39.82
29.80
20.39
12.66
7.22
4.23
3.37
4.12
5.93
8.41
11.34
14.57
17.77
20.35
21.52
20.58
17.24
11.84
5.20
-1.58
-7.63
-12.59
-16.67
-20.52
-24.90
-30.43
-37.40
-45.60
-54.30
-62.20
-67.57
-68.62
-64.07
-53.58
-38.05
-19.32
0.19
18.24
33.23
44.37
51.51
54.87
54.68
51.22
44.82
36.14
26.20
16.36
7.92
1.88
-1.41
-2.17
-1.11
1.03
3.75
6.83
10.22
13.70
16.68
18.30
17.71
14.51
9.01
2.17
-4.74
-10.73
-15.42
-19.15
-22.94
-27.94
-34.99
-44.14
-54.40
-63.86
-70.08
-70.82
-64.75
-51.93
-33.83
-12.89
8.22
27.27
42.88
54.51
62.06
65.62
65.26
61.15
53.72
43.92
33.03
22.43
13.30
6.33
1.69
-0.81
-1.47
-0.56
1.72
5.09
9.06
12.84
15.47
16.03
14.02
9.51
3.18
-3.94
-10.83
-16.85
-21.95
-26.65
-31.82
-38.32
-46.71
-56.79
-67.50
-76.89
-82.55
-82.27
-74.78
-60.27
-40.44
-18.00
4.14
23.67
39.26
50.55
57.68
60.96
60.54
56.62
49.60
40.35
30.18
20.60
12.92
7.95
5.87
6.27
8.51
11.91
16.00
20.43
24.81
28.55
30.84
30.88
28.19
22.85
15.58
7.52
-0.24
-7.02
-12.77
-17.98
-23.43
-29.86
-37.74
-46.98
-56.80
-65.65
-71.37
-71.70
-64.99
-50.97
-30.95
-7.65
15.73
36.40
52.74
64.33
71.53
74.86
74.59
70.71
63.31
53.00
40.98
28.97
18.64
11.20
7.11
6.08
7.40
10.27
14.04
18.37
22.99
27.53
31.39
33.72
33.68
30.80
25.22
17.74
9.62
2.04
-4.30
-9.47
-14.17
-19.41
-26.06
-34.49
-44.44
-55.00
-64.77
-71.97
-74.75
-71.58
-61.77
-45.84
-25.60
-3.73
16.97
34.39
47.51
56.35
61.44
63.25
61.90
57.29
49.48
39.17
27.74
16.98
8.54
3.37
1.48
2.15
4.32
7.12
10.08
13.13
16.19
18.94
20.60
20.29
17.40
11.98
4.88
-2.56
-9.05
-13.83
-17.05
-19.58
-22.60
-27.18
-33.85
-42.47
-52.20
-61.60
-68.81
-71.90
-69.24
-60.08
-44.86
-25.22
-3.60
17.45
35.80
50.13
59.93
65.25
66.40
63.82
58.04
49.78
39.95
29.63
19.93
11.78
5.83
2.42
1.47
2.67
5.49
9.25
13.23
16.72
19.06
19.76
18.59
15.65
11.29
6.10
0.63
-4.68
-9.70
-14.62
-19.94
-26.27
-34.04
-43.06
-52.25
-59.68
-63.01
-60.23
-50.45
-34.28
-13.81
8.09
28.59
45.54
57.82
65.22
68.07
66.96
62.44
55.04
45.36
34.10
22.19
10.67
0.62
-7.04
-11.76
-13.44
-12.41
-9.43
-5.49
-1.62
1.23
2.39
1.59
-1.12
-5.32
-10.42
-15.90
-21.42
-27.01
-33.02
-40.05
-48.65
-59.03
-70.64
-81.88
-90.34
-93.25
-88.45
-75.18
-54.59
-29.44
-3.29
20.58
39.97
54.03
62.95
67.35
67.78
64.59
58.07
48.75
37.64
26.06
15.47
7.10
1.62
-0.80
-0.47
2.02
5.97
10.58
14.98
18.25
19.61
18.54
15.00
9.42
2.51
-4.97
-12.41
-19.56
-26.58
-33.96
-42.36
-52.28
-63.57
-75.08
-84.55
-89.14
-86.27
-74.70
-55.15
-30.15
-3.31
21.89
42.89
58.50
68.61
73.66
74.14
70.49
63.17
52.90
40.89
28.66
17.76
9.42
4.23
2.08
2.38
4.31
7.12
10.28
13.31
15.70
16.80
15.95
12.74
7.28
0.16
-7.74
-15.60
-23.03
-30.18
-37.67
-46.24
-56.40
-68.05
-80.18
-90.83
-97.44
-97.52
-89.45
-73.16
-50.29
-23.81
2.92
26.96
46.42
60.49
69.12
72.61
71.38
65.97
57.20
46.22
34.46
23.38
14.22
7.78
4.37
3.86
5.75
9.35
13.89
18.53
22.43
24.78
24.90
22.42
17.34
10.15
1.68
-7.09
-15.38
-22.80
-29.52
-36.21
-43.77
-52.99
-64.00
-75.92
-86.70
-93.55
-93.73
-85.54
-68.99
-45.90
-19.41
7.06
30.60
49.38
62.61
70.22
72.47
69.80
62.82
52.43
39.94
26.91
14.94
5.38
-0.98
-3.95
-3.92
-1.60
2.18
6.71
11.43
15.86
19.45
21.57
21.56
19.02
14.03
7.22
-0.36
-7.65
-13.98
-19.30
-24.18
-29.54
-36.29
-44.90
-55.14
-65.83
-74.98
-80.09
-78.89
-70.00
-53.61
-31.47
-6.49
18.11
39.67
56.56
68.15
74.54
76.08
73.16
66.31
56.25
44.14
31.46
19.78
10.51
4.58
2.28
3.34
6.90
11.86
17.09
21.62
24.72
25.98
25.21
22.43
17.82
11.73
4.69
-2.70
-9.92
-16.76
-23.47
-30.72
-39.37
-49.85
-61.55
-72.52
-79.85
-80.46
-72.40
-55.63
-32.27
-5.88
19.76
41.74
58.58
70.05
76.57
78.61
76.38
70.05
60.15
47.73
34.39
21.89
11.74
4.92
1.62
1.46
3.72
7.51
11.98
16.33
19.79
21.63
21.24
18.27
12.79
5.35
-3.21
-11.92
-20.08
-27.45
-34.34
-41.49
-49.83
-59.94
-71.56
-83.20
-92.19
-95.31
-89.83
-74.63
-50.76
-21.30
9.62
38.01
61.06
77.51
87.34
91.21
89.93
84.23
74.82
62.66
49.05
35.56
23.74
14.77
9.26
7.15
7.86
10.55
14.38
18.62
22.58
25.51
26.65
25.32
21.17
14.43
5.84
-3.52
-12.67
-21.04
-28.71
-36.31
-44.83
-55.12
-67.42
-80.77
-92.95
-100.82
-101.22
-92.10
-73.39
-47.17
-17.13
12.64
38.72
59.01
72.78
80.19
81.81
78.30
70.38
59.02
45.54
31.49
18.49
7.91
0.66
-2.91
-3.01
-0.17
4.81
10.98
17.30
22.70
26.12
26.77
24.31
18.93
11.37
2.64
-6.28
-14.74
-22.60
-30.22
-38.33
-47.73
-58.86
-71.30
-83.50
-92.78
-96.02
-90.65
-75.70
-52.29
-23.48
6.74
34.56
57.29
73.72
83.72
87.83
86.70
80.93
71.23
58.56
44.26
29.92
17.15
7.26
1.09
-1.21
-0.02
3.80
9.18
14.98
20.12
23.68
24.92
23.38
18.99
12.10
3.52
-5.73
-14.68
-22.76
-30.00
-37.10
-45.11
-54.89
-66.51
-78.70
-88.88
-93.82
-90.67
-78.12
-56.99
-30.05
-1.09
26.23
49.31
66.86
78.64
84.82
85.65
81.40
72.56
60.07
45.40
30.26
16.39
5.12
-2.68
-6.68
-6.98
-4.07
1.26
7.88
14.46
19.60
22.21
21.73
18.30
12.66
5.83
-1.29
-8.21
-15.01
-22.12
-30.25
-40.05
-51.79
-64.93
-77.83
-87.77
-91.55
-86.52
-71.70
-48.37
-19.81
9.72
36.33
57.52
72.37
81.17
84.63
83.35
77.70
68.05
55.11
40.12
24.72
10.69
-0.42
-7.61
-10.54
-9.64
-5.91
-0.68
4.63
8.85
11.18
11.27
9.15
5.16
-0.28
-6.70
-13.79
-21.49
-30.01
-39.82
-51.45
-65.04
-79.77
-93.56
-103.24
-105.31
-97.26
-78.62
-51.33
-19.36
12.65
40.68
62.26
76.59
84.06
85.46
81.64
73.31
61.30
46.80
31.28
16.41
3.69
-5.73
-11.23
-12.74
-10.73
-6.07
-0.00
6.14
11.07
13.82
13.89
11.27
6.38
-0.12
-7.57
-15.48
-23.70
-32.40
-42.10
-53.39
-66.58
-81.12
-95.24
-105.98
-109.85
-104.04
-87.51
-61.62
-29.84
3.30
33.57
58.05
75.44
85.71
89.49
87.55
80.64
69.60
55.55
39.92
24.41
10.65
0.04
-6.55
-8.87
-7.33
-2.86
3.27
9.66
15.02
18.31
18.86
16.46
11.41
4.40
-3.63
-11.80
-19.56
-26.80
-33.99
-41.94
-51.53
-63.20
-76.31
-88.89
-97.75
-99.34
-90.99
-72.05
-44.38
-11.89
20.73
49.41
71.65
86.71
94.99
97.37
94.61
87.31
76.16
62.17
46.80
31.73
18.54
8.41
1.99
-0.66
0.10
3.56
8.73
14.45
19.45
22.59
23.03
20.51
15.37
8.38
0.49
-7.53
-15.30
-22.88
-30.74
-39.54
-49.94
-62.11
-75.30
-87.57
-95.93
-97.11
-88.71
-70.24
-43.62
-12.64
18.18
44.98
65.45
78.96
86.00
87.38
83.82
75.79
63.89
49.12
33.05
17.54
4.41
-4.94
-9.82
-10.30
-7.09
-1.30
5.70
12.54
17.98
21.06
21.22
18.40
12.98
5.72
-2.51
-10.93
-19.07
-26.93
-35.02
-44.16
-55.11
-67.86
-81.16
-92.33
-97.88
-94.67
-81.14
-58.16
-28.83
2.54
31.75
55.90
73.73
85.21
90.84
91.12
86.42
77.17
64.20
48.92
33.05
18.44
6.61
-1.41
-5.24
-5.12
-1.78
3.63
9.73
15.13
18.64
19.55
17.67
13.32
7.12
-0.19
-8.05
-16.05
-24.08
-32.24
-40.90
-50.57
-61.66
-73.89
-85.96
-95.38
-98.99
-94.07
-79.39
-55.95
-26.74
4.14
32.65
55.89
72.49
82.35
86.09
84.56
78.54
68.74
55.98
41.32
26.10
11.82
-0.05
-8.34
-12.49
-12.60
-9.50
-4.41
1.24
6.20
9.57
10.91
10.16
7.59
3.61
-1.33
-6.77
-12.42
-18.23
-24.50
-31.90
-41.13
-52.53
-65.37
-77.57
-85.92
-87.02
-78.51
-60.19
-34.22
-4.60
24.28
48.87
67.31
79.25
85.26
86.04
82.00
73.33
60.43
44.25
26.46
9.19
-5.41
-15.66
-20.73
-20.84
-17.14
-11.36
-5.34
-0.54
2.28
3.02
2.03
-0.23
-3.49
-7.76
-13.19
-20.02
-28.42
-38.60
-50.62
-64.13
-77.91
-89.63
-96.12
-94.31
-82.40
-60.78
-32.16
-0.74
29.07
53.93
72.15
83.51
88.62
88.18
82.72
72.67
58.71
42.02
24.34
7.71
-5.94
-15.24
-19.75
-20.00
-17.25
-13.09
-8.91
-5.67
-3.81
-3.42
-4.48
-6.95
-10.89
-16.34
-23.31
-31.88
-42.25
-54.71
-69.29
-85.19
-100.30
-111.33
-114.56
-107.16
-88.35
-60.00
-26.05
8.65
39.87
64.88
82.63
93.33
97.56
95.91
88.89
77.13
61.76
44.52
27.52
12.92
2.44
-3.03
-3.60
-0.30
5.22
11.15
15.96
18.67
18.94
16.90
12.94
7.46
0.80
-6.90
-15.59
-25.41
-36.60
-49.51
-64.20
-80.04
-95.22
-106.74
-111.01
-105.00
-87.49
-59.80
-25.63
10.02
42.34
67.93
85.28
94.53
96.74
93.19
85.02
73.23
58.93
43.43
28.34
15.33
5.81
0.63
-0.11
2.86
8.27
14.54
20.21
24.13
25.61
24.37
20.49
14.24
6.13
-3.21
-13.11
-23.02
-32.68
-42.33
-52.59
-64.07
-76.63
-88.79
-97.68
-99.72
-91.91
-73.18
-45.05
-11.37
22.93
53.37
77.08
93.01
101.51
103.44
99.66
90.85
77.89
62.15
45.54
30.21
18.00
10.01
6.45
6.75
9.92
14.85
20.52
25.95
30.20
32.40
31.90
28.46
22.35
14.28
5.18
-4.06
-12.84
-20.99
-28.72
-36.69
-45.70
-56.37
-68.53
-80.80
-90.50
-94.25
-89.03
-73.46
-48.57
-17.61
14.83
44.34
67.78
83.79
92.52
94.89
91.92
84.41
73.04
58.73
42.82
27.08
13.38
3.25
-2.53
-4.05
-2.16
1.96
7.16
12.53
17.40
21.16
23.14
22.65
19.24
12.99
4.61
-4.75
-13.91
-22.06
-29.11
-35.62
-42.62
-51.13
-61.57
-73.28
-84.23
-91.39
-91.54
-82.42
-63.67
-37.17
-6.47
24.34
51.78
73.64
89.06
98.01
100.82
97.85
89.57
76.85
61.09
44.18
28.14
14.75
5.18
-0.14
-1.50
0.37
4.47
9.77
15.23
19.89
22.82
23.34
21.14
16.42
9.89
2.49
-4.89
-11.74
-18.09
-24.43
-31.60
-40.44
-51.30
-63.55
-75.32
-83.71
-85.56
-78.61
-62.48
-39.03
-11.76
15.30
38.83
56.89
68.93
75.23
76.23
72.24
63.55
50.78
35.16
18.52
2.98
-9.55
-17.78
-21.33
-20.72
-17.19
-12.26
-7.39
-3.69
-1.70
-1.50
-2.82
-5.25
-8.45
-12.34
-17.07
-23.07
-30.89
-41.03
-53.63
-68.01
-82.34
-93.71
-98.65
-94.26
-79.26
-54.76
-24.10
8.19
37.66
61.22
77.54
86.75
89.76
87.46
80.54
69.51
55.14
38.61
21.61
6.05
-6.30
-14.27
-17.54
-16.75
-13.25
-8.71
-4.61
-1.92
-1.02
-1.76
-3.86
-7.12
-11.52
-17.18
-24.19
-32.60
-42.51
-54.13
-67.57
-82.30
-96.60
-107.42
-111.00
-104.11
-85.53
-56.87
-22.23
13.08
44.25
68.25
84.18
92.66
94.85
91.74
83.91
71.94
56.80
40.03
23.69
9.86
0.19
-4.53
-4.50
-0.81
4.87
10.78
15.48
18.14
18.56
16.98
13.73
9.06
3.04
-4.35
-13.11
-23.17
-34.56
-47.39
-61.57
-76.34
-89.75
-98.71
-99.72
-90.19
-69.68
-40.38
-6.67
26.33
54.30
74.72
87.01
91.90
90.58
84.12
73.35
59.13
42.68
25.66
10.01
-2.46
-10.54
-13.87
-13.05
-9.42
-4.61
-0.17
2.80
3.81
2.87
0.30
-3.54
-8.46
-14.43
-21.51
-29.81
-39.42
-50.41
-62.75
-75.96
-88.82
-99.06
-103.63
-99.55
-85.09
-60.64
-29.03
5.22
37.23
63.16
81.14
91.13
94.36
92.28
85.97
76.02
62.82
47.22
30.78
15.71
4.34
-1.69
-2.10
1.98
8.34
14.57
18.91
20.70
20.27
18.39
15.64
12.14
7.44
1.06
-7.28
-17.48
-29.27
-42.37
-56.44
-70.64
-83.21
-91.39
-92.07
-82.91
-63.55
-36.05
-4.43
26.64
53.25
73.18
85.91
92.00
92.31
87.43
77.77
63.98
47.27
29.53
13.01
-0.14
-8.55
-11.92
-11.13
-7.76
-3.63
-0.15
1.96
2.63
2.12
0.66
-1.76
-5.38
-10.51
-17.35
-26.01
-36.54
-48.92
-62.64
-76.32
-87.45
-92.81
-89.41
-75.68
-52.38
-22.54
9.42
39.12
63.35
80.66
90.99
95.01
93.38
86.59
75.09
59.80
42.30
24.74
9.39
-1.92
-8.39
-10.33
-8.96
-5.92
-2.69
-0.14
1.44
2.20
2.34
1.79
0.20
-2.89
-7.92
-15.09
-24.41
-35.71
-48.51
-61.67
-73.25
-80.50
-80.56
-71.40
-52.82
-26.79
3.05
32.44
57.81
77.04
89.51
95.61
96.01
91.28
81.87
68.43
52.17
34.86
18.59
5.25
-3.94
-8.73
-9.75
-8.27
-5.69
-3.15
-1.32
-0.42
-0.46
-1.39
-3.32
-6.47
-11.02
-17.08
-24.64
-33.75
-44.42
-56.44
-68.93
-80.00
-86.93
-86.82
-77.63
-59.11
-33.13
-3.22
26.49
52.41
72.26
85.20
91.37
91.39
85.96
75.83
61.92
45.57
28.50
12.66
-0.13
-8.61
-12.39
-12.04
-8.83
-4.31
0.15
3.71
6.11
7.45
7.88
7.41
5.78
2.67
-2.16
-8.78
-17.10
-27.05
-38.34
-50.25
-61.23
-68.93
-70.66
-64.34
-49.43
-27.46
-1.59
24.37
47.15
64.84
76.88
83.48
84.95
81.32
72.53
58.98
41.93
23.53
6.33
-7.49
-16.70
-21.33
-22.41
-21.43
-19.69
-17.98
-16.48
-15.04
-13.55
-12.25
-11.75
-12.83
-16.11
-21.98
-30.45
-41.39
-54.31
-68.16
-81.07
-90.36
-93.05
-86.86
-71.14
-47.39
-18.87
10.34
36.63
57.60
72.29
80.74
83.38
80.64
72.92
60.81
45.43
28.44
11.85
-2.39
-12.81
-18.84
-20.81
-19.73
-16.98
-13.78
-11.00
-9.05
-7.98
-7.72
-8.22
-9.61
-12.11
-16.05
-21.79
-29.74
-40.15
-52.88
-66.88
-80.02
-89.24
-91.27
-83.81
-66.39
-40.85
-10.84
19.29
45.72
66.05
79.44
86.20
87.14
83.08
74.66
62.58
47.79
31.62
15.73
1.77
-8.92
-15.62
-18.37
-17.88
-15.26
-11.73
-8.34
-5.84
-4.64
-4.92
-6.72
-10.00
-14.63
-20.45
-27.33
-35.27
-44.46
-55.12
-67.19
-79.77
-90.89
-97.68
-97.17
-87.35
-68.09
-41.35
-10.71
19.79
46.66
67.68
81.96
89.57
91.09
87.25
78.86
66.88
52.43
36.88
21.65
8.13
-2.52
-9.54
-12.66
-12.22
-9.05
-4.41
0.36
4.02
5.68
4.96
1.90
-3.04
-9.25
-16.13
-23.29
-30.59
-38.24
-46.70
-56.54
-68.01
-80.48
-92.15
-100.12
-101.17
-92.83
-74.46
-47.72
-16.11
16.06
44.90
67.81
83.64
92.41
94.72
91.43
83.50
71.99
58.10
43.14
28.38
15.02
4.06
-3.80
-8.20
-9.21
-7.33
-3.46
1.32
5.84
9.11
10.49
9.71
7.00
2.84
-2.16
-7.51
-13.03
-18.85
-25.47
-33.40
-42.96
-53.79
-64.53
-72.88
-76.04
-71.58
-58.44
-37.38
-11.02
17.00
43.03
64.37
79.75
89.06
92.97
92.25
87.55
79.33
68.09
54.61
40.06
25.93
13.75
4.76
-0.41
-1.90
-0.53
2.39
5.45
7.50
7.81
6.16
2.76
-1.97
-7.53
-13.50
-19.67
-26.11
-33.25
-41.79
-52.35
-64.98
-78.59
-90.74
-98.12
-97.56
-87.22
-67.42
-40.69
-10.90
17.91
42.62
61.48
74.02
80.44
81.20
76.83
67.96
55.50
40.65
24.82
9.47
-4.06
-14.72
-21.92
-25.58
-26.24
-24.79
-22.33
-19.75
-17.68
-16.41
-16.08
-16.80
-18.70
-21.89
-26.40
-32.27
-39.61
-48.82
-60.38
-74.43
-90.12
-105.21
-116.18
-119.14
-111.16
-91.52
-62.11
-26.93
9.07
41.50
67.52
86.01
97.13
101.52
99.84
92.68
80.76
65.28
47.91
30.61
15.17
2.89
-5.59
-10.17
-11.16
-9.14
-4.92
0.41
5.56
9.20
10.33
8.46
3.79
-2.94
-10.80
-18.99
-27.25
-36.02
-46.23
-58.84
-74.11
-90.94
-106.63
-117.34
-119.27
-109.91
-89.07
-58.97
-23.64
12.37
45.10
71.83
91.23
102.95
107.28
104.89
96.79
84.26
68.89
52.40
36.43
22.42
11.50
4.34
1.16
1.75
5.45
11.23
17.75
23.56
27.33
28.17
25.80
20.62
13.51
5.43
-2.90
-11.20
-19.68
-28.85
-39.44
-51.94
-66.28
-81.28
-94.49
-102.48
-101.82
-90.33
-68.12
-37.85
-4.00
28.58
56.02
76.27
88.98
94.83
94.67
89.16
78.76
64.17
46.60
27.86
10.05
-4.86
-15.50
-21.34
-22.66
-20.35
-15.66
-9.91
-4.27
0.33
3.30
4.33
3.38
0.64
-3.55
-8.85
-15.03
-22.15
-30.69
-41.33
-54.54
-69.90
-85.55
-98.25
-104.07
-99.75
-84.04
-58.32
-26.33
7.07
37.41
61.78
79.16
89.99
95.28
95.96
92.52
85.24
74.53
61.31
47.12
33.81
23.21
16.57
14.24
15.56
19.14
23.35
26.78
28.63
28.65
27.02
24.01
19.76
14.25
7.36
