1553536817.00
64.000000
-0.00
-0.00
-0.00
-0.00
-0.00
-0.00
-0.00
-0.00
-0.00
-0.00
0.00
0.01
0.01
-0.00
-0.03
-0.05
-0.05
0.00
0.13
0.36
0.66
1.01
1.37
1.72
2.06
2.40
2.79
3.24
3.80
4.42
5.06
5.66
6.20
6.68
7.15
7.68
8.31
9.14
10.09
11.04
11.88
12.56
13.14
13.76
14.65
15.96
17.91
20.32
22.90
25.38
27.58
29.57
31.68
34.32
37.81
42.54
48.15
54.10
59.83
64.97
69.58
74.14
79.34
85.71
93.76
102.99
112.61
121.73
129.76
136.75
143.32
150.78
157.84
166.75
178.11
192.02
207.28
220.98
228.78
226.03
209.36
177.86
133.93
81.41
24.63
-33.17
-90.45
-146.95
-202.78
-257.67
-310.76
-360.57
-406.18
-446.89
-482.13
-511.04
-532.24
-543.95
-544.36
-532.33
-507.60
-471.37
-425.80
-373.57
-317.37
-259.45
-201.47
-144.60
-89.78
-37.79
10.35
53.71
91.51
123.38
149.43
170.28
186.79
199.88
210.28
218.29
223.93
227.10
227.76
226.21
223.12
219.40
215.88
213.10
210.96
208.83
205.76
200.87
193.66
184.31
173.43
161.73
149.59
136.51
121.43
103.09
80.59
53.98
24.63
-5.33
-33.72
-58.55
-79.59
-97.93
-115.32
-133.16
-152.09
-171.71
-191.16
-209.10
-223.38
-231.12
-229.28
-216.22
-193.03
-164.82
-136.84
-113.17
-94.64
-78.35
-59.40
-33.62
-0.03
39.18
79.21
115.94
147.34
173.46
195.00
211.45
220.66
219.48
205.54
177.50
136.48
85.75
30.63
-21.99
-65.00
-92.33
-101.85
-96.29
-82.35
-67.73
-58.36
-56.36
-60.12
-66.37
-72.21
-77.03
-82.19
-89.41
-98.78
-108.33
-114.78
-115.27
-108.89
-97.25
-83.96
-72.87
-66.64
-65.11
-65.66
-64.18
-56.50
-39.36
-10.81
29.29
78.96
133.62
186.43
229.51
256.40
264.78
257.23
241.05
224.84
214.71
212.01
213.91
215.85
214.46
208.96
200.41
189.96
177.06
159.59
134.46
99.61
54.85
1.52
-57.83
-120.04
-181.04
-235.31
-277.07
-301.82
-308.11
-298.55
-279.07
-256.96
-238.19
-225.80
-219.82
-218.76
-220.56
-223.55
-226.25
-226.97
-223.70
-214.32
-197.64
-173.96
-145.07
-113.21
-80.24
-46.98
-13.39
20.87
55.53
89.32
120.48
147.10
168.07
183.47
194.46
202.97
211.60
223.28
240.81
265.60
296.25
327.56
351.45
359.49
345.65
310.01
258.33
198.92
138.84
82.04
29.18
-19.32
-60.97
-91.29
-106.24
-105.54
-93.88
-79.46
-70.46
-71.63
-82.86
-100.63
-120.30
-138.56
-154.03
-166.64
-176.33
-182.38
-183.59
-179.16
-169.51
-156.30
-141.78
-127.82
-114.97
-102.14
-86.90
-66.06
-36.60
3.00
51.31
103.27
150.71
184.57
198.21
190.14
164.61
130.35
97.01
71.49
56.08
49.13
47.27
47.73
49.38
52.15
55.96
59.72
61.54
59.68
53.59
44.24
33.74
24.36
17.55
13.48
11.10
8.80
5.28
0.09
-6.19
-12.33
-17.11
-19.81
-20.52
-20.02
-19.37
-19.42
-20.47
-22.23
-24.07
-25.30
-25.54
-24.82
-23.43
-21.91
-20.69
-19.96
-19.62
-19.39
-19.01
-18.30
-17.25
-15.99
-14.70
-13.54
-12.56
-11.77
-11.10
-10.49
-9.90
-9.32
-8.74
-8.19
-7.67
-7.17
-6.70
-6.26
-5.83
-5.44
-5.06
-4.71
-4.39
-4.11
-3.84
-3.60
-3.38
-3.18
-2.99
-2.82
-2.66
-2.51
-2.38
-2.26
-2.15
-2.05
-1.95
-1.86
-1.77
-1.70
-1.62
-1.55
-1.49
-1.43
-1.37
-1.32
-1.27
-1.22
-1.18
-1.13
-1.09
-1.05
-1.01
-0.98
-0.95
-0.91
-0.88
-0.85
-0.82
-0.80
-0.77
-0.75
-0.72
-0.70
-0.68
-0.66
-0.64
-0.62
-0.60
-0.58
-0.57
-0.55
-0.54
-0.52
-0.50
-0.49
-0.48
-0.45
-0.42
-0.39
-0.35
-0.30
-0.25
-0.18
-0.10
-0.03
0.05
0.12
0.19
0.25
0.31
0.39
0.48
0.57
0.65
0.68
0.66
0.59
0.51
0.45
0.47
0.58
0.75
0.95
1.14
1.31
1.49
1.73
2.06
2.51
3.06
3.63
4.16
4.58
4.91
5.17
5.49
5.99
6.71
7.63
8.59
9.37
9.81
9.87
9.71
9.64
9.99
10.98
12.57
14.43
16.05
17.09
17.39
17.28
17.29
17.99
19.55
21.67
23.49
23.99
22.35
18.26
12.12
4.72
-3.10
-11.11
-19.35
-28.19
-37.63
-47.07
-55.35
-61.53
-65.49
-67.95
-69.65
-69.89
-66.51
-56.47
-37.88
-11.73
17.92
45.75
67.50
81.53
88.42
88.98
82.67
67.56
42.09
7.35
-31.52
-67.12
-93.12
-107.02
-111.20
-111.47
-114.04
-122.57
-136.18
-149.52
-154.88
-145.53
-118.19
-74.26
-19.17
39.44
93.88
136.74
162.93
170.63
160.29
134.77
99.56
62.21
30.42
9.42
0.35
0.43
4.90
9.31
11.14
9.79
6.06
1.48
-1.83
-1.25
5.70
20.31
41.37
65.18
86.62
101.62
108.89
109.94
107.29
101.95
92.60
76.25
50.92
18.14
-16.51
-45.13
-61.09
-61.15
-48.74
-30.95
-14.78
-4.14
0.88
2.36
2.80
2.75
0.89
-5.11
-16.59
-33.30
-53.69
-74.31
-93.97
-111.73
-126.29
-135.23
-135.56
-124.62
-102.02
-70.71
-36.53
-6.22
15.52
27.41
31.31
30.48
27.82
24.81
21.66
18.36
15.18
13.06
12.85
14.57
17.25
19.46
20.00
18.41
15.29
11.76
9.09
8.08
8.75
10.32
11.74
12.08
10.98
8.73
6.03
3.76
2.48
2.29
2.78
3.35
3.43
2.76
1.43
-0.26
-1.81
-2.96
-3.62
-3.97
-4.27
-4.79
-5.65
-6.85
-8.26
-9.69
-11.04
-12.25
-13.36
-14.40
-15.48
-16.65
-17.96
-19.44
-21.05
-22.77
-24.54
-26.31
-28.01
-29.59
-31.00
-32.19
-33.11
-33.62
-33.48
-32.43
-30.19
-26.58
-21.52
-15.18
-7.91
-0.15
7.70
15.35
22.63
29.46
35.70
41.14
45.42
48.22
49.41
49.18
48.11
46.96
46.47
46.94
48.20
49.62
50.49
50.57
50.23
50.26
51.25
53.09
54.80
55.18
53.27
49.13
43.30
36.10
27.11
15.56
1.29
-14.28
-28.28
-37.80
-41.45
-40.43
-38.23
-38.69
-43.82
-52.61
-61.53
-66.47
-65.13
-57.67
-46.59
-35.67
-28.57
-28.03
-35.67
-52.10
-76.99
-109.24
-146.01
-182.85
-214.50
-236.24
-245.65
-243.43
-233.38
-218.73
-204.78
-195.70
-193.04
-195.32
-198.80
-198.76
-191.16
-173.71
-146.21
-110.76
-70.20
-27.19
16.48
60.03
103.14
145.13
184.37
218.31
244.17
260.32
267.04
266.22
260.46
251.86
241.37
228.85
213.89
196.50
177.86
159.90
144.33
131.88
122.02
113.48
105.12
96.57
88.34
81.55
77.20
75.58
76.11
77.58
78.78
79.01
78.26
77.04
75.98
75.38
75.05
74.39
72.79
69.99
66.25
62.20
58.58
55.92
54.38
53.66
53.16
52.13
49.83
45.76
39.81
32.39
24.34
16.71
10.23
4.80
-0.76
-8.46
-20.46
-38.00
-60.66
-86.18
-111.15
-132.18
-147.06
-155.35
-158.01
-156.57
-152.09
-144.82
-134.43
-120.67
-104.02
-85.69
-67.16
-49.52
-33.09
-17.47
-2.09
13.27
28.25
42.09
54.12
64.32
73.39
82.54
92.96
105.33
119.52
134.77
150.02
164.42
177.65
189.94
201.85
213.87
226.09
237.95
248.24
255.21
256.82
251.09
236.54
212.51
179.58
139.73
96.24
53.21
14.44
-17.60
-42.34
-61.02
-75.73
-88.26
-99.24
-108.05
-113.53
-114.96
-112.59
-107.64
-101.68
-95.84
-90.46
-85.28
-79.93
-74.44
-69.30
-65.23
-62.81
-62.14
-62.79
-64.03
-65.20
-65.99
-66.51
-67.14
-68.29
-70.11
-72.49
-75.19
-78.04
-81.09
-84.51
-88.41
-92.65
-96.88
-100.75
-104.06
-106.82
-109.17
-111.14
-112.58
-113.32
-113.28
-112.72
-112.17
-112.07
-112.50
-112.95
-112.55
-110.54
-106.83
-102.23
-98.38
-97.22
-100.22
-107.73
-118.63
-130.55
-140.63
-146.46
-147.00
-142.78
-135.61
-127.74
-120.88
-115.65
-111.48
-107.06
-100.96
-92.16
-80.26
-65.43
-48.16
-28.92
-7.96
14.76
39.39
65.74
93.00
119.56
143.41
162.75
176.59
185.02
189.09
190.27
189.79
188.27
185.49
180.50
171.87
158.03
137.83
111.13
79.33
45.30
12.69
-15.10
-36.06
-49.96
-58.08
-62.41
-64.64
-65.67
-65.70
-64.64
-62.73
-60.53
-58.74
-57.75
-57.32
-56.72
-55.18
-52.22
-47.96
-42.94
-37.74
-32.64
-27.60
-22.49
-17.31
-12.57
-9.12
-7.83
-9.22
-13.15
-18.71
-24.22
-27.53
-26.37
-19.13
-5.49
13.11
33.69
52.55
66.56
74.19
75.90
73.57
69.48
65.31
61.65
58.24
54.58
50.48
46.19
42.23
38.95
36.31
33.98
31.48
28.54
25.24
21.87
18.78
16.23
14.25
12.72
11.50
10.52
9.87
9.72
10.28
11.61
13.55
15.74
17.66
18.90
19.21
18.57
17.12
15.07
12.54
9.57
6.16
2.35
-1.79
-6.16
-10.70
-15.47
-20.50
-25.82
-31.26
-36.54
-41.25
-45.00
-47.53
-48.72
-48.58
-47.18
-44.59
-40.95
-36.44
-31.33
-25.93
-20.57
-15.47
-10.80
-6.68
-3.19
-0.41
1.62
2.95
3.74
4.20
4.59
5.02
5.51
5.96
6.25
6.30
6.06
5.60
4.97
4.22
3.42
2.65
1.98
1.45
1.05
0.67
0.14
-0.65
-1.79
-3.31
-5.18
-7.42
-10.08
-13.16
-16.55
-19.92
-22.75
-24.56
-25.00
-24.05
-21.96
-19.14
-15.94
-12.57
-9.06
-5.39
-1.63
2.03
5.28
7.82
9.51
10.46
10.90
11.17
11.54
12.16
13.02
14.01
14.96
15.69
16.11
16.22
16.10
15.88
15.62
15.35
14.98
14.38
13.43
12.07
10.33
8.31
6.13
3.90
1.70
-0.42
-2.44
-4.39
-6.34
-8.36
-10.55
-12.96
-15.55
-18.16
-20.49
-22.12
-22.63
-21.71
-19.24
-15.42
-10.66
-5.50
-0.46
4.14
8.15
11.55
14.42
16.76
18.55
19.79
20.54
20.96
21.31
21.75
22.32
22.90
23.30
23.34
22.98
22.34
21.63
21.08
20.77
20.66
20.55
20.12
19.01
16.95
13.82
9.77
5.25
0.84
-2.94
-5.89
-8.21
-10.41
-12.98
-16.04
-19.37
-22.51
-25.20
-27.58
-30.11
-33.22
-36.96
-41.00
-44.84
-48.20
-51.21
-54.23
-57.35
-60.13
-61.60
-60.77
-57.19
-51.18
-43.64
-35.55
-27.52
-19.71
-11.99
-4.35
2.95
9.50
14.98
19.39
23.12
26.61
30.10
33.33
35.67
36.42
35.18
32.02
27.36
21.84
15.94
9.94
3.94
-1.97
-7.62
-12.77
-17.18
-20.69
-23.20
-24.58
-24.66
-23.23
-20.25
-15.89
-10.60
-4.94
0.55
5.57
10.06
14.10
17.78
20.99
23.48
24.96
25.26
24.45
22.66
19.85
15.62
9.38
0.87
-9.21
-19.07
-26.52
-30.11
-30.11
-28.42
-27.51
-28.84
-32.05
-35.24
-36.29
-34.19
-29.47
-23.46
-17.05
-9.88
-0.75
11.05
24.50
36.63
43.87
44.08
38.18
30.10
25.18
27.59
38.30
54.62
71.42
83.46
87.54
83.43
73.40
60.83
48.68
38.88
32.33
29.41
30.25
34.53
41.04
47.34
50.02
45.95
33.93
15.84
-3.50
-18.22
-24.13
-20.87
-12.16
-4.09
-2.09
-8.46
-21.48
-36.68
-49.03
-55.06
-53.71
-45.95
-33.70
-18.80
-2.69
13.51
28.70
41.74
51.63
57.83
60.59
60.98
60.74
61.63
64.73
70.00
76.32
82.05
85.88
87.37
87.13
86.39
86.36
87.56
89.57
91.09
90.34
85.59
75.60
60.03
39.53
15.77
-8.90
-31.99
-51.55
-66.80
-78.23
-87.31
-95.55
-103.72
-111.39
-117.18
-119.50
-117.40
-110.91
-100.86
-88.23
-73.56
-56.79
-37.73
-16.65
5.23
25.89
43.07
55.08
61.28
62.16
58.94
53.12
46.07
38.96
32.79
28.43
26.55
27.44
30.85
36.01
41.87
47.37
51.74
54.54
55.68
55.31
53.66
51.09
47.98
44.68
41.36
37.98
34.19
29.51
23.47
15.82
6.72
-3.27
-13.27
-22.34
-29.76
-35.24
-39.01
-41.67
-43.87
-46.08
-48.48
-50.93
-53.20
-55.11
-56.60
-57.72
-58.51
-59.01
-59.15
-58.93
-58.33
-57.39
-56.05
-54.23
-51.78
-48.61
-44.75
-40.31
-35.51
-30.53
-25.50
-20.54
-15.80
-11.43
-7.65
-4.53
-2.03
0.02
1.81
3.49
5.08
6.51
7.66
8.48
9.01
9.33
9.55
9.72
9.81
9.74
9.41
8.72
7.57
6.00
4.12
2.12
0.23
-1.41
-2.77
-3.96
-5.11
-6.35
-7.70
-9.15
-10.69
-12.30
-13.95
-15.48
-16.60
-16.93
-16.15
-14.14
-11.02
-7.08
-2.73
1.69
5.88
9.61
12.71
15.02
16.47
17.07
16.93
16.22
15.16
13.99
12.96
12.24
11.95
12.05
12.36
12.67
12.82
12.77
12.64
12.53
12.49
12.43
12.19
11.63
10.69
9.39
7.86
6.21
4.56
2.99
1.54
0.28
-0.82
-1.85
-2.96
-4.34
-6.07
-8.08
-10.07
-11.61
-12.18
-11.43
-9.23
-5.76
-1.43
3.24
7.80
11.97
15.64
18.78
21.38
23.39
24.79
25.60
25.93
26.02
26.12
26.40
26.93
27.63
28.32
28.76
28.73
28.08
26.79
24.92
22.63
20.04
17.21
14.05
10.41
6.10
1.08
-4.49
-10.24
-15.66
-20.31
-23.94
-26.59
-28.55
-30.15
-31.58
-32.75
-33.37
-32.97
-31.25
-28.13
-23.83
-18.76
-13.33
-7.87
-2.44
3.05
8.83
15.16
22.24
30.10
38.47
46.74
53.88
58.60
59.63
56.10
47.99
36.38
23.30
11.21
2.17
-2.89
-4.40
-3.87
-3.06
-3.24
-4.76
-7.16
-9.71
-11.92
-13.82
-15.71
-17.93
-20.45
-23.03
-25.43
-27.64
-29.97
-32.83
-36.47
-40.83
-45.66
-50.78
-56.24
-62.39
-69.61
-78.12
-87.58
-97.04
-104.82
-108.77
-106.74
-97.38
-80.95
-59.56
-36.88
-16.90
-2.44
5.90
9.99
13.23
19.09
29.61
44.82
62.90
81.08
96.62
107.44
112.32
110.80
103.19
90.47
74.35
56.96
40.28
25.53
12.76
0.96
-11.26
-24.73
-39.13
-52.98
-64.33
-71.59
-74.22
-72.80
-68.54
-62.75
-56.37
-49.91
-43.62
-37.68
-32.29
-27.62
-23.66
-20.22
-16.99
-13.78
-10.57
-7.59
-5.16
-3.52
-2.72
-2.55
-2.61
-2.40
-1.48
0.41
3.16
6.32
9.09
10.65
10.30
7.77
3.22
-2.76
-9.33
-15.61
-20.89
-24.71
-26.96
-27.80
-27.59
-26.78
-25.77
-24.79
-23.83
-22.64
-20.86
-18.13
-14.25
-9.24
-3.33
3.07
9.53
15.63
21.10
25.72
29.34
31.82
33.06
33.03
31.85
29.85
27.41
24.94
22.66
20.57
18.47
16.07
13.18
9.84
6.38
3.25
0.95
-0.23
-0.22
0.81
2.51
4.48
6.32
7.76
8.63
8.96
8.85
8.47
7.99
7.51
7.12
6.86
6.77
6.90
7.27
7.83
8.48
9.13
9.68
10.14
10.57
11.01
11.51
12.04
12.55
12.99
13.37
13.69
14.04
14.44
14.94
15.53
16.14
16.66
16.93
16.81
16.25
15.31
14.19
13.14
12.35
11.87
11.64
11.55
11.59
11.82
12.27
12.79
12.87
11.86
9.22
4.89
-0.62
-6.28
-10.94
-13.71
-14.19
-12.57
-9.43
-5.52
-1.57
1.81
4.22
5.47
5.51
4.45
2.47
-0.24
-3.55
-7.39
-11.73
-16.46
-21.42
-26.28
-30.62
-34.01
-36.11
-36.81
-36.23
-34.69
-32.51
-30.01
-27.39
-24.79
-22.29
-19.89
-17.53
-15.02
-12.17
-8.93
-5.49
-2.28
0.16
1.45
1.54
0.83
-0.04
-0.43
0.05
1.45
3.48
5.71
7.77
9.36
10.28
10.48
9.94
8.76
7.12
5.27
3.43
1.79
0.48
-0.42
-0.81
-0.62
0.17
1.49
3.21
5.11
6.96
8.47
9.39
9.47
8.59
6.88
4.69
2.52
0.84
-0.12
-0.47
-0.56
-0.83
-1.59
-2.86
-4.44
-5.99
-7.28
-8.25
-9.01
-9.66
-10.20
-10.42
-10.01
-8.65
-6.24
-2.92
0.94
4.86
8.41
11.34
13.56
15.09
16.01
16.40
16.28
15.74
14.85
13.79
12.77
11.98
11.53
11.37
11.35
11.27
11.07
10.85
10.79
11.06
11.69
12.50
13.22
13.64
13.73
13.59
13.38
13.14
12.76
12.04
10.84
9.18
7.24
5.33
3.69
2.44
1.53
0.83
0.16
-0.54
-1.22
-1.68
-1.68
-0.99
0.51
2.76
5.56
8.66
11.79
14.76
17.44
19.76
21.65
23.06
23.93
24.24
24.04
23.40
22.48
21.47
20.56
19.90
19.56
19.46
19.50
19.49
19.31
18.86
18.11
17.08
15.82
14.41
12.93
11.42
9.92
8.41
6.92
5.46
4.05
2.73
1.49
0.30
-0.90
-2.15
-3.49
-4.94
-6.54
-8.28
-10.12
-11.89
-13.35
-14.19
-14.25
-13.55
-12.27
-10.70
-9.07
-7.47
-5.90
-4.30
-2.70
-1.25
-0.17
0.40
0.41
-0.04
-0.76
-1.56
-2.33
-3.02
-3.66
-4.25
-4.79
-5.24
-5.58
-5.84
-6.09
-6.44
-6.96
-7.70
-8.64
-9.71
-10.81
-11.86
-12.81
-13.63
-14.33
-14.95
-15.55
-16.21
-17.02
-18.02
-19.22
-20.56
-21.92
-23.13
-24.00
-24.35
-24.02
-22.91
-21.07
-18.66
-15.94
-13.22
-10.76
-8.71
-7.11
-5.89
-4.98
-4.34
-3.98
-3.93
-4.17
-4.63
-5.18
-5.64
-5.91
-5.94
-5.75
-5.36
-4.81
-4.15
-3.46
-2.92
-2.71
-3.00
-3.81
-4.98
-6.22
-7.24
-7.84
-8.03
-7.97
-7.93
-8.15
-8.76
-9.80
-11.12
-12.51
-13.69
-14.36
-14.30
-13.38
-11.67
-9.39
-6.89
-4.54
-2.63
-1.23
-0.25
0.52
1.27
2.04
2.76
3.31
3.61
3.78
3.98
4.38
4.99
5.62
6.03
6.07
5.78
5.35
5.02
4.86
4.70
4.33
3.53
2.32
0.90
-0.42
-1.48
-2.20
-2.72
-3.19
-3.73
-4.45
-5.38
-6.57
-8.00
-9.54
-10.96
-11.87
-12.00
-11.21
-9.59
-7.42
-5.00
-2.58
-0.30
1.71
3.37
4.55
5.19
5.33
5.12
4.78
4.50
4.39
4.52
4.85
5.35
5.95
6.59
7.15
7.53
7.68
7.64
7.51
7.43
7.43
7.45
7.29
6.79
5.89
4.64
3.22
1.84
0.62
-0.41
-1.33
-2.24
-3.27
-4.46
-5.84
-7.40
-9.11
-10.88
-12.53
-13.83
-14.53
-14.44
-13.54
-12.02
-10.23
-8.57
-7.36
-6.69
-6.43
-6.30
-6.05
-5.53
-4.77
-3.89
-3.00
-2.14
-1.26
-0.26
0.87
2.07
3.21
4.18
4.95
5.60
6.23
6.87
7.48
7.89
7.92
7.47
6.58
5.41
4.16
2.98
1.92
0.93
-0.02
-0.90
-1.67
-2.23
-2.62
-2.92
-3.29
-3.86
-4.73
-5.89
-7.29
-8.85
-10.42
-11.78
-12.64
-12.71
-11.84
-10.05
-7.63
-4.92
-2.29
0.02
1.97
3.56
4.88
5.96
6.81
7.40
7.76
7.91
7.92
7.85
7.76
7.66
7.53
7.35
7.11
6.86
6.64
6.47
6.33
6.21
6.06
5.88
5.71
5.59
5.50
5.32
4.93
4.20
3.13
1.83
0.46
-0.83
-1.99
-3.07
-4.12
-5.17
-6.19
-7.11
-7.91
-8.65
-9.49
-10.58
-11.93
-13.37
-14.55
-15.09
-14.72
-13.40
-11.30
-8.71
-5.91
-3.06
-0.21
2.61
5.37
7.99
10.36
12.33
13.80
14.66
14.85
14.41
13.47
12.22
10.90
9.71
8.72
7.92
7.25
6.65
6.09
5.54
4.99
4.43
3.82
3.16
2.51
1.96
1.63
1.56
1.71
1.96
2.09
1.93
1.34
0.32
-1.02
-2.47
-3.81
-4.86
-5.59
-6.08
-6.56
-7.27
-8.40
-9.94
-11.77
-13.56
-14.96
-15.65
-15.44
-14.31
-12.34
-9.72
-6.70
-3.57
-0.62
1.93
3.94
5.41
6.43
7.17
7.75
8.25
8.68
9.01
9.24
9.43
9.63
9.94
10.39
10.94
11.50
11.96
12.24
12.33
12.31
12.24
12.15
11.95
11.51
10.71
9.55
8.20
6.87
5.77
4.97
4.38
3.81
3.13
2.30
1.37
0.42
-0.50
-1.38
-2.28
-3.22
-4.16
-5.12
-6.08
-7.12
-8.28
-9.53
-10.76
-11.75
-12.28
-12.21
-11.50
-10.23
-8.57
-6.69
-4.77
-2.95
-1.39
-0.16
0.69
1.14
1.26
1.14
0.87
0.55
0.28
0.16
0.26
0.62
1.22
1.95
2.71
3.36
3.80
3.99
3.94
3.72
3.44
3.21
3.05
2.91
2.71
2.33
1.70
0.82
-0.24
-1.42
-2.67
-3.96
-5.29
-6.62
-7.86
-8.92
-9.70
-10.21
-10.53
-10.88
-11.47
-12.47
-13.87
-15.42
-16.76
-17.50
-17.37
-16.32
-14.51
-12.23
-9.78
-7.40
-5.22
-3.28
-1.59
-0.15
1.02
1.89
2.46
2.77
2.93
3.09
3.36
3.73
4.09
4.26
4.12
3.70
3.20
2.86
2.92
3.45
4.36
5.44
6.44
7.13
7.35
7.04
6.28
5.20
4.01
2.88
1.90
1.06
0.30
-0.48
-1.31
-2.18
-3.06
-3.92
-4.74
-5.53
-6.29
-7.00
-7.67
-8.31
-8.99
-9.80
-10.80
-12.01
-13.27
-14.37
-15.03
-15.03
-14.32
-12.95
-11.10
-8.95
-6.63
-4.21
-1.76
0.62
2.75
4.47
5.69
6.48
7.01
7.46
7.92
8.33
8.57
8.54
8.30
8.03
7.95
8.18
8.65
9.16
9.50
9.56
9.41
9.19
9.01
8.92
8.78
8.48
7.87
6.96
5.81
4.54
3.26
2.04
0.90
-0.14
-1.06
-1.84
-2.51
-3.17
-3.95
-4.98
-6.30
-7.84
-9.48
-11.10
-12.68
-14.19
-15.59
-16.77
-17.53
-17.66
-17.03
-15.66
-13.66
-11.24
-8.51
-5.59
-2.54
0.53
3.41
5.90
7.78
8.95
9.37
9.18
8.59
7.88
7.30
7.00
7.01
7.21
7.43
7.58
7.60
7.51
7.37
7.24
7.13
7.07
7.04
7.06
7.03
6.84
6.34
5.45
4.28
3.07
2.13
1.68
1.69
1.90
1.98
1.63
0.76
-0.46
-1.74
-2.86
-3.75
-4.48
-5.17
-5.85
-6.54
-7.17
-7.77
-8.33
-8.84
-9.12
-8.81
-7.53
-5.01
-1.27
3.39
8.44
13.33
17.59
20.95
23.30
24.67
25.15
24.90
24.08
22.82
21.31
19.66
18.06
16.62
15.42
14.43
13.54
12.58
11.41
10.00
8.44
6.84
5.32
3.88
2.46
0.98
-0.61
-2.25
-3.84
-5.26
-6.45
-7.42
-8.24
-8.97
-9.64
-10.25
-10.82
-11.34
-11.86
-12.42
-13.05
-13.74
-14.45
-15.19
-15.98
-16.90
-17.95
-19.08
-20.10
-20.73
-20.76
-20.06
-18.64
-16.62
-14.20
-11.53
-8.74
-5.96
-3.35
-1.07
0.75
2.05
2.85
3.24
3.39
3.43
3.49
3.65
3.92
4.27
4.59
4.80
4.86
4.80
4.71
4.64
4.63
4.62
4.48
4.15
3.62
2.94
2.21
1.51
0.81
0.06
-0.85
-1.92
-3.08
-4.19
-5.13
-5.90
-6.61
-7.44
-8.50
-9.76
-11.06
-12.24
-13.26
-14.21
-15.21
-16.29
-17.22
-17.65
-17.23
-15.82
-13.53
-10.72
-7.73
-4.83
-2.16
0.21
2.24
3.83
4.94
5.60
5.96
6.24
6.55
6.91
7.24
7.49
7.66
7.85
8.18
8.65
9.19
9.65
9.92
9.95
9.81
9.59
9.34
9.08
8.79
8.44
8.02
7.53
6.95
6.22
5.33
4.25
3.10
1.95
0.88
-0.12
-1.06
-1.97
-2.83
-3.58
-4.20
-4.77
-5.46
-6.53
-8.11
-10.13
-12.29
-14.10
-15.14
-15.16
-14.19
-12.46
-10.26
-7.81
-5.24
-2.60
0.04
2.57
4.81
6.63
7.99
8.94
9.61
10.09
10.50
10.85
11.18
11.51
11.87
12.28
12.74
13.21
13.61
13.84
13.80
13.43
12.72
11.71
10.52
9.28
8.08
6.95
5.84
4.64
3.27
1.70
0.03
-1.57
-2.96
-4.07
-4.91
-5.59
-6.19
-6.80
-7.48
-8.30
-9.34
-10.68
-12.31
-14.12
-15.85
-17.21
-17.95
-17.97
-17.29
-15.99
-14.20
-12.02
-9.56
-6.97
-4.41
-2.03
0.10
1.94
3.49
4.77
5.77
6.45
6.84
7.01
7.10
7.28
7.60
8.05
8.55
9.07
9.58
10.09
10.64
11.16
11.56
11.70
11.52
11.05
10.41
9.72
9.08
8.47
7.83
7.07
6.19
5.20
4.22
3.33
2.57
1.94
1.34
0.68
-0.12
-1.07
-2.09
-3.05
-3.83
-4.40
-4.84
-5.38
-6.27
-7.68
-9.58
-11.77
-13.91
-15.64
-16.69
-16.95
-16.43
-15.25
-13.54
-11.44
-9.08
-6.58
-4.04
-1.61
0.63
2.58
4.17
5.36
6.21
6.80
7.28
7.82
8.47
9.23
9.99
10.63
11.12
11.47
11.76
12.09
12.46
12.81
13.01
12.97
12.64
12.05
11.29
10.47
9.69
9.04
8.55
8.22
7.98
7.75
7.42
6.95
6.29
5.47
4.52
3.48
2.45
1.49
0.64
-0.13
-0.87
-1.65
-2.56
-3.61
-4.79
-6.02
-7.21
-8.31
-9.27
-10.16
-11.08
-12.18
-13.50
-14.97
-16.38
-17.43
-17.85
-17.55
-16.54
-14.92
-12.80
-10.29
-7.52
-4.67
-1.96
0.39
2.26
3.61
4.54
5.13
5.45
5.59
5.63
5.73
6.02
6.59
7.43
8.45
9.49
10.44
11.21
11.77
12.07
12.09
11.81
11.32
10.72
10.13
9.58
9.04
8.42
7.68
6.87
6.15
5.68
5.56
5.74
6.08
6.34
6.35
6.01
5.35
4.49
3.55
2.68
1.92
1.26
0.61
-0.15
-1.11
-2.29
-3.64
-5.09
-6.52
-7.84
-9.03
-10.08
-11.04
-12.02
-13.12
-14.43
-15.94
-17.48
-18.75
-19.42
-19.18
-17.93
-15.73
-12.87
-9.68
-6.50
-3.55
-0.95
1.28
3.15
4.69
5.93
6.97
7.91
8.85
9.79
10.70
11.45
11.96
12.23
12.35
12.47
12.71
13.11
13.61
14.07
14.37
14.46
14.34
14.03
13.58
13.01
12.35
11.64
10.94
10.31
9.77
9.24
8.65
7.91
7.00
6.03
5.13
4.43
3.94
3.61
3.30
2.95
2.48
1.91
1.23
0.44
-0.49
-1.53
-2.61
-3.62
-4.46
-5.06
-5.50
-5.91
-6.46
-7.29
-8.50
-10.04
-11.76
-13.43
-14.72
-15.36
-15.18
-14.16
-12.41
-10.21
-7.80
-5.44
-3.28
-1.44
0.07
1.26
2.19
2.95
3.62
4.28
4.91
5.47
5.90
6.16
6.29
6.35
6.44
6.61
6.90
7.26
7.61
7.88
8.01
7.96
7.71
7.24
6.55
5.68
4.72
3.77
2.91
2.16
1.48
0.79
0.02
-0.83
-1.75
-2.62
-3.38
-3.98
-4.43
-4.78
-5.12
-5.50
-5.96
-6.49
-7.13
-7.87
-8.75
-9.76
-10.91
-12.11
-13.20
-13.99
-14.33
-14.17
-13.52
-12.48
-11.09
-9.37
-7.36
-5.15
-2.91
-0.88
0.76
1.94
2.72
3.22
3.58
3.86
4.09
4.28
4.47
4.68
4.93
5.17
5.34
5.40
5.39
5.33
5.27
5.22
5.14
5.01
4.83
4.61
4.36
4.09
3.77
3.38
2.92
2.41
1.86
1.28
0.68
0.10
-0.40
-0.74
-0.92
-0.99
-1.07
-1.25
-1.60
-2.12
-2.79
-3.63
-4.65
-5.83
-7.07
-8.27
-9.34
-10.30
-11.27
-12.39
-13.69
-15.02
-16.08
-16.53
-16.20
-15.09
-13.37
-11.28
-8.98
-6.58
-4.13
-1.73
0.45
2.20
3.39
4.05
4.33
4.48
4.65
4.91
5.19
5.42
5.56
5.65
5.78
5.99
6.33
6.75
7.17
7.51
7.72
7.74
7.59
7.30
6.91
6.48
6.06
5.67
5.32
5.05
4.85
4.72
4.59
4.36
3.94
3.31
2.52
1.74
1.14
0.78
0.63
0.55
0.33
-0.18
-1.06
-2.23
-3.57
-4.90
-6.08
-7.04
-7.79
-8.42
-9.08
-9.87
-10.82
-11.85
-12.80
-13.45
-13.66
-13.34
-12.57
-11.43
-10.04
-8.49
-6.83
-5.10
-3.37
-1.74
-0.36
0.65
1.17
1.23
0.94
0.54
0.30
0.40
0.90
1.71
2.64
3.52
4.25
4.76
5.03
5.00
4.62
3.93
3.11
2.41
2.07
2.19
2.63
3.14
3.43
3.41
3.11
2.68
2.24
1.85
1.52
1.23
1.06
1.08
1.33
1.73
2.15
2.40
2.35
2.01
1.47
0.89
0.37
-0.08
-0.50
-1.00
-1.63
-2.41
-3.37
-4.52
-5.86
-7.37
-8.90
-10.22
-11.02
-11.05
-10.25
-8.74
-6.83
-4.84
-2.99
-1.37
0.07
1.32
2.35
3.05
3.37
3.35
3.16
3.04
3.15
3.54
4.15
4.80
5.32
5.65
5.81
5.92
6.14
6.53
7.10
7.71
8.26
8.64
8.83
8.86
8.79
8.63
8.32
7.83
7.20
6.49
5.82
5.25
4.72
4.14
3.42
2.57
1.63
0.68
-0.21
-1.05
-1.80
-2.45
-2.96
-3.39
-3.90
-4.71
-6.03
-7.86
-9.99
-12.01
-13.53
-14.30
-14.26
-13.54
-12.32
-10.75
-8.95
-7.00
-5.04
-3.21
-1.66
-0.44
0.42
1.02
1.42
1.73
1.98
2.20
2.38
2.57
2.82
3.18
3.72
4.40
5.14
5.75
6.05
5.99
5.61
5.08
4.58
4.25
4.09
4.02
3.93
3.67
3.22
2.56
1.72
0.76
-0.28
-1.36
-2.46
-3.56
-4.70
-5.82
-6.91
-7.96
-9.00
-10.06
-11.19
-12.34
-13.39
-14.12
-14.33
-13.89
-12.77
-11.07
-8.94
-6.58
-4.18
-1.90
0.11
1.76
3.05
4.03
4.76
5.26
5.53
5.53
5.30
4.92
4.53
4.31
4.29
4.45
4.68
4.88
5.05
5.26
5.57
6.00
6.42
6.62
6.42
5.74
4.66
3.33
1.96
0.66
-0.53
-1.63
-2.72
-3.83
-4.99
-6.23
-7.56
-8.99
-10.44
-11.81
-12.93
-13.66
-13.86
-13.43
-12.36
-10.70
-8.61
-6.28
-3.96
-1.80
0.10
1.77
3.23
4.50
5.56
6.34
6.80
6.98
6.98
6.91
6.86
6.85
6.86
6.89
6.91
6.92
6.87
6.71
6.37
5.89
5.33
4.86
4.61
4.58
4.69
4.75
4.61
4.15
3.35
2.23
0.85
-0.73
-2.42
-4.08
-5.56
-6.77
-7.76
-8.68
-9.74
-11.02
-12.47
-13.84
-14.82
-15.12
-14.60
-13.26
-11.24
-8.76
-6.09
-3.48
-1.12
0.89
2.54
3.87
4.93
5.72
6.26
6.58
6.74
6.87
7.09
7.49
8.02
8.63
9.26
9.89
10.55
11.28
12.02
12.69
13.13
13.24
12.98
12.39
11.57
10.65
9.76
8.94
8.23
7.62
7.09
6.64
6.24
5.84
5.35
4.68
3.81
2.77
1.66
0.57
-0.44
-1.38
-2.30
-3.26
-4.31
-5.42
-6.58
-7.75
-8.95
-10.23
-11.67
-13.25
-14.92
-16.51
-17.77
-18.46
-18.39
-17.50
-15.83
-13.56
-10.96
-8.26
-5.71
-3.44
-1.52
0.07
1.40
2.53
3.48
4.25
4.83
5.26
5.63
6.06
6.62
7.33
8.12
8.89
9.57
10.17
10.75
11.36
12.01
12.58
12.90
12.82
12.34
11.61
10.89
10.41
10.22
10.19
9.99
9.38
8.28
6.85
5.41
4.22
3.40
2.87
2.44
1.91
1.19
0.28
-0.77
-1.88
-3.00
-4.12
-5.23
-6.28
-7.26
-8.13
-8.89
-9.58
-10.26
-11.06
-12.07
-13.30
-14.64
-15.86
-16.69
-16.96
-16.58
-15.63
-14.22
-12.43
-10.31
-7.90
-5.28
-2.64
-0.20
1.83
3.37
4.44
5.16
5.65
5.97
6.17
6.23
6.19
6.08
5.99
5.95
5.99
6.15
6.41
6.80
7.32
7.96
8.65
9.30
9.75
9.89
9.67
9.18
8.60
8.15
7.99
8.12
8.38
8.56
8.48
8.09
7.47
6.74
5.98
5.13
4.10
2.78
1.19
-0.53
-2.16
-3.53
-4.57
-5.33
-5.95
-6.56
-7.30
-8.19
-9.27
-10.52
-11.91
-13.36
-14.77
-15.96
-16.72
-16.83
-16.14
-14.67
-12.54
-10.01
-7.37
-4.84
-2.55
-0.52
1.25
2.77
3.99
4.88
5.43
5.66
5.65
5.49
5.27
5.07
4.95
4.97
5.19
5.59
6.13
6.76
7.38
7.92
8.30
8.43
8.24
7.69
6.88
5.99
5.27
4.92
4.97
5.30
5.68
5.88
5.78
5.41
4.89
4.36
3.87
3.42
2.95
2.43
1.87
1.25
0.58
-0.18
-1.04
-1.98
-2.92
-3.72
-4.29
-4.62
-4.84
-5.12
-5.66
-6.50
-7.51
-8.48
-9.12
-9.21
-8.64
-7.41
-5.59
-3.28
-0.66
2.02
4.50
6.54
8.04
9.01
9.58
9.90
10.07
10.14
10.14
10.15
10.26
10.59
11.10
11.66
12.08
12.18
11.95
11.51
11.05
10.71
10.54
10.48
10.40
10.17
9.72
9.04
8.16
7.18
6.21
5.35
4.66
4.17
3.83
3.55
3.28
2.99
2.68
2.37
2.06
1.71
1.23
0.58
-0.27
-1.30
-2.49
-3.80
-5.23
-6.74
-8.28
-9.79
-11.18
-12.41
-13.42
-14.12
-14.47
-14.37
-13.84
-12.92
-11.75
-10.48
-9.20
-7.91
-6.51
-4.95
-3.26
-1.56
-0.07
1.10
1.93
2.52
2.99
3.41
3.79
4.08
4.29
4.50
4.82
5.31
5.93
6.53
6.92
7.01
6.82
6.47
6.05
5.60
5.10
4.51
3.89
3.37
3.12
3.23
3.58
3.91
3.87
3.26
2.12
0.73
-0.58
-1.56
-2.18
-2.59
-3.03
-3.65
-4.48
-5.43
-6.39
-7.26
-8.04
-8.76
-9.49
-10.26
-11.07
-11.90
-12.63
-13.10
-13.13
-12.57
-11.42
-9.77
-7.82
-5.77
-3.76
-1.85
-0.06
1.63
3.18
4.51
5.55
6.21
6.48
6.42
6.13
5.73
5.34
5.02
4.82
4.72
4.77
4.96
5.33
5.84
6.39
6.87
7.14
7.11
6.77
6.18
5.40
4.52
3.59
2.70
1.91
1.24
0.65
0.06
-0.64
-1.50
-2.53
-3.60
-4.59
-5.38
-5.98
-6.48
-7.02
-7.71
-8.60
-9.65
-10.79
-11.93
-13.01
-13.99
-14.80
-15.31
-15.39
-14.98
-14.03
-12.61
-10.88
-8.96
-6.96
-4.93
-2.93
-1.02
0.68
2.02
2.91
3.38
3.56
3.64
3.79
4.08
4.45
4.78
4.97
5.01
4.93
4.84
4.83
4.93
5.11
5.36
5.60
5.77
5.78
5.52
4.96
4.11
3.10
2.10
1.28
0.69
0.28
-0.05
-0.43
-0.93
-1.54
-2.21
-2.90
-3.60
-4.33
-5.13
-6.01
-6.98
-8.05
-9.25
-10.60
-12.03
-13.41
-14.53
-15.18
-15.27
-14.80
-13.91
-12.71
-11.29
-9.61
-7.69
-5.61
-3.56
-1.82
-0.59
0.08
0.34
0.42
0.53
0.76
1.10
1.51
1.95
2.43
2.99
3.60
4.19
4.68
5.01
5.17
5.25
5.31
5.40
5.47
5.42
5.13
4.50
3.55
2.38
1.19
0.20
-0.44
-0.71
-0.75
-0.78
-0.98
-1.47
-2.23
-3.19
-4.26
-5.39
-6.56
-7.80
-9.09
-10.38
-11.63
-12.73
-13.59
-14.10
-14.21
-13.86
-13.05
-11.83
-10.26
-8.45
-6.51
-4.58
-2.79
-1.22
0.05
1.03
1.78
2.40
2.99
3.58
4.20
4.78
5.24
5.51
5.60
5.61
5.69
5.92
6.35
6.94
7.57
8.16
8.67
9.10
9.45
9.67
9.71
9.49
9.00
8.31
7.52
6.75
6.02
5.26
4.33
3.09
1.44
-0.62
-2.97
-5.38
-7.62
-9.49
-10.93
-12.03
-12.97
-13.98
-15.17
-16.50
-17.77
-18.68
-18.98
-18.52
-17.33
-15.54
-13.33
-10.83
-8.09
-5.19
-2.21
0.69
3.30
5.38
6.78
7.45
7.47
7.07
6.52
6.04
5.76
5.71
5.79
5.92
6.07
6.31
6.73
7.35
8.10
8.81
9.33
9.59
9.65
9.67
9.78
9.97
10.12
10.07
9.66
8.89
7.84
6.70
5.63
4.70
3.92
3.23
2.56
1.90
1.24
0.64
0.11
-0.39
-0.92
-1.63
-2.61
-3.92
-5.57
-7.50
-9.63
-11.82
-13.91
-15.67
-16.86
-17.26
-16.78
-15.46
-13.50
-11.17
-8.78
-6.55
-4.54
-2.68
-0.85
1.08
3.14
5.25
7.25
8.97
10.37
11.51
12.55
13.66
14.83
15.98
16.89
17.42
17.52
17.32
16.99
16.66
16.32
15.88
15.20
14.23
13.09
11.99
11.18
10.79
10.77
10.92
11.01
10.82
10.25
9.32
8.13
6.76
5.29
3.76
2.22
0.76
-0.54
-1.61
-2.47
-3.21
-4.06
-5.24
-6.87
-8.90
-11.04
-12.89
-14.06
-14.34
-13.76
-12.50
-10.80
-8.81
-6.57
-4.08
-1.40
1.26
3.62
5.40
6.48
6.98
7.14
7.25
7.48
7.85
8.24
8.52
8.65
8.70
8.83
9.16
9.71
10.39
11.00
11.40
11.50
11.33
11.00
10.62
10.25
9.84
9.31
8.54
7.53
6.34
5.10
3.91
2.85
1.92
1.08
0.30
-0.44
-1.16
-1.89
-2.68
-3.59
-4.67
-5.93
-7.39
-9.01
-10.77
-12.55
-14.18
-15.43
-16.08
-15.98
-15.13
-13.61
-11.61
-9.36
-7.06
-4.90
-3.01
-1.44
-0.19
0.82
1.68
2.48
3.25
4.00
4.66
5.17
5.44
5.48
5.38
5.27
5.28
5.47
5.77
6.04
6.09
5.82
5.24
4.44
3.57
2.70
1.79
0.75
-0.53
-2.04
-3.66
-5.22
-6.58
-7.74
-8.81
-9.97
-11.36
-13.05
-14.94
-16.84
-18.51
-19.72
-20.29
-20.16
-19.40
-18.14
-16.54
-14.72
-12.75
-10.71
-8.72
-6.92
-5.47
-4.44
-3.78
-3.33
-2.91
-2.44
-1.90
-1.35
-0.80
-0.20
0.58
1.65
2.98
4.38
5.52
6.12
6.04
5.38
4.39
3.38
2.57
2.00
1.62
1.27
0.83
0.19
-0.73
-1.97
-3.60
-5.54
-7.66
-9.76
-11.66
-13.28
-14.66
-15.95
-17.16
-18.20
-18.85
-18.86
-18.06
-16.49
-14.32
-11.76
-9.02
-6.19
-3.37
-0.68
1.71
3.58
4.78
5.28
5.26
4.99
4.78
4.86
5.32
6.08
6.98
7.85
8.51
8.87
8.90
8.63
8.20
7.77
7.51
7.53
7.84
8.37
8.96
9.48
9.79
9.79
9.37
8.45
7.01
5.12
2.93
0.71
-1.32
-3.07
-4.57
-6.01
-7.58
-9.41
-11.44
-13.49
-15.28
-16.57
-17.13
-16.84
-15.66
-13.68
-11.08
-8.14
-5.16
-2.40
0.05
2.20
4.15
5.91
7.40
8.46
8.98
8.99
8.79
8.73
9.10
9.96
11.09
12.12
12.71
12.78
12.44
12.00
11.68
11.55
11.49
11.21
10.53
9.40
7.95
6.39
4.88
3.46
2.03
0.46
-1.28
-3.09
-4.74
-6.05
-6.88
-7.29
-7.45
-7.57
-7.81
-8.24
-8.83
-9.53
-10.31
-11.15
-12.07
-13.00
-13.77
-14.15
-13.87
-12.77
-10.83
-8.16
-4.99
-1.54
1.95
5.31
8.33
10.81
12.55
13.52
13.84
13.76
13.59
13.58
13.83
14.31
14.91
15.46
15.89
16.15
16.24
16.19
16.01
15.73
15.38
15.05
14.79
14.62
14.43
14.11
13.52
12.62
11.50
10.31
9.21
8.23
7.30
6.32
5.23
4.06
2.94
1.99
1.20
0.48
-0.33
-1.36
-2.67
-4.20
-5.93
-7.78
-9.68
-11.47
-12.97
-13.91
-14.10
-13.46
-12.07
-10.15
-7.93
-5.60
-3.27
-0.97
1.22
3.24
4.97
6.31
7.21
7.74
8.01
8.19
8.42
8.74
9.15
9.59
10.03
10.50
11.03
11.63
12.22
12.70
12.94
12.87
12.53
12.00
11.37
10.67
9.82
8.69
7.18
5.31
3.18
0.96
-1.19
-3.26
-5.33
-7.61
-10.28
-13.40
-16.84
-20.29
-23.39
-25.92
-27.90
-29.65
-31.62
-34.24
-37.77
-42.22
-47.27
-52.36
-56.70
-59.38
-59.50
-56.57
-50.63
-42.47
-33.35
-24.57
-16.95
-10.52
-4.51
2.29
10.93
21.93
35.05
49.40
63.69
76.52
86.65
93.09
95.19
92.71
85.78
74.88
60.78
44.45
26.90
9.19
-7.66
-22.55
-34.38
-42.22
-45.56
-44.64
-40.47
-34.60
-28.61
-23.55
-19.67
-16.46
-13.09
-8.87
-3.64
2.17
7.84
12.68
16.39
19.17
21.51
23.65
25.10
24.29
18.95
7.08
-11.89
-36.23
-62.03
-84.09
-97.26
-97.46
-82.21
-51.11
-6.31
47.03
100.66
144.25
167.84
164.96
134.97
83.66
21.52
-39.39
-88.69
-119.46
-128.36
-114.82
-80.48
-29.64
30.03
87.43
129.93
146.75
132.84
91.09
31.90
-30.24
-81.36
-112.11
-119.56
-106.45
-78.93
-43.92
-7.44
25.89
52.55
70.03
76.89
73.09
60.31
41.82
21.85
4.53
-7.21
-12.29
-11.65
-7.58
-2.79
0.56
1.43
0.08
-2.43
-4.83
-6.26
-6.66
-6.53
-6.60
-7.33
-8.64
-10.02
-10.86
-10.84
-10.10
-9.15
-8.63
-9.00
-10.34
-12.40
-14.75
-16.95
-18.69
-19.80
-20.23
-19.97
-19.11
-17.75
-15.99
-13.92
-11.58
-9.03
-6.40
-3.86
-1.63
0.14
1.42
2.26
2.82
3.20
3.45
3.59
3.62
3.60
3.61
3.75
4.08
4.59
5.22
5.90
6.53
7.04
7.38
7.53
7.51
7.33
7.05
6.70
6.34
5.99
5.65
5.27
4.79
4.12
3.25
2.26
1.28
0.48
-0.07
-0.42
-0.73
-1.20
-1.95
-3.00
-4.19
-5.31
-6.15
-6.63
-6.83
-6.95
-7.27
-8.03
-9.31
-11.05
-12.98
-14.75
-16.03
-16.56
-16.25
-15.13
-13.29
-10.87
-8.04
-5.01
-2.06
0.55
2.59
3.96
4.76
5.21
5.54
5.97
6.53
7.20
7.88
8.52
9.08
9.57
9.98
10.27
10.41
10.40
10.29
10.21
10.28
10.56
10.99
11.44
11.71
11.72
11.51
11.24
11.07
11.05
11.06
10.85
10.19
9.01
7.49
5.96
4.71
3.86
3.25
2.62
1.72
0.52
-0.85
-2.15
-3.20
-3.97
-4.62
-5.33
-6.23
-7.35
-8.63
-9.94
-11.17
-12.20
-12.97
-13.35
-13.29
-12.71
-11.59
-9.97
-7.94
-5.66
-3.38
-1.31
0.33
1.42
1.99
2.15
2.05
1.90
1.83
1.95
2.25
2.64
3.02
3.26
3.32
3.29
3.35
3.63
4.20
4.97
5.73
6.32
6.64
6.73
6.67
6.50
6.18
5.58
4.62
3.29
1.76
0.29
-0.86
-1.54
-1.82
-1.92
-2.15
-2.74
-3.77
-5.17
-6.71
-8.15
-9.32
-10.16
-10.76
-11.29
-11.91
-12.76
-13.81
-14.96
-15.98
-16.68
-16.85
-16.40
-15.29
-13.51
-11.16
-8.37
-5.37
-2.38
0.38
2.75
4.70
6.27
7.47
8.32
8.78
8.82
8.53
8.05
7.63
7.46
7.64
8.07
8.56
8.93
9.09
9.09
9.08
9.26
9.68
10.24
10.78
11.13
11.27
11.30
11.43
11.79
12.39
13.10
13.67
13.94
13.84
13.46
12.99
12.64
12.56
12.76
13.14
13.51
13.66
13.42
12.69
11.46
9.83
7.91
5.84
3.70
1.51
-0.79
-3.26
-5.88
-8.51
-10.85
-12.53
-13.26
-12.91
-11.59
-9.63
-7.42
-5.34
-3.58
-2.26
-1.34
-0.81
-0.64
-0.75
-1.08
-1.49
-1.81
-1.91
-1.70
-1.19
-0.50
0.23
0.86
1.30
1.55
1.67
1.74
1.80
1.83
1.75
1.48
1.02
0.45
-0.12
-0.59
-0.97
-1.36
-1.85
-2.50
-3.28
-4.08
-4.86
-5.63
-6.47
-7.43
-8.51
-9.60
-10.59
-11.42
-12.12
-12.81
-13.55
-14.35
-15.07
-15.50
-15.45
-14.83
-13.63
-11.95
-9.93
-7.69
-5.35
-3.05
-0.90
0.97
2.44
3.41
3.86
3.80
3.34
2.66
1.93
1.33
0.93
0.76
0.77
0.94
1.27
1.80
2.51
3.31
4.03
4.44
4.45
4.05
3.39
2.63
1.93
1.32
0.79
0.27
-0.31
-1.01
-1.89
-2.97
-4.25
-5.63
-6.99
-8.29
-9.50
-10.70
-11.95
-13.24
-14.39
-15.18
-15.39
-14.91
-13.76
-12.04
-9.83
-7.22
-4.32
-1.30
1.56
3.94
5.65
6.63
7.08
7.29
7.53
7.92
8.44
8.93
9.22
9.19
8.86
8.32
7.72
7.22
6.93
6.92
7.15
7.50
7.81
7.86
7.55
6.85
5.89
4.81
3.76
2.77
1.80
0.76
-0.39
-1.59
-2.75
-3.73
-4.53
-5.23
-6.04
-7.17
-8.77
-10.80
-12.98
-14.95
-16.31
-16.79
-16.30
-14.91
-12.79
-10.18
-7.34
-4.52
-1.95
0.26
2.04
3.50
4.75
5.90
6.94
7.79
8.31
8.47
8.30
7.98
7.69
7.57
7.72
8.14
8.73
9.38
9.92
10.22
10.17
9.75
9.04
8.18
7.30
6.43
5.55
4.58
3.48
2.26
0.99
-0.24
-1.38
-2.41
-3.35
-4.24
-5.11
-5.95
-6.79
-7.65
-8.62
-9.79
-11.23
-12.88
-14.61
-16.16
-17.24
-17.64
-17.22
-15.97
-13.97
-11.33
-8.24
-4.91
-1.63
1.33
3.71
5.39
6.41
6.95
7.30
7.68
8.21
8.85
9.45
9.84
9.96
9.85
9.65
9.50
9.47
9.58
9.77
9.98
10.20
10.38
10.46
10.35
9.97
9.31
8.47
7.59
6.77
6.02
5.26
4.42
3.46
2.48
1.60
0.91
0.39
-0.07
-0.62
-1.37
-2.32
-3.39
-4.48
-5.54
-6.58
-7.64
-8.72
-9.82
-10.90
-11.95
-12.98
-14.06
-15.22
-16.41
-17.47
-18.17
-18.28
-17.63
-16.20
-14.04
-11.35
-8.31
-5.12
-1.98
0.93
3.44
5.44
6.86
7.76
8.24
8.49
8.66
8.85
9.08
9.32
9.53
9.71
9.92
10.17
10.51
10.87
11.18
11.35
11.30
11.00
10.47
9.79
9.00
8.22
7.51
6.94
6.54
6.22
5.84
5.27
4.43
3.34
2.16
1.00
-0.03
-0.91
-1.70
-2.49
-3.27
-3.98
-4.58
-5.06
-5.55
-6.22
-7.19
-8.45
-9.84
-11.19
-12.39
-13.49
-14.65
-15.99
-17.52
-19.06
-20.28
-20.84
-20.51
-19.27
-17.24
-14.61
-11.56
-8.27
-4.91
-1.69
1.12
3.30
4.74
5.46
5.69
5.74
5.88
6.30
7.04
8.03
9.13
10.19
11.09
11.77
12.24
12.57
12.79
12.91
12.85
12.50
11.83
10.93
9.95
9.06
8.36
7.84
7.36
6.78
5.98
4.95
3.80
2.68
1.71
0.90
0.22
-0.45
-1.13
-1.80
-2.32
-2.59
-2.55
-2.26
-1.87
-1.56
-1.46
-1.62
-2.06
-2.77
-3.75
-4.99
-6.44
-8.03
-9.71
-11.42
-13.11
-14.68
-15.97
-16.83
-17.12
-16.72
-15.61
-13.76
-11.17
-7.89
-4.11
-0.13
3.68
6.99
9.61
11.51
12.79
13.56
13.90
13.86
13.49
12.95
12.39
11.96
11.73
11.67
11.70
11.75
11.81
11.94
12.16
12.44
12.73
12.89
12.85
12.55
11.95
11.08
9.97
8.71
7.41
6.18
5.12
4.20
3.38
2.56
1.66
0.63
-0.54
-1.87
-3.40
-5.18
-7.23
-9.49
-11.77
-13.86
-15.63
-17.04
-18.22
-19.41
-20.85
-22.69
-24.91
-27.32
-29.59
-31.40
-32.45
-32.59
-31.79
-30.10
-27.72
-24.86
-21.82
-18.87
-16.21
-13.93
-11.95
-10.14
-8.35
-6.56
-4.90
-3.60
-2.95
-3.06
-3.82
-4.93
-5.94
-6.49
-6.36
-5.54
-4.20
-2.53
-0.72
1.11
2.89
4.50
5.86
6.85
7.42
7.57
7.37
6.95
6.44
5.97
5.67
5.62
5.81
6.17
6.53
6.74
6.70
6.38
5.83
5.10
4.27
3.39
2.54
1.76
1.08
0.46
-0.21
-1.09
-2.25
-3.69
-5.28
-6.82
-8.09
-8.86
-8.94
-8.21
-6.64
-4.35
-1.61
1.20
3.69
5.57
6.76
7.32
7.45
7.39
7.32
7.36
7.58
8.01
8.57
9.15
9.58
9.73
9.57
9.21
8.84
8.64
8.70
8.95
9.24
9.39
9.26
8.85
8.13
7.17
6.00
4.74
3.53
2.54
1.87
1.49
1.23
0.82
0.07
-1.05
-2.35
-3.55
-4.44
-4.93
-5.22
-5.64
-6.53
-8.09
-10.27
-12.77
-15.20
-17.14
-18.29
-18.48
-17.73
-16.13
-13.86
-11.13
-8.13
-5.08
-2.17
0.45
2.66
4.40
5.70
6.66
7.33
7.76
7.95
7.88
7.59
7.20
6.91
6.92
7.30
8.04
8.98
9.95
10.80
11.42
11.70
11.56
10.93
9.82
8.37
6.83
5.47
4.48
3.87
3.48
3.11
2.60
1.95
1.24
0.57
-0.02
-0.60
-1.24
-2.00
-2.89
-3.87
-4.92
-6.07
-7.35
-8.73
-10.06
-11.08
-11.47
-11.02
-9.71
-7.70
-5.24
-2.57
0.17
2.90
5.51
7.82
9.59
10.58
10.72
10.11
9.08
8.00
7.16
6.66
6.44
6.35
6.29
6.27
6.31
6.44
6.58
6.64
6.52
6.20
5.80
5.41
5.08
4.75
4.28
3.54
2.51
1.23
-0.17
-1.60
-2.97
-4.27
-5.48
-6.64
-7.78
-8.97
-10.28
-11.75
-13.39
-15.13
-16.85
-18.41
-19.64
-20.32
-20.32
-19.56
-18.07
-15.97
-13.41
-10.50
-7.33
-4.07
-0.94
1.74
3.67
4.68
4.85
4.45
3.88
3.50
3.55
4.12
5.18
6.58
8.12
9.57
10.69
11.33
11.45
11.11
10.51
9.82
9.16
8.47
7.61
6.38
4.66
2.45
-0.08
-2.74
-5.32
-7.75
-9.98
-12.04
-13.92
-15.54
-16.83
-17.75
-18.33
-18.60
-18.58
-18.16
-17.15
-15.32
-12.58
-9.06
-5.08
-1.07
2.55
5.49
7.69
9.21
10.17
10.71
10.89
10.79
10.51
10.18
9.93
9.85
9.87
9.85
9.63
9.12
8.38
7.53
6.70
5.92
5.15
4.34
3.50
2.73
2.18
1.90
1.78
1.59
1.12
0.31
-0.68
-1.60
-2.27
-2.72
-3.20
-3.96
-5.10
-6.43
-7.56
-8.06
-7.69
-6.45
-4.56
-2.23
0.38
3.19
6.14
9.13
11.93
14.35
16.28
17.75
18.88
19.79
20.51
20.97
21.08
20.82
20.27
19.59
18.93
18.39
17.93
17.46
16.86
16.02
14.94
13.67
12.29
10.88
9.47
8.07
6.67
5.25
3.84
2.48
1.19
-0.03
-1.25
-2.49
-3.80
-5.11
-6.34
-7.40
-8.27
-9.06
-9.97
-11.21
-12.89
-14.92
-16.98
-18.66
-19.54
-19.39
-18.17
-16.07
-13.35
-10.27
-6.99
-3.68
-0.47
2.45
4.89
6.68
7.79
8.32
8.51
8.62
8.84
9.25
9.78
10.31
10.73
11.01
11.19
11.34
11.46
11.52
11.43
11.16
10.70
10.10
9.40
8.62
7.71
6.65
5.53
4.45
3.53
2.82
2.28
1.79
1.20
0.44
-0.50
-1.57
-2.74
-3.96
-5.20
-6.45
-7.67
-8.84
-9.94
-10.93
-11.77
-12.34
-12.51
-12.12
-11.08
-9.40
-7.17
-4.59
-1.88
0.73
3.06
5.00
6.47
7.41
7.83
7.80
7.42
6.90
6.44
6.21
6.25
6.49
6.71
6.75
6.53
6.09
5.59
5.18
4.90
4.66
4.33
3.77
2.94
1.91
0.79
-0.34
-1.41
-2.41
-3.31
-4.11
-4.84
-5.57
-6.45
-7.58
-9.00
-10.62
-12.19
-13.43
-14.14
-14.25
-13.80
-12.94
-11.79
-10.41
-8.78
-6.90
-4.83
-2.72
-0.75
0.90
2.10
2.84
3.16
3.16
2.95
2.66
2.38
2.19
2.10
2.10
2.14
2.19
2.27
2.37
2.48
2.55
2.47
2.17
1.63
0.92
0.16
-0.55
-1.17
-1.74
-2.38
-3.19
-4.18
-5.32
-6.53
-7.72
-8.89
-10.10
-11.36
-12.63
-13.73
-14.38
-14.32
-13.41
-11.72
-9.51
-7.09
-4.73
-2.56
-0.61
1.14
2.67
3.93
4.82
5.30
5.41
5.28
5.06
4.91
4.91
5.04
5.22
5.32
5.23
4.92
4.42
3.83
3.25
2.73
2.24
1.73
1.12
0.38
-0.48
-1.40
-2.31
-3.16
-3.93
-4.63
-5.32
-6.06
-6.92
-7.97
-9.23
-10.62
-11.99
-13.16
-13.95
-14.25
-14.06
-13.44
-12.47
-11.23
-9.74
-8.00
-6.04
-3.90
-1.74
0.31
2.12
3.59
4.73
5.57
6.15
6.51
6.64
6.55
6.31
6.04
5.86
5.84
5.96
6.08
6.07
5.84
5.40
4.84
4.21
3.52
2.70
1.66
0.37
-1.13
-2.73
-4.31
-5.80
-7.15
-8.37
-9.47
-10.50
-11.54
-12.70
-14.03
-15.50
-16.99
-18.23
-18.98
-19.04
-18.38
-17.07
-15.26
-13.07
-10.62
-8.01
-5.34
-2.79
-0.56
1.20
2.40
3.08
3.33
3.32
3.17
2.99
2.86
2.88
3.06
3.42
3.87
4.36
4.85
5.36
5.90
6.50
7.07
7.43
7.46
7.12
6.55
5.99
5.61
5.41
5.21
4.76
3.92
2.70
1.26
-0.20
-1.56
-2.78
-3.91
-5.01
-6.09
-7.18
-8.29
-9.43
-10.55
-11.53
-12.19
-12.39
-12.08
-11.28
-10.08
-8.53
-6.69
-4.64
-2.50
-0.45
1.34
2.79
3.88
4.71
5.36
5.90
6.34
6.66
6.87
6.99
7.09
7.24
7.49
7.84
8.21
8.49
8.56
8.39
8.03
7.60
7.20
6.86
6.52
6.08
5.49
4.77
4.01
3.29
2.63
2.00
1.30
0.49
-0.41
-1.33
-2.21
-3.00
-3.71
-4.34
-4.96
-5.65
-6.47
-7.52
-8.81
-10.25
-11.67
-12.86
-13.60
-13.79
-13.41
-12.49
-11.07
-9.24
-7.08
-4.75
-2.51
-0.59
0.79
1.57
1.84
1.91
2.11
2.76
3.98
5.70
7.67
9.55
11.08
12.13
12.73
13.04
13.22
13.37
13.50
13.55
13.50
13.33
13.08
12.78
12.42
11.96
11.31
10.44
9.33
8.00
6.46
4.70
2.65
0.29
-2.29
-4.91
-7.28
-9.17
-10.47
-11.23
-11.69
-12.09
-12.65
-13.47
-14.56
-15.76
-16.87
-17.54
-17.43
-16.31
-14.14
-11.17
-7.83
-4.62
-1.86
0.30
1.98
3.36
4.61
5.81
6.89
7.78
8.42
8.79
8.98
9.06
9.07
9.00
8.79
8.39
7.86
7.34
7.05
7.15
7.63
8.34
9.01
9.40
9.34
8.85
8.04
7.07
6.10
5.21
4.50
3.98
3.62
3.35
3.05
2.57
1.85
0.93
-0.09
-1.10
-2.02
-2.87
-3.74
-4.72
-5.85
-7.12
-8.41
-9.58
-10.51
-11.07
-11.23
-10.95
-10.25
-9.16
-7.74
-6.08
-4.31
-2.53
-0.89
0.54
1.72
2.67
3.44
4.10
4.69
5.27
5.84
6.33
6.65
6.67
6.34
5.71
4.90
4.08
3.34
2.64
1.87
0.96
-0.08
-1.12
-2.08
-2.95
-3.83
-4.92
-6.29
-7.91
-9.56
-10.98
-12.02
-12.65
-12.94
-12.97
-12.82
-12.53
-12.17
-11.82
-11.52
-11.25
-10.88
-10.26
-9.28
-7.93
-6.25
-4.35
-2.29
-0.14
1.98
3.85
5.19
5.81
5.66
4.89
3.76
2.50
1.20
-0.15
-1.59
-3.13
-4.63
-5.91
-6.80
-7.20
-7.18
-6.88
-6.46
-6.03
-5.62
-5.19
-4.69
-4.11
-3.53
-3.10
-2.95
-3.15
-3.68
-4.39
-5.13
-5.74
-6.19
-6.54
-6.92
-7.48
-8.29
-9.35
-10.52
-11.57
-12.24
-12.25
-11.46
-9.86
-7.62
-4.98
-2.27
0.24
2.33
3.89
4.91
5.49
5.78
5.95
6.15
6.39
6.58
6.56
6.21
5.57
4.87
4.40
4.39
4.87
5.60
6.25
6.48
6.23
5.63
5.03
4.70
4.78
5.19
5.71
6.12
6.22
5.85
4.87
3.15
0.68
-2.36
-5.53
-8.22
-9.82
-9.99
-8.72
-6.29
-3.17
0.17
3.41
6.32
8.80
10.77
12.22
13.19
13.84
14.40
15.06
15.94
16.97
17.95
18.63
18.82
18.45
17.60
16.41
15.07
13.69
12.33
11.00
9.75
8.64
7.73
7.04
6.47
5.91
5.16
4.11
2.74
1.07
-0.84
-2.91
-5.07
-7.22
-9.17
-10.64
-11.41
-11.31
-10.36
-8.74
-6.75
-4.66
-2.66
-0.85
0.80
2.31
3.64
4.70
5.35
5.53
5.25
4.65
3.94
3.35
3.00
2.91
3.01
3.20
3.37
3.49
3.53
3.46
3.24
2.82
2.16
1.28
0.21
-0.99
-2.27
-3.61
-5.04
-6.59
-8.28
-10.06
-11.83
-13.45
-14.75
-15.56
-15.75
-15.21
-13.90
-11.86
-9.25
-6.27
-3.17
-0.18
2.56
4.97
7.00
8.59
9.65
10.16
10.21
9.98
9.75
9.72
9.89
10.08
10.00
9.45
8.44
7.18
6.03
5.26
4.95
4.94
4.89
4.47
3.50
2.01
0.21
-1.63
-3.32
-4.81
-6.15
-7.47
-8.87
-10.44
-12.18
-14.11
-16.18
-18.30
-20.27
-21.79
-22.54
-22.27
-20.87
-18.41
-15.17
-11.44
-7.53
-3.64
0.15
3.79
7.23
10.36
12.98
14.93
16.14
16.67
16.74
16.60
16.49
16.53
16.73
16.99
17.19
17.24
17.11
16.80
16.35
15.68
14.74
13.44
11.80
9.89
7.92
6.08
4.51
3.17
1.95
0.68
-0.73
-2.28
-3.86
-5.34
-6.71
-8.04
-9.51
-11.23
-13.17
-15.17
-16.89
-18.00
-18.26
-17.58
-15.99
-13.64
-10.67
-7.26
-3.60
0.08
3.53
6.53
8.91
10.59
11.61
12.06
12.15
12.09
12.07
12.19
12.43
12.66
12.75
12.59
12.19
11.66
11.14
10.72
10.39
10.07
9.67
9.11
8.41
7.56
6.60
5.48
4.18
2.70
1.18
-0.16
-1.14
-1.70
-1.96
-2.19
-2.62
-3.35
-4.30
-5.27
-6.10
-6.73
-7.27
-7.88
-8.69
-9.76
-11.06
-12.56
-14.17
-15.77
-17.14
-18.00
-18.13
-17.36
-15.77
-13.56
-11.01
-8.40
-5.90
-3.62
-1.60
0.13
1.56
2.68
3.47
3.96
4.17
4.13
3.89
3.52
3.06
2.64
2.35
2.31
2.58
3.18
4.00
4.84
5.44
5.57
5.18
4.34
3.30
2.32
1.57
1.09
0.79
0.58
0.39
0.29
0.35
0.61
1.01
1.36
1.48
1.28
0.80
0.23
-0.24
-0.48
-0.51
-0.43
-0.36
-0.46
-0.79
-1.43
-2.38
-3.63
-5.10
-6.61
-7.86
-8.50
-8.16
-6.65
-4.01
-0.56
3.19
6.62
9.26
10.87
11.46
11.27
10.61
9.78
8.99
8.44
8.29
8.63
9.48
10.68
11.98
13.12
13.83
13.99
13.56
12.61
11.27
9.75
8.30
7.19
6.62
6.67
7.28
8.28
9.42
10.48
11.25
11.62
11.54
11.03
10.18
9.12
7.96
6.80
5.68
4.64
3.68
2.80
2.03
1.29
0.44
-0.70
-2.26
-4.25
-6.46
-8.57
-10.23
-11.16
-11.29
-10.70
-9.54
-7.91
-5.89
-3.54
-0.98
1.53
3.71
5.30
6.24
6.64
6.72
6.66
6.56
6.43
6.19
5.88
5.55
5.30
5.21
5.23
5.24
5.14
4.90
4.56
4.21
3.95
3.76
3.56
3.26
2.82
2.31
1.86
1.58
1.50
1.52
1.46
1.19
0.66
-0.06
-0.85
-1.65
-2.41
-3.17
-3.98
-4.87
-5.80
-6.71
-7.49
-8.07
-8.45
-8.66
-8.85
-9.20
-9.85
-10.84
-12.01
-13.06
-13.61
-13.36
-12.18
-10.17
-7.63
-4.94
-2.47
-0.49
0.91
1.79
2.29
2.54
2.67
2.71
2.70
2.63
2.54
2.46
2.44
2.51
2.70
3.00
3.42
3.93
4.47
4.97
5.36
5.57
5.60
5.40
5.00
4.39
3.62
2.75
1.88
1.08
0.36
-0.30
-0.95
-1.66
-2.43
-3.25
-4.05
-4.76
-5.33
-5.71
-5.90
-5.95
-5.93
-5.94
-6.05
-6.31
-6.71
-7.24
-7.88
-8.64
-9.53
-10.51
-11.45
-12.18
-12.55
-12.45
-11.90
-10.98
-9.82
-8.54
-7.19
-5.85
-4.54
-3.34
-2.27
-1.37
-0.65
-0.14
0.16
0.29
0.28
0.26
0.32
0.55
0.95
1.49
2.12
2.76
3.40
4.02
4.62
5.16
5.61
5.91
6.04
6.01
5.82
5.52
5.15
4.75
4.33
3.86
3.32
2.63
1.83
0.97
0.15
-0.53
-1.08
-1.53
-1.99
-2.52
-3.15
-3.76
-4.24
-4.48
-4.46
-4.29
-4.14
-4.20
-4.57
-5.23
-6.06
-6.93
-7.76
-8.58
-9.50
-10.62
-11.91
-13.18
-14.13
-14.44
-13.97
-12.75
-11.03
-9.08
-7.17
-5.41
-3.83
-2.40
-1.09
0.07
1.03
1.77
2.29
2.64
2.90
3.15
3.41
3.66
3.86
3.94
3.88
3.71
3.52
3.42
3.51
3.82
4.30
4.82
5.23
5.42
5.35
5.05
4.62
4.16
3.75
3.40
3.14
2.96
2.87
2.84
2.80
2.61
2.10
1.19
-0.05
-1.41
-2.61
-3.41
-3.77
-3.82
-3.81
-3.97
-4.36
-4.91
-5.45
-5.87
-6.14
-6.35
-6.65
-7.18
-7.97
-8.96
-10.03
-10.99
-11.68
-11.95
-11.77
-11.17
-10.26
-9.16
-7.96
-6.70
-5.43
-4.20
-3.09
-2.22
-1.66
-1.40
-1.35
-1.38
-1.40
-1.36
-1.24
-1.04
-0.75
-0.35
0.14
0.72
1.37
2.08
2.86
3.70
4.54
5.30
5.87
6.19
6.25
6.09
5.81
5.49
5.15
4.81
4.50
4.20
3.90
3.58
3.22
2.78
2.27
1.70
1.15
0.65
0.24
-0.12
-0.49
-0.97
-1.65
-2.51
-3.51
-4.51
-5.39
-6.08
-6.58
-6.98
-7.45
-8.14
-9.10
-10.24
-11.37
-12.23
-12.59
-12.37
-11.63
-10.50
-9.13
-7.62
-6.07
-4.55
-3.16
-1.98
-1.08
-0.45
-0.01
0.34
0.71
1.14
1.66
2.27
2.90
3.49
3.98
4.40
4.79
5.25
5.77
6.25
6.49
6.30
5.64
4.67
3.70
3.03
2.84
3.05
3.45
3.75
3.77
3.47
2.95
2.40
1.95
1.71
1.62
1.60
1.51
1.26
0.84
0.30
-0.31
-0.96
-1.69
-2.57
-3.61
-4.75
-5.91
-7.02
-8.14
-9.36
-10.77
-12.30
-13.71
-14.69
-14.98
-14.55
-13.57
-12.30
-11.00
-9.78
-8.58
-7.32
-5.95
-4.54
-3.23
-2.17
-1.47
-1.12
-1.01
-0.98
-0.80
-0.31
0.57
1.78
3.19
4.55
5.65
6.38
6.75
6.88
6.95
7.13
7.49
8.01
8.61
9.10
9.35
9.23
8.67
7.71
6.46
5.11
3.86
2.87
2.24
2.00
2.04
2.19
2.23
1.92
1.12
-0.18
-1.81
-3.58
-5.23
-6.64
-7.76
-8.64
-9.40
-10.18
-11.09
-12.18
-13.39
-14.57
-15.44
-15.72
-15.22
-13.92
-11.98
-9.68
-7.30
-5.03
-2.98
-1.19
0.30
1.46
2.30
2.84
3.13
3.28
3.35
3.41
3.51
3.72
4.12
4.76
5.64
6.66
7.69
8.57
9.26
9.80
10.25
10.70
11.13
11.42
11.38
10.86
9.82
8.37
6.72
5.10
3.69
2.51
1.51
0.60
-0.22
-0.92
-1.45
-1.85
-2.20
-2.63
-3.24
-4.00
-4.80
-5.48
-5.96
-6.26
-6.52
-6.88
-7.46
-8.26
-9.21
-10.12
-10.80
-11.04
-10.66
-9.60
-7.94
-5.90
-3.76
-1.78
-0.11
1.24
2.32
3.23
4.02
4.75
5.48
6.33
7.38
8.69
10.13
11.47
12.45
12.89
12.79
12.30
11.67
11.12
10.74
10.50
10.28
9.96
9.45
8.77
7.97
7.18
6.50
6.04
5.78
5.64
5.49
5.19
4.73
4.22
3.81
3.54
3.34
2.93
2.03
0.50
-1.59
-3.95
-6.18
-8.03
-9.44
-10.54
-11.55
-12.58
-13.59
-14.36
-14.63
-14.20
-12.96
-10.93
-8.23
-5.10
-1.82
1.29
3.91
5.87
7.12
7.75
7.93
7.85
7.66
7.50
7.49
7.67
8.06
8.59
9.14
9.57
9.82
9.89
9.86
9.79
9.71
9.59
9.37
9.03
8.58
8.02
7.34
6.51
5.49
4.28
2.97
1.65
0.41
-0.75
-1.84
-2.94
-4.07
-5.17
-6.18
-7.00
-7.62
-8.12
-8.67
-9.44
-10.58
-12.08
-13.78
-15.43
-16.67
-17.23
-16.93
-15.80
-13.98
-11.71
-9.20
-6.61
-4.11
-1.83
0.10
1.58
2.66
3.46
4.16
4.89
5.71
6.57
7.38
8.06
8.59
8.98
9.27
9.49
9.66
9.81
9.99
10.20
10.39
10.45
10.25
9.71
8.86
7.79
6.69
5.70
4.91
4.33
3.85
3.28
2.48
1.33
-0.13
-1.79
-3.46
-4.97
-6.27
-7.36
-8.36
-9.38
-10.57
-11.99
-13.67
-15.47
-17.14
-18.35
-18.78
-18.19
-16.59
-14.15
-11.20
-8.11
-5.17
-2.52
-0.24
1.66
3.16
4.27
4.99
5.45
5.80
6.23
6.86
7.72
8.74
9.78
10.70
11.43
11.92
12.16
12.18
12.03
11.78
11.52
11.30
11.07
10.74
10.20
9.39
8.33
7.15
5.98
4.90
3.90
2.91
1.87
0.76
-0.39
-1.52
-2.59
-3.64
-4.72
-5.94
-7.35
-8.97
-10.75
-12.61
-14.45
-16.14
-17.56
-18.53
-18.88
-18.48
-17.24
-15.20
-12.50
-9.38
-6.13
-3.04
-0.33
1.84
3.46
4.59
5.41
6.05
6.64
7.23
7.81
8.37
8.98
9.73
10.67
11.82
13.02
14.03
14.63
14.73
14.40
13.87
13.42
13.21
13.25
13.38
13.34
12.97
12.21
11.17
10.08
9.13
8.45
8.02
7.70
7.31
6.69
5.81
4.71
3.56
2.49
1.62
0.92
0.29
-0.42
-1.34
-2.48
-3.78
-5.13
-6.43
-7.64
-8.80
-9.96
-11.15
-12.42
-13.77
-15.19
-16.68
-18.21
-19.68
-20.95
-21.76
-21.83
-20.91
-18.87
-15.85
-12.17
-8.33
-4.80
-1.90
0.31
1.93
3.14
4.08
4.80
5.30
5.64
6.00
6.54
7.38
8.48
9.64
10.63
11.26
11.54
11.63
11.72
11.97
12.41
12.92
13.31
13.40
13.08
12.36
11.36
10.25
9.20
8.33
7.68
7.25
6.98
6.77
6.56
6.27
5.83
5.16
4.26
3.12
1.83
0.49
-0.80
-1.96
-3.01
-3.98
-4.97
-6.03
-7.20
-8.41
-9.58
-10.61
-11.45
-12.13
-12.77
-13.55
-14.68
-16.25
-18.18
-20.18
-21.79
-22.58
-22.24
-20.71
-18.20
-15.04
-11.61
-8.20
-4.98
-2.09
0.45
2.59
4.40
5.97
7.43
8.85
10.22
11.41
12.29
12.78
12.89
12.79
12.63
12.55
12.59
12.68
12.76
12.76
12.61
12.27
11.70
10.85
9.77
8.57
7.44
6.57
6.03
5.81
5.74
5.63
5.32
4.76
3.98
3.08
2.17
1.30
0.52
-0.19
-0.81
-1.40
-2.03
-2.80
-3.78
-4.98
-6.32
-7.66
-8.87
-9.93
-10.95
-12.08
-13.48
-15.15
-16.91
-18.45
-19.38
-19.44
-18.46
-16.51
-13.79
-10.64
-7.43
-4.46
-1.89
0.24
1.97
3.32
4.31
4.92
5.21
5.30
5.44
5.80
6.48
7.40
8.37
9.23
9.89
10.40
10.92
11.54
12.28
13.05
13.67
14.01
14.01
13.69
13.16
12.51
11.78
10.94
9.91
8.70
7.35
6.03
4.87
3.92
3.12
2.30
1.30
0.05
-1.35
-2.77
-4.04
-5.17
-6.25
-7.46
-8.91
-10.63
-12.52
-14.40
-16.08
-17.40
-18.27
-18.56
-18.16
-16.95
-14.87
-12.01
-8.64
-5.15
-1.93
0.74
2.82
4.41
5.64
6.62
7.31
7.69
7.76
7.68
7.66
7.90
8.51
9.41
10.47
11.52
12.45
13.20
13.71
13.92
13.80
13.33
12.53
11.50
10.33
9.10
7.91
6.82
5.87
5.01
4.14
3.07
1.67
-0.10
-2.13
-4.22
-6.19
-7.93
-9.45
-10.86
-12.25
-13.73
-15.37
-17.20
-19.24
-21.41
-23.50
-25.14
-25.92
-25.50
-23.76
-20.85
-17.19
-13.29
-9.64
-6.56
-4.16
-2.44
-1.28
-0.55
-0.13
0.10
0.25
0.43
0.71
1.19
1.84
2.62
3.45
4.25
4.97
5.61
6.16
6.61
6.91
6.95
6.68
6.11
5.33
4.54
3.89
3.46
3.17
2.88
2.43
1.79
0.98
0.14
-0.60
-1.19
-1.71
-2.30
-3.16
-4.44
-6.22
-8.40
-10.76
-12.96
-14.65
-15.56
-15.50
-14.48
-12.63
-10.22
-7.53
-4.88
-2.48
-0.44
1.23
2.62
3.84
4.98
6.03
6.93
7.62
8.09
8.42
8.78
9.35
10.18
11.18
12.10
12.67
12.70
12.19
11.30
10.27
9.27
8.36
7.50
6.59
5.60
4.57
3.56
2.60
1.67
0.70
-0.35
-1.42
-2.39
-3.15
-3.72
-4.25
-5.01
-6.20
-7.88
-9.90
-11.89
-13.46
-14.21
-13.98
-12.73
-10.58
-7.75
-4.50
-1.11
2.15
5.03
7.32
8.93
9.86
10.21
10.20
10.05
9.97
10.11
10.52
11.16
11.94
12.77
13.58
14.32
14.98
15.48
15.80
15.86
15.65
15.24
14.69
14.08
13.39
12.57
11.56
10.34
8.93
7.43
5.89
4.38
2.91
1.48
0.06
-1.44
-3.10
-5.07
-7.41
-10.05
-12.76
-15.18
-16.95
-17.84
-17.76
-16.81
-15.20
-13.08
-10.62
-7.87
-4.94
-1.97
0.78
3.00
4.40
4.83
4.33
3.15
1.70
0.43
-0.32
-0.36
0.27
1.34
2.55
3.63
4.40
4.83
4.98
4.91
4.67
4.22
3.49
2.41
0.97
-0.71
-2.48
-4.11
-5.47
-6.48
-7.23
-7.88
-8.70
-9.89
-11.58
-13.71
-16.03
-18.18
-19.77
-20.48
-20.20
-18.95
-16.91
-14.29
-11.25
-7.95
-4.53
-1.19
1.82
4.24
5.86
6.69
6.90
6.78
6.64
6.69
6.95
7.30
7.56
7.61
7.38
6.92
6.28
5.51
4.60
3.57
2.43
1.21
-0.03
-1.32
-2.70
-4.26
-5.98
-7.76
-9.37
-10.62
-11.48
-12.11
-12.82
-13.90
-15.46
-17.29
-18.94
-19.82
-19.49
-17.75
-14.74
-10.83
-6.49
-2.14
1.87
5.33
8.13
10.24
11.69
12.55
12.93
12.96
12.78
12.50
12.17
11.73
11.13
10.37
9.56
8.95
8.84
9.44
10.75
12.55
14.44
16.03
17.07
17.52
17.47
17.02
16.28
15.25
13.98
12.52
11.02
9.61
8.38
7.30
6.31
5.33
4.35
3.53
3.09
3.22
4.02
5.36
7.00
8.62
10.01
11.06
11.80
12.27
12.52
12.49
12.11
11.29
10.06
8.57
7.04
5.74
4.92
4.69
5.03
5.70
6.39
6.76
6.61
6.02
5.19
4.40
3.86
3.52
3.25
2.83
2.18
1.33
0.39
-0.53
-1.45
-2.49
-3.83
-5.58
-7.72
-10.08
-12.37
-14.28
-15.49
-15.78
-15.02
-13.27
-10.75
-7.78
-4.73
-1.89
0.57
2.58
4.15
5.31
6.06
6.41
6.43
6.27
6.18
6.32
6.72
7.26
7.67
7.73
7.43
6.90
6.45
6.32
6.53
6.88
7.02
6.63
5.57
3.91
1.92
-0.15
-2.12
-3.97
-5.81
-7.74
-9.78
-11.83
-13.69
-15.12
-15.98
-16.17
-15.70
-14.57
-12.81
-10.43
-7.53
-4.34
-1.20
1.50
3.54
4.88
5.74
6.39
7.04
7.65
8.04
8.00
7.45
6.58
5.69
5.06
4.84
4.94
5.11
5.07
4.59
3.62
2.20
0.50
-1.30
-3.05
-4.70
-6.27
-7.76
-9.18
-10.50
-11.77
-13.10
-14.72
-16.81
-19.35
-21.93
-23.90
-24.57
-23.51
-20.80
-17.00
-12.90
-9.19
-6.23
-4.02
-2.33
-0.91
0.37
1.49
2.40
3.12
3.75
4.44
5.34
6.47
7.74
8.99
10.02
10.73
11.09
11.12
10.87
10.34
9.49
8.24
6.52
4.35
1.86
-0.70
-3.09
-5.15
-6.91
-8.56
-10.39
-12.54
-14.93
-17.18
-18.73
-19.13
-18.24
-16.25
-13.62
-10.79
-8.01
-5.24
-2.36
0.70
3.77
6.49
8.50
9.65
10.06
10.09
10.11
10.36
10.84
11.39
11.84
12.12
12.27
12.41
12.61
12.82
12.87
12.53
11.63
10.11
8.13
5.94
3.85
2.01
0.44
-1.01
-2.55
-4.34
-6.46
-8.80
-11.21
-13.43
-15.23
-16.36
-16.62
-15.90
-14.25
-11.85
-9.02
-6.09
-3.32
-0.87
1.26
3.10
4.72
6.16
7.36
8.31
8.96
9.35
9.57
9.80
10.22
10.92
11.92
13.05
14.07
14.78
15.05
14.85
14.26
13.36
12.17
10.69
8.87
6.74
4.37
1.90
-0.46
-2.56
-4.32
-5.76
-7.03
-8.32
-9.84
-11.71
-13.88
-16.15
-18.19
-19.62
-20.14
-19.56
-17.87
-15.23
-11.89
-8.22
-4.50
-1.01
2.03
4.52
6.38
7.65
8.44
8.94
9.34
9.77
10.27
10.77
11.21
11.54
11.76
11.97
12.23
12.55
12.81
12.85
12.53
11.79
10.71
9.38
7.94
6.47
4.97
3.44
1.86
0.30
-1.17
-2.48
-3.60
-4.61
-5.72
-7.12
-8.99
-11.32
-13.89
-16.32
-18.12
-18.90
-18.52
-17.05
-14.77
-12.01
-9.04
-6.04
-3.11
-0.35
2.10
4.06
5.43
6.22
6.58
6.77
7.04
7.50
8.09
8.61
8.84
8.68
8.19
7.55
7.03
6.76
6.76
6.86
6.89
6.70
6.23
5.48
4.49
3.22
1.70
-0.02
-1.80
-3.48
-4.95
-6.27
-7.60
-9.15
-11.04
-13.19
-15.33
-17.09
-18.12
-18.18
-17.20
-15.28
-12.63
-9.58
-6.47
-3.56
-1.09
0.84
2.18
2.93
3.14
2.89
2.35
1.73
1.24
1.04
1.17
1.57
2.10
2.61
3.04
3.41
3.75
4.10
4.39
4.53
4.36
3.74
2.63
1.07
-0.80
-2.79
-4.73
-6.52
-8.16
-9.70
-11.24
-12.82
-14.46
-16.03
-17.30
-17.95
-17.69
-16.38
-14.06
-10.99
-7.57
-4.15
-0.99
1.78
4.12
6.01
7.38
8.22
8.53
8.43
8.10
7.75
7.46
7.29
7.19
7.14
7.16
7.25
7.40
7.50
7.42
7.02
6.26
5.21
4.01
2.81
1.70
0.69
-0.25
-1.16
-2.06
-2.95
-3.86
-4.91
-6.24
-7.95
-10.06
-12.37
-14.51
-16.06
-16.63
-16.02
-14.28
-11.66
-8.53
-5.25
-2.08
0.80
3.27
5.22
6.58
7.30
7.45
7.16
6.61
5.96
5.38
4.95
4.74
4.79
5.06
5.50
5.98
6.40
6.69
6.83
6.81
6.59
6.16
5.48
4.57
3.51
2.39
1.27
0.17
-0.97
-2.19
-3.51
-4.89
-6.24
-7.54
-8.79
-10.06
-11.42
-12.80
-14.05
-14.92
-15.11
-14.42
-12.84
-10.51
-7.76
-4.87
-2.07
0.51
2.82
4.81
6.40
7.50
8.08
8.20
8.06
7.92
7.98
8.31
8.78
9.17
9.23
8.88
8.22
7.46
6.90
6.68
6.74
6.87
6.79
6.35
5.53
4.49
3.35
2.20
1.02
-0.21
-1.52
-2.85
-4.12
-5.32
-6.48
-7.71
-9.07
-10.55
-11.97
-13.14
-13.82
-13.90
-13.31
-12.06
-10.19
-7.80
-5.06
-2.22
0.48
2.79
4.57
5.81
6.60
7.03
7.21
7.20
7.06
6.90
6.84
6.98
7.32
7.78
8.18
8.36
8.25
7.87
7.34
6.76
6.19
5.60
4.92
4.05
2.98
1.72
0.35
-1.05
-2.43
-3.76
-5.05
-6.28
-7.44
-8.52
-9.56
-10.60
-11.72
-12.93
-14.17
-15.23
-15.88
-15.93
-15.27
-13.92
-11.96
-9.51
-6.71
-3.73
-0.83
1.70
3.65
4.92
5.61
5.89
5.95
5.84
5.57
5.12
4.60
4.17
4.01
4.20
4.62
5.05
5.26
5.18
4.88
4.52
4.22
3.98
3.72
3.34
2.82
2.21
1.60
1.05
0.51
-0.09
-0.90
-1.95
-3.22
-4.66
-6.18
-7.75
-9.34
-10.90
-12.34
-13.44
-13.95
-13.60
-12.21
-9.79
-6.57
-2.95
0.61
3.74
6.19
7.97
9.16
9.96
10.56
11.11
11.68
12.29
12.89
13.38
13.71
13.85
13.85
13.79
13.77
13.85
14.04
14.32
14.63
14.90
15.04
14.91
14.43
13.55
12.29
10.80
9.27
7.86
6.67
5.66
4.66
3.48
1.92
-0.07
-2.42
-4.85
-7.01
-8.51
-9.08
-8.64
-7.29
-5.30
-2.97
-0.59
1.65
3.62
5.22
6.38
7.02
7.11
6.71
6.00
5.23
4.60
4.27
4.22
4.37
4.58
4.78
4.94
5.12
5.32
5.54
5.67
5.53
5.01
4.11
2.88
1.45
-0.13
-1.81
-3.61
-5.46
-7.28
-8.96
-10.45
-11.81
-13.19
-14.70
-16.38
-18.09
-19.55
-20.45
-20.57
-19.84
-18.38
-16.38
-14.09
-11.71
-9.41
-7.32
-5.56
-4.23
-3.36
-2.95
-2.90
-3.05
-3.25
-3.36
-3.36
-3.34
-3.41
-3.66
-4.12
-4.71
-5.31
-5.83
-6.22
-6.54
-6.89
-7.38
-8.05
-8.84
-9.60
-10.16
-10.39
-10.30
-10.02
-9.76
-9.75
-10.15
-11.02
-12.24
-13.59
-14.77
-15.48
-15.47
-14.62
-12.94
-10.53
-7.54
-4.13
-0.44
3.36
7.06
10.39
13.06
14.87
15.75
15.79
15.24
14.37
13.44
12.62
11.97
11.42
10.91
10.38
9.85
9.39
9.09
8.89
8.66
8.20
7.40
6.27
4.99
3.74
2.63
1.55
0.32
-1.27
-3.26
-5.54
-7.91
-10.20
-12.31
-14.18
-15.69
-16.64
-16.78
-15.94
-14.12
-11.55
-8.56
-5.48
-2.49
0.34
3.06
5.66
8.10
10.23
11.89
13.00
13.59
13.78
13.75
13.68
13.70
13.85
14.09
14.36
14.55
14.57
14.37
13.93
13.26
12.41
11.47
10.45
9.37
8.18
6.84
5.29
3.52
1.57
-0.46
-2.44
-4.23
-5.78
-7.18
-8.60
-10.21
-12.14
-14.32
-16.54
-18.45
-19.71
-20.06
-19.37
-17.69
-15.20
-12.17
-8.88
-5.61
-2.55
0.17
2.53
4.54
6.17
7.43
8.30
8.87
9.29
9.70
10.22
10.82
11.39
11.81
12.06
12.20
12.35
12.56
12.79
12.87
12.65
12.08
11.24
10.31
9.41
8.63
7.91
7.18
6.38
5.50
4.58
3.64
2.71
1.79
0.88
-0.03
-0.98
-1.97
-3.03
-4.18
-5.36
-6.53
-7.64
-8.71
-9.80
-11.02
-12.47
-14.25
-16.37
-18.70
-21.01
-22.96
-24.20
-24.47
-23.69
-21.92
-19.42
-16.48
-13.36
-10.28
-7.40
-4.79
-2.51
-0.58
0.98
2.14
2.89
3.31
3.52
3.77
4.24
5.02
6.07
7.22
8.27
9.11
9.72
10.11
10.31
10.26
9.90
9.29
8.62
8.15
8.09
8.46
9.04
9.51
9.57
9.14
8.35
7.43
6.58
5.87
5.24
4.55
3.72
2.75
1.72
0.71
-0.26
-1.24
-2.29
-3.43
-4.64
-5.81
-6.82
-7.63
-8.24
-8.81
-9.51
-10.52
-11.96
-13.78
-15.73
-17.43
-18.43
-18.38
-17.15
-14.84
-11.77
-8.34
-4.94
-1.81
0.94
3.26
5.13
6.51
7.40
7.92
8.25
8.64
9.25
10.08
11.01
11.87
12.54
13.04
13.49
14.03
14.67
15.31
15.75
15.82
15.44
14.67
13.66
12.62
11.68
10.95
10.39
9.89
9.32
8.59
7.68
6.70
5.79
5.05
4.45
3.92
3.31
2.58
1.74
0.89
0.09
-0.67
-1.53
-2.63
-4.02
-5.63
-7.25
-8.68
-9.83
-10.81
-11.85
-13.23
-15.06
-17.19
-19.20
-20.56
-20.87
-19.95
-17.93
-15.16
-12.03
-8.86
-5.88
-3.17
-0.81
1.17
2.72
3.81
4.51
4.94
5.25
5.55
5.88
6.20
6.43
6.54
6.57
6.60
6.78
7.15
7.71
8.38
9.04
9.60
9.99
10.17
10.11
9.77
9.11
8.13
6.95
5.71
4.58
3.69
3.07
2.62
2.21
1.69
1.02
0.25
-0.54
-1.26
-1.93
-2.63
-3.47
-4.50
-5.68
-6.87
-7.94
-8.82
-9.52
-10.15
-10.89
-11.87
-13.20
-14.86
-16.69
-18.45
-19.82
-20.48
-20.25
-19.09
-17.11
-14.57
-11.77
-8.96
-6.35
-4.04
-2.05
-0.39
0.94
1.95
2.63
3.06
3.34
3.60
3.95
4.44
4.99
5.50
5.85
6.00
6.00
5.95
5.95
5.98
5.99
5.86
5.54
5.02
4.34
3.49
2.44
1.19
-0.25
-1.71
-2.97
-3.77
-3.98
-3.66
-3.04
-2.43
-2.06
-1.98
-2.07
-2.19
-2.26
-2.37
-2.75
-3.58
-4.89
-6.46
-8.00
-9.25
-10.18
-10.96
-11.88
-13.16
-14.78
-16.51
-18.05
-19.09
-19.48
-19.23
-18.41
-17.08
-15.24
-12.88
-10.01
-6.75
-3.29
0.16
3.43
6.40
8.94
10.89
12.02
12.13
11.18
9.35
7.11
4.99
3.51
2.94
3.26
4.23
5.50
6.78
7.90
8.79
9.46
9.92
10.15
10.09
9.67
8.89
7.81
6.59
5.41
4.45
3.79
3.41
3.16
2.84
2.33
1.58
0.65
-0.33
-1.30
-2.24
-3.21
-4.26
-5.37
-6.45
-7.45
-8.41
-9.47
-10.77
-12.31
-13.88
-15.10
-15.60
-15.10
-13.59
-11.25
-8.39
-5.34
-2.44
0.03
1.84
2.92
3.34
3.35
3.30
3.54
4.27
5.47
6.94
8.40
9.60
10.47
11.03
11.41
11.71
11.98
12.16
12.19
12.04
11.73
11.30
10.77
10.11
9.25
8.18
6.95
5.67
4.49
3.52
2.77
2.17
1.65
1.14
0.66
0.26
0.01
-0.08
-0.05
-0.02
-0.10
-0.39
-0.93
-1.69
-2.60
-3.52
-4.34
-4.91
-5.05
-4.59
-3.42
-1.55
0.86
3.52
6.09
8.30
10.00
11.15
11.76
11.89
11.56
10.87
9.94
8.98
8.16
7.58
7.24
7.07
6.97
6.87
6.75
6.63
6.49
6.31
6.08
5.76
5.35
4.83
4.16
3.30
2.20
0.90
-0.49
-1.84
-3.02
-3.99
-4.77
-5.45
-6.07
-6.71
-7.41
-8.27
-9.40
-10.87
-12.64
-14.50
-16.12
-17.12
-17.24
-16.38
-14.67
-12.33
-9.64
-6.84
-4.16
-1.82
0.07
1.41
2.23
2.62
2.70
2.53
2.15
1.56
0.83
0.11
-0.40
-0.53
-0.22
0.44
1.22
1.92
2.36
2.50
2.35
1.96
1.37
0.61
-0.28
-1.29
-2.36
-3.43
-4.45
-5.36
-6.14
-6.83
-7.50
-8.29
-9.28
-10.45
-11.63
-12.56
-12.96
-12.66
-11.59
-9.87
-7.67
-5.17
-2.57
-0.01
2.35
4.40
6.02
7.15
7.77
7.90
7.64
7.11
6.42
5.68
4.97
4.37
3.95
3.73
3.71
3.85
4.01
4.09
3.96
3.54
2.79
1.78
0.60
-0.61
-1.76
-2.81
-3.79
-4.77
-5.79
-6.92
-8.17
-9.61
-11.22
-12.97
-14.70
-16.12
-16.94
-16.92
-16.03
-14.38
-12.18
-9.65
-6.98
-4.29
-1.67
0.71
2.74
4.28
5.29
5.79
5.91
5.76
5.50
5.24
5.07
5.03
5.08
5.19
5.29
5.34
5.29
5.06
4.58
3.78
2.71
1.49
0.30
-0.69
-1.47
-2.13
-2.87
-3.86
-5.20
-6.88
-8.86
-11.02
-13.22
-15.28
-16.92
-17.89
-17.95
-17.01
-15.15
-12.61
-9.67
-6.59
-3.59
-0.80
1.68
3.85
5.69
7.20
8.36
9.15
9.57
9.67
9.59
9.47
9.47
9.63
9.90
10.16
10.23
10.02
9.48
8.66
7.63
6.51
5.37
4.25
3.16
1.99
0.69
-0.79
-2.39
-4.01
-5.57
-7.07
-8.62
-10.34
-12.33
-14.49
-16.51
-17.98
-18.50
-17.83
-15.98
-13.22
-9.94
-6.55
-3.40
-0.74
1.37
2.94
4.08
4.94
5.64
6.27
6.82
7.24
7.47
7.53
7.47
7.40
7.40
7.47
7.55
7.48
7.17
6.53
5.58
4.37
2.99
1.54
0.07
-1.33
-2.60
-3.72
-4.65
-5.39
-5.95
-6.35
-6.64
-6.93
-7.34
-8.01
-9.03
-10.42
-12.05
-13.74
-15.20
-16.09
-16.14
-15.15
-13.12
-10.24
-6.86
-3.32
0.10
3.22
6.05
8.57
10.80
12.72
14.29
15.53
16.44
17.08
17.47
17.63
17.58
17.42
17.25
17.13
17.03
16.83
16.43
15.79
15.01
14.24
13.60
13.13
12.70
12.18
11.45
10.52
9.48
8.50
7.70
7.09
6.65
6.24
5.71
4.93
3.80
2.27
0.39
-1.73
-3.91
-5.98
-7.76
-9.18
-10.27
-11.16
-12.09
-13.30
-14.97
-17.11
-19.53
-21.88
-23.68
-24.50
-24.03
-22.20
-19.18
-15.32
-11.05
-6.76
-2.77
0.76
3.79
6.34
8.44
10.11
11.34
12.16
12.64
12.87
12.96
13.00
13.01
13.00
12.97
13.02
13.23
13.67
14.37
15.20
16.03
16.70
17.12
17.27
17.24
17.15
17.10
17.12
17.13
16.99
16.54
15.67
14.43
12.96
11.43
9.99
8.65
7.35
6.03
4.68
3.37
2.23
1.31
0.63
0.11
-0.37
-0.95
-1.70
-2.64
-3.68
-4.68
-5.50
-6.12
-6.64
-7.30
-8.39
-10.10
-12.43
-15.23
-18.23
-21.11
-23.58
-25.39
-26.31
-26.18
-24.90
-22.53
-19.31
-15.56
-11.65
-7.89
-4.50
-1.56
0.94
3.09
4.97
6.67
8.19
9.49
10.45
10.96
11.02
10.72
10.27
9.90
9.78
9.95
10.33
10.79
11.22
11.59
11.92
12.21
12.43
12.52
12.41
12.12
11.75
11.44
11.23
11.06
10.78
10.21
9.27
8.02
6.62
5.22
3.90
2.67
1.48
0.30
-0.85
-1.92
-2.84
-3.62
-4.27
-4.85
-5.42
-6.04
-6.74
-7.55
-8.51
-9.61
-10.89
-12.40
-14.19
-16.29
-18.64
-21.00
-22.96
-24.08
-24.01
-22.65
-20.22
-17.13
-13.81
-10.55
-7.41
-4.36
-1.38
1.45
3.94
5.94
7.37
8.32
8.96
9.41
9.73
9.92
9.99
10.03
10.17
10.50
11.00
11.56
12.00
12.23
12.24
12.16
12.08
12.07
12.12
12.19
12.20
12.08
11.79
11.28
10.60
9.81
9.02
8.33
7.73
7.14
6.44
5.59
4.65
3.82
3.28
3.08
3.06
2.97
2.55
1.68
0.43
-1.01
-2.45
-3.78
-5.01
-6.20
-7.40
-8.64
-9.92
-11.28
-12.78
-14.53
-16.55
-18.71
-20.68
-22.06
-22.41
-21.49
-19.33
-16.23
-12.69
-9.21
-6.18
-3.75
-1.84
-0.26
1.22
2.70
4.16
5.49
6.53
7.16
7.39
7.29
7.07
6.91
6.99
7.39
8.07
8.94
9.85
10.67
11.31
11.72
11.84
11.63
11.02
10.00
8.62
7.07
5.59
4.37
3.52
2.96
2.49
1.93
1.13
0.10
-1.10
-2.36
-3.59
-4.77
-5.84
-6.80
-7.64
-8.38
-9.15
-10.09
-11.32
-12.80
-14.34
-15.66
-16.48
-16.66
-16.22
-15.24
-13.83
-12.03
-9.87
-7.40
-4.79
-2.29
-0.13
1.53
2.65
3.32
3.66
3.80
3.83
3.83
3.90
4.14
4.60
5.22
5.86
6.32
6.48
6.32
5.97
5.55
5.16
4.83
4.47
4.01
3.42
2.74
2.02
1.31
0.62
-0.09
-0.85
-1.71
-2.67
-3.70
-4.77
-5.85
-6.89
-7.95
-9.11
-10.47
-12.10
-13.97
-15.89
-17.57
-18.66
-18.88
-18.12
-16.42
-14.00
-11.18
-8.28
-5.58
-3.22
-1.22
0.52
2.09
3.53
4.80
5.74
6.25
6.28
5.97
5.54
5.22
5.17
5.42
5.85
6.28
6.56
6.63
6.52
6.37
6.32
6.45
6.66
6.77
6.55
5.88
4.79
3.47
2.15
1.00
0.07
-0.73
-1.54
-2.49
-3.63
-4.97
-6.49
-8.12
-9.84
-11.60
-13.33
-14.94
-16.28
-17.11
-17.18
-16.32
-14.49
-11.87
-8.81
-5.72
-2.94
-0.60
1.31
2.92
4.34
5.60
6.64
7.37
7.78
7.94
8.01
8.14
8.44
8.91
9.49
10.08
10.61
11.01
11.25
11.29
11.09
10.60
9.79
8.74
7.56
6.44
5.51
4.82
4.22
3.53
2.55
1.26
-0.27
-1.84
-3.29
-4.56
-5.74
-6.95
-8.30
-9.82
-11.46
-13.21
-15.07
-17.06
-19.14
-21.13
-22.75
-23.68
-23.67
-22.62
-20.64
-17.99
-14.97
-11.93
-9.09
-6.66
-4.74
-3.36
-2.42
-1.77
-1.20
-0.54
0.26
1.22
2.29
3.45
4.72
6.13
7.69
9.34
10.97
12.41
13.56
14.38
14.89
15.14
15.16
14.94
14.51
13.92
13.26
12.60
11.98
11.36
10.64
9.72
8.52
7.04
5.41
3.75
2.19
0.77
-0.55
-1.82
-3.12
-4.45
-5.76
-7.02
-8.18
-9.21
-10.12
-10.93
-11.66
-12.42
-13.30
-14.41
-15.78
-17.33
-18.85
-20.06
-20.67
-20.48
-19.40
-17.48
-14.88
-11.84
-8.67
-5.70
-3.21
-1.33
-0.04
0.89
1.73
2.69
3.83
5.05
6.18
7.08
7.74
8.29
8.90
9.75
10.94
12.45
14.20
16.07
17.90
19.50
20.67
21.26
21.17
20.50
19.45
18.32
17.32
16.53
15.84
15.01
13.88
12.41
10.74
9.07
7.63
6.49
5.62
4.92
4.27
3.59
2.87
2.10
1.32
0.54
-0.20
-0.85
-1.42
-1.92
-2.41
-2.93
-3.51
-4.17
-4.96
-5.95
-7.27
-9.01
-11.20
-13.73
-16.36
-18.77
-20.61
-21.60
-21.59
-20.54
-18.55
-15.80
-12.52
-8.96
-5.40
-2.13
0.69
2.97
4.76
6.23
7.52
8.71
9.80
10.73
11.43
11.94
12.33
12.65
12.95
13.16
13.25
13.21
13.10
13.01
13.03
13.14
13.25
13.18
12.79
12.01
10.87
9.51
8.08
6.71
5.49
4.47
3.63
2.96
2.40
1.81
1.08
0.11
-1.06
-2.29
-3.37
-4.14
-4.58
-4.85
-5.17
-5.74
-6.54
-7.41
-8.12
-8.49
-8.54
-8.45
-8.46
-8.78
-9.54
-10.73
-12.26
-14.00
-15.75
-17.31
-18.44
-18.87
-18.41
-16.99
-14.66
-11.70
-8.46
-5.35
-2.66
-0.53
1.09
2.34
3.42
4.48
5.60
6.80
8.08
9.41
10.72
11.89
12.74
13.12
12.98
12.37
11.46
10.43
9.44
8.57
7.84
7.25
6.77
6.38
6.03
5.67
5.29
4.86
4.36
3.74
2.93
1.86
0.58
-0.82
-2.14
-3.14
-3.68
-3.80
-3.64
-3.45
-3.48
-3.88
-4.73
-5.99
-7.53
-9.24
-10.98
-12.63
-14.15
-15.53
-16.81
-18.02
-19.17
-20.22
-21.08
-21.61
-21.64
-21.02
-19.61
-17.39
-14.43
-10.92
-7.17
-3.51
-0.20
2.58
4.72
6.21
7.07
7.34
7.18
6.79
6.42
6.31
6.60
7.34
8.48
9.86
11.27
12.49
13.35
13.74
13.66
13.17
12.37
11.43
10.49
9.69
9.13
8.81
8.69
8.63
8.50
8.17
7.59
6.73
5.65
4.37
2.92
1.34
-0.33
-2.08
-3.90
-5.81
-7.80
-9.82
-11.79
-13.61
-15.22
-16.63
-17.85
-18.85
-19.55
-19.74
-19.19
-17.72
-15.30
-12.12
-8.51
-4.88
-1.53
1.38
3.86
6.01
7.90
9.51
10.70
11.36
11.48
11.16
10.62
10.09
9.73
9.59
9.62
9.72
9.82
9.92
10.11
10.43
10.92
11.47
11.92
12.10
11.86
11.24
10.33
9.31
8.27
7.22
6.09
4.81
3.41
2.04
0.85
-0.06
-0.80
-1.65
-2.91
-4.85
-7.50
-10.68
-14.08
-17.34
-20.19
-22.38
-23.76
-24.21
-23.71
-22.32
-20.17
-17.44
-14.25
-10.78
-7.14
-3.51
-0.11
2.80
5.03
6.51
7.24
7.36
7.05
6.58
6.23
6.28
6.90
8.08
9.57
10.99
11.92
12.16
11.75
11.00
10.30
9.91
9.91
10.10
10.22
10.05
9.52
8.69
7.65
6.44
5.07
3.49
1.75
-0.05
-1.74
-3.23
-4.56
-5.90
-7.45
-9.35
-11.54
-13.84
-15.95
-17.55
-18.39
-18.33
-17.35
-15.55
-13.14
-10.36
-7.45
-4.60
-1.91
0.59
2.84
4.79
6.35
7.44
7.99
8.05
7.78
7.42
7.29
7.60
8.45
9.76
11.31
12.88
14.32
15.57
16.69
17.70
18.56
19.11
19.17
18.59
17.38
15.69
13.77
11.80
9.89
8.01
6.09
4.04
1.87
-0.38
-2.66
-4.90
-7.12
-9.32
-11.46
-13.37
-14.84
-15.70
-15.89
-15.54
-14.94
-14.30
-13.71
-13.04
-12.02
-10.40
-8.09
-5.21
-2.02
1.13
3.97
6.32
8.09
9.27
9.90
10.08
9.99
9.85
9.86
10.15
10.75
11.60
12.55
13.47
14.23
14.72
14.89
14.74
14.32
13.73
13.06
12.37
11.63
10.79
9.76
8.56
7.26
6.03
5.03
4.35
3.97
3.76
3.52
3.06
2.27
1.13
-0.29
-1.86
-3.43
-4.89
-6.24
-7.56
-9.03
-10.84
-13.10
-15.78
-18.68
-21.44
-23.67
-25.04
-25.36
-24.62
-22.97
-20.63
-17.88
-14.95
-12.07
-9.35
-6.88
-4.65
-2.65
-0.87
0.68
1.91
2.78
3.31
3.60
3.81
4.10
4.56
5.17
5.85
6.53
7.17
7.83
8.56
9.33
10.04
10.53
10.62
10.27
9.61
8.84
8.17
7.70
7.40
7.13
6.74
6.13
5.31
4.36
3.36
2.42
1.61
0.99
0.58
0.29
-0.04
-0.61
-1.58
-2.97
-4.63
-6.35
-7.88
-9.12
-10.09
-10.96
-11.96
-13.24
-14.88
-16.79
-18.76
-20.53
-21.80
-22.37
-22.12
-21.02
-19.18
-16.75
-13.88
-10.83
-7.82
-5.06
-2.71
-0.82
0.67
1.89
2.98
4.02
5.00
5.87
6.55
6.99
7.21
7.25
7.22
7.20
7.27
7.48
7.83
8.32
8.90
9.54
10.15
10.63
10.85
10.75
10.37
9.79
9.18
8.66
8.29
8.05
7.83
7.54
7.09
6.42
5.55
4.52
3.41
2.32
1.31
0.41
-0.43
-1.28
-2.13
-2.95
-3.61
-4.04
-4.26
-4.42
-4.74
-5.42
-6.50
-7.92
-9.49
-11.05
-12.52
-13.93
-15.39
-16.94
-18.54
-19.94
-20.82
-20.89
-20.00
-18.23
-15.83
-13.09
-10.24
-7.41
-4.64
-1.98
0.47
2.57
4.16
5.20
5.75
6.01
6.17
6.40
6.80
7.39
8.09
8.86
9.61
10.27
10.77
11.11
11.32
11.49
11.70
12.00
12.37
12.73
12.96
12.94
12.62
12.01
11.14
10.11
9.02
7.95
7.01
6.25
5.71
5.35
5.09
4.85
4.53
4.09
3.50
2.74
1.81
0.70
-0.56
-1.89
-3.14
-4.19
-5.02
-5.69
-6.36
-7.23
-8.36
-9.72
-11.17
-12.60
-14.00
-15.46
-17.05
-18.67
-20.07
-20.86
-20.72
-19.57
-17.61
-15.22
-12.71
-10.27
-7.90
-5.49
-3.00
-0.55
1.67
3.45
4.69
5.46
5.91
6.25
6.60
7.01
7.46
7.91
8.31
8.68
9.02
9.37
9.75
10.14
10.50
10.76
10.83
10.71
10.41
9.97
9.46
8.92
8.37
7.80
7.27
6.78
6.37
6.03
5.73
5.44
5.10
4.67
4.10
3.35
2.44
1.42
0.39
-0.55
-1.37
-2.11
-2.89
-3.87
-5.09
-6.46
-7.81
-8.95
-9.81
-10.46
-11.10
-11.94
-13.12
-14.61
-16.27
-17.88
-19.21
-20.09
-20.41
-20.10
-19.12
-17.49
-15.28
-12.64
-9.74
-6.79
-3.97
-1.43
0.78
2.65
4.19
5.43
6.37
6.97
7.24
7.17
6.89
6.56
6.37
6.46
6.85
7.42
8.04
8.58
8.98
9.25
9.38
9.34
9.06
8.45
7.48
6.23
4.89
3.70
2.89
2.55
2.60
2.84
3.02
2.92
2.47
1.77
0.97
0.27
-0.24
-0.62
-0.98
-1.48
-2.17
-3.06
-4.06
-5.15
-6.32
-7.59
-8.96
-10.36
-11.66
-12.77
-13.67
-14.46
-15.32
-16.35
-17.54
-18.68
-19.40
-19.40
-18.52
-16.80
-14.49
-11.90
-9.25
-6.67
-4.18
-1.82
0.32
2.09
3.35
4.08
4.39
4.53
4.75
5.18
5.82
6.53
7.17
7.65
8.01
8.37
8.86
9.51
10.29
11.05
11.66
11.98
11.95
11.63
11.11
10.53
10.01
9.60
9.27
8.97
8.60
8.12
7.52
6.80
5.96
4.99
3.89
2.67
1.43
0.28
-0.69
-1.45
-2.04
-2.54
-3.04
-3.62
-4.26
-4.93
-5.54
-6.07
-6.51
-6.96
-7.55
-8.48
-9.90
-11.87
-14.25
-16.78
-19.01
-20.56
-21.15
-20.71
-19.33
-17.21
-14.56
-11.55
-8.37
-5.24
-2.41
-0.08
1.65
2.85
3.73
4.46
5.15
5.80
6.34
6.71
6.96
7.16
7.48
8.00
8.76
9.69
10.62
11.37
11.75
11.73
11.34
10.76
10.17
9.70
9.39
9.21
9.10
9.03
9.00
8.98
8.89
8.60
7.98
6.97
5.64
4.17
2.77
1.61
0.77
0.18
-0.26
-0.70
-1.22
-1.88
-2.70
-3.67
-4.80
-6.07
-7.45
-8.91
-10.35
-11.72
-12.98
-14.18
-15.43
-16.86
-18.50
-20.28
-21.94
-23.12
-23.50
-22.81
-21.03
-18.33
-15.07
-11.62
-8.31
-5.34
-2.73
-0.47
1.48
3.08
4.30
5.11
5.57
5.86
6.15
6.59
7.20
7.82
8.31
8.55
8.56
8.50
8.56
8.85
9.34
9.92
10.42
10.71
10.75
10.54
10.10
9.47
8.69
7.85
7.06
6.42
5.95
5.59
5.27
4.87
4.35
3.74
3.09
2.41
1.72
0.98
0.19
-0.65
-1.51
-2.37
-3.25
-4.15
-5.07
-5.99
-6.85
-7.70
-8.57
-9.60
-10.91
-12.56
-14.47
-16.42
-18.14
-19.37
-19.94
-19.81
-19.01
-17.68
-15.92
-13.84
-11.55
-9.20
-6.93
-4.94
-3.35
-2.17
-1.36
-0.74
-0.19
0.40
1.06
1.76
2.45
3.04
3.51
3.84
4.09
4.34
4.72
5.30
6.09
6.99
7.83
8.41
8.61
8.43
7.94
7.29
6.64
6.13
5.86
5.87
6.11
6.44
6.65
6.55
6.03
5.15
4.07
3.02
2.11
1.34
0.59
-0.31
-1.42
-2.75
-4.21
-5.68
-7.11
-8.48
-9.79
-11.07
-12.36
-13.70
-15.17
-16.78
-18.45
-19.98
-21.05
-21.39
-20.78
-19.26
-16.99
-14.28
-11.41
-8.60
-5.94
-3.42
-1.02
1.28
3.51
5.58
7.43
8.94
10.02
10.64
10.82
10.73
10.58
10.59
10.93
11.63
12.58
13.64
14.63
15.46
16.04
16.34
16.30
15.87
15.15
14.26
13.40
12.68
12.09
11.49
10.74
9.77
8.63
7.47
6.41
5.53
4.78
4.11
3.49
2.96
2.53
2.17
1.77
1.17
0.29
-0.90
-2.31
-3.77
-5.18
-6.45
-7.61
-8.72
-9.93
-11.38
-13.19
-15.37
-17.79
-20.14
-21.97
-22.85
-22.51
-20.92
-18.29
-14.98
-11.39
-7.84
-4.59
-1.82
0.28
1.66
2.36
2.65
2.84
3.20
3.86
4.74
5.65
6.48
7.21
7.93
8.70
9.51
10.22
10.67
10.78
10.63
10.38
10.20
10.15
10.13
9.99
9.68
9.22
8.79
8.56
8.64
8.98
9.44
9.80
9.96
9.86
9.57
9.11
8.51
7.68
6.52
4.94
2.93
0.54
-2.08
-4.79
-7.44
-9.93
-12.17
-14.12
-15.76
-17.15
-18.43
-19.77
-21.25
-22.80
-24.15
-24.89
-24.62
-23.12
-20.48
-17.01
-13.21
-9.53
-6.23
-3.42
-1.06
0.89
2.46
3.63
4.46
5.13
5.87
6.93
8.36
10.03
11.70
13.13
14.20
15.00
15.68
16.36
17.08
17.75
18.27
18.57
18.64
18.54
18.25
17.74
16.98
15.97
14.80
13.63
12.61
11.85
11.36
11.06
10.79
10.45
9.94
9.23
8.34
7.34
6.26
5.14
3.99
2.77
1.46
0.05
-1.46
-3.06
-4.74
-6.52
-8.43
-10.47
-12.61
-14.72
-16.62
-18.10
-18.96
-19.12
-18.52
-17.18
-15.15
-12.54
-9.46
-6.13
-2.78
0.36
3.05
5.17
6.66
7.59
8.09
8.40
8.73
9.25
9.94
10.67
11.24
11.48
11.36
11.01
10.65
10.46
10.52
10.74
10.93
10.91
10.63
10.10
9.38
8.49
7.41
6.09
4.56
2.97
1.51
0.35
-0.53
-1.34
-2.37
-3.83
-5.72
-7.80
-9.72
-11.21
-12.19
-12.77
-13.19
-13.66
-14.36
-15.33
-16.55
-17.97
-19.47
-20.91
-22.04
-22.59
-22.31
-21.05
-18.82
-15.80
-12.32
-8.72
-5.30
-2.25
0.39
2.59
4.39
5.78
6.74
7.30
7.54
7.61
7.69
7.93
8.39
9.11
10.01
11.01
11.96
12.75
13.27
13.50
13.44
13.12
12.56
11.76
10.72
9.49
8.15
6.86
5.73
4.85
4.19
3.64
3.03
2.27
1.36
0.37
-0.55
-1.34
-2.02
-2.77
-3.85
-5.48
-7.69
-10.29
-12.93
-15.10
-16.37
-16.48
-15.42
-13.40
-10.76
-7.86
-4.95
-2.19
0.41
2.80
4.93
6.69
8.00
8.83
9.29
9.59
9.88
10.26
10.68
11.02
11.18
11.16
11.07
11.06
11.18
11.36
11.40
11.12
10.40
9.32
7.99
6.57
5.12
3.64
2.06
0.38
-1.38
-3.18
-4.97
-6.75
-8.54
-10.37
-12.28
-14.34
-16.66
-19.32
-22.34
-25.57
-28.68
-31.24
-32.83
-33.17
-32.20
-30.04
-26.92
-23.16
-19.08
-14.98
-11.09
-7.58
-4.48
-1.75
0.71
2.99
5.08
6.92
8.41
9.53
10.33
10.94
11.51
12.09
12.63
12.99
12.95
12.34
11.02
9.04
6.52
3.73
0.96
-1.46
-3.24
-4.22
-4.35
-3.78
-2.75
-1.56
-0.47
0.31
0.74
0.85
0.70
0.29
-0.49
-1.82
-3.87
-6.63
-9.85
-13.00
-15.43
-16.59
-16.13
-14.10
-10.89
-7.03
-3.05
0.66
3.92
6.71
9.05
11.02
12.64
13.93
14.94
15.68
16.17
16.39
16.31
15.91
15.28
14.61
14.15
14.08
14.48
15.20
15.95
16.42
16.43
15.97
15.20
14.35
13.58
12.88
12.12
11.08
9.65
7.82
5.78
3.81
2.19
1.03
0.27
-0.31
-0.99
-1.95
-3.25
-4.77
-6.39
-8.03
-9.76
-11.76
-14.15
-16.84
-19.53
-21.71
-22.94
-22.95
-21.74
-19.56
-16.72
-13.47
-9.96
-6.29
-2.54
1.13
4.53
7.50
9.97
11.99
13.65
15.09
16.36
17.53
18.60
19.62
20.59
21.54
22.45
23.24
23.84
24.20
24.28
24.07
23.56
22.70
21.47
19.89
18.02
16.02
14.05
12.28
10.77
9.52
8.44
7.44
6.47
5.53
4.66
3.84
2.99
1.94
0.56
-1.19
-3.25
-5.39
-7.46
-9.34
-11.00
-12.51
-13.92
-15.25
-16.55
-17.94
-19.54
-21.41
-23.41
-25.20
-26.30
-26.26
-24.81
-21.96
-17.96
-13.24
-8.28
-3.51
0.72
4.19
6.84
8.76
10.11
11.11
11.91
12.63
13.32
13.97
14.54
15.03
15.41
15.71
15.98
16.26
16.64
17.15
17.78
18.44
18.94
19.13
18.87
18.14
17.00
15.60
14.14
12.76
11.57
10.59
9.77
9.00
8.11
6.95
5.46
3.66
1.68
-0.29
-2.08
-3.64
-4.97
-6.16
-7.26
-8.26
-9.12
-9.82
-10.39
-10.94
-11.64
-12.61
-13.94
-15.61
-17.48
-19.31
-20.79
-21.59
-21.46
-20.26
-18.00
-14.85
-11.07
-7.00
-2.98
0.67
3.72
6.05
7.67
8.69
9.23
9.46
9.48
9.44
9.43
9.56
9.84
10.25
10.68
11.03
11.26
11.42
11.61
11.90
12.29
12.69
12.93
12.89
12.53
11.94
11.23
10.53
9.91
9.34
8.74
8.04
7.19
6.18
5.04
3.83
2.60
1.39
0.18
-1.08
-2.48
-4.11
-6.02
-8.15
-10.38
-12.48
-14.26
-15.61
-16.56
-17.30
-18.08
-19.11
-20.48
-22.12
-23.76
-25.00
-25.35
-24.43
-22.07
-18.38
-13.82
-8.98
-4.44
-0.57
2.53
4.93
6.80
8.21
9.15
9.60
9.60
9.29
8.94
8.84
9.17
9.97
11.13
12.40
13.55
14.37
14.82
14.96
14.92
14.81
14.62
14.27
13.66
12.76
11.65
10.47
9.30
8.17
6.99
5.67
4.23
2.76
1.39
0.22
-0.74
-1.58
-2.42
-3.34
-4.36
-5.44
-6.50
-7.49
-8.37
-9.12
-9.78
-10.43
-11.19
-12.20
-13.59
-15.40
-17.56
-19.81
-21.76
-22.93
-22.95
-21.63
-19.07
-15.58
-11.63
-7.67
-4.01
-0.84
1.81
3.95
5.64
6.95
7.93
8.64
9.16
9.55
9.85
10.11
10.36
10.58
10.75
10.86
10.93
11.05
11.32
11.80
12.44
13.05
13.41
13.26
12.54
11.31
9.79
8.25
6.85
5.66
4.60
3.57
2.50
1.42
0.38
-0.57
-1.46
-2.40
-3.49
-4.76
-6.10
-7.36
-8.42
-9.27
-10.08
-11.06
-12.40
-14.17
-16.24
-18.38
-20.35
-21.89
-22.85
-23.11
-22.59
-21.25
-19.11
-16.27
-12.91
-9.29
-5.69
-2.38
0.47
2.76
4.48
5.73
6.59
7.14
7.46
7.60
7.62
7.56
7.54
7.64
7.90
8.33
8.86
9.37
9.74
9.90
9.84
9.62
9.32
9.01
8.70
8.32
7.80
7.08
6.16
5.07
3.90
2.70
1.53
0.40
-0.64
-1.54
-2.24
-2.79
-3.27
-3.84
-4.62
-5.63
-6.75
-7.83
-8.78
-9.65
-10.62
-11.86
-13.40
-15.11
-16.70
-17.81
-18.17
-17.62
-16.11
-13.73
-10.65
-7.09
-3.34
0.37
3.81
6.81
9.25
11.08
12.26
12.89
13.08
13.01
12.85
12.68
12.63
12.74
13.07
13.64
14.41
15.26
16.03
16.59
16.86
16.88
16.71
16.39
15.91
15.19
14.20
12.94
11.45
9.82
8.08
6.22
4.18
1.93
-0.50
-2.95
-5.23
-7.16
-8.65
-9.72
-10.53
-11.30
-12.30
-13.74
-15.73
-18.18
-20.84
-23.31
-25.17
-26.09
-25.88
-24.52
-22.12
-18.83
-14.95
-10.85
-6.92
-3.52
-0.83
1.10
2.41
3.23
3.63
3.64
3.30
2.71
2.06
1.60
1.45
1.61
1.94
2.29
2.60
2.89
3.24
3.61
3.92
4.03
3.86
3.47
2.98
2.50
2.00
1.37
0.48
-0.74
-2.24
-3.89
-5.57
-7.21
-8.80
-10.34
-11.79
-13.13
-14.39
-15.69
-17.18
-18.87
-20.63
-22.14
-23.03
-23.02
-22.02
-20.11
-17.49
-14.40
-11.08
-7.77
-4.72
-2.15
-0.20
1.07
1.73
1.95
1.93
1.87
1.93
2.16
2.54
3.02
3.52
4.01
4.42
4.66
4.69
4.44
3.97
3.40
2.94
2.75
2.85
3.12
3.33
3.24
2.79
2.06
1.18
0.28
-0.60
-1.52
-2.55
-3.72
-4.98
-6.30
-7.68
-9.15
-10.73
-12.30
-13.62
-14.42
-14.42
-13.50
-11.67
-9.09
-6.01
-2.69
0.57
3.53
5.98
7.81
9.01
9.61
9.73
9.49
9.02
8.48
8.03
7.82
7.93
8.36
9.01
9.73
10.40
10.91
11.21
11.29
11.17
10.87
10.42
9.85
9.19
8.46
7.67
6.82
5.91
4.88
3.69
2.26
0.61
-1.21
-3.10
-4.90
-6.51
-7.90
-9.12
-10.30
-11.57
-13.05
-14.73
-16.48
-18.05
-19.08
-19.27
-18.39
-16.41
-13.52
-10.06
-6.44
-3.06
-0.17
2.09
3.74
4.88
5.62
6.10
6.47
6.86
7.42
8.24
9.30
10.49
11.60
12.45
12.96
13.15
13.14
13.07
13.01
12.96
12.85
12.62
12.21
11.63
10.88
9.98
8.93
7.69
6.23
4.55
2.73
0.87
-0.89
-2.43
-3.68
-4.66
-5.42
-6.12
-6.94
-8.10
-9.74
-11.85
-14.24
-16.54
-18.33
-19.22
-19.02
-17.71
-15.49
-12.62
-9.42
-6.16
-3.08
-0.35
1.94
3.81
5.32
6.55
7.55
8.35
8.94
9.34
9.57
9.73
9.90
10.14
10.45
10.80
11.11
11.34
11.44
11.38
11.15
10.76
10.21
9.56
8.87
8.21
7.59
6.99
6.37
5.65
4.77
3.71
2.44
0.99
-0.62
-2.39
-4.26
-6.15
-7.95
-9.50
-10.70
-11.52
-12.03
-12.39
-12.82
-13.48
-14.43
-15.58
-16.72
-17.55
-17.78
-17.17
-15.58
-13.09
-9.93
-6.47
-3.16
-0.33
1.85
3.41
4.48
5.24
5.82
6.32
6.84
7.43
8.17
9.01
9.89
10.68
11.33
11.87
12.42
13.03
13.70
14.28
14.56
14.40
13.76
12.75
11.53
10.26
9.05
7.89
6.77
5.68
4.67
3.84
3.25
2.88
2.58
2.14
1.37
0.19
-1.33
-2.98
-4.58
-6.02
-7.31
-8.54
-9.84
-11.36
-13.20
-15.50
-18.31
-21.55
-24.93
-27.99
-30.19
-31.13
-30.65
-28.83
-25.95
-22.31
-18.19
-13.81
-9.42
-5.26
-1.55
1.61
4.20
6.30
7.98
9.24
10.04
10.36
10.29
10.06
9.91
10.00
10.33
10.74
11.04
11.15
11.12
11.12
11.28
11.67
12.16
12.60
12.81
12.75
12.47
12.07
11.62
11.08
10.32
9.24
7.79
6.11
4.41
2.94
1.83
1.02
0.32
-0.55
-1.79
-3.46
-5.46
-7.57
-9.57
-11.33
-12.83
-14.14
-15.43
-16.89
-18.62
-20.63
-22.75
-24.68
-26.00
-26.32
-25.38
-23.12
-19.73
-15.64
-11.32
-7.26
-3.78
-1.02
1.09
2.74
4.14
5.45
6.71
7.88
8.85
9.53
9.88
9.96
9.93
9.94
10.17
10.67
11.41
12.25
12.98
13.38
13.28
12.64
11.59
10.34
9.13
8.16
7.48
7.06
6.82
6.66
6.53
6.39
6.25
6.05
5.80
5.46
5.09
4.73
4.46
4.40
4.70
5.49
6.87
8.75
10.86
12.69
13.62
13.08
10.87
7.27
3.16
-0.13
-1.19
0.96
6.50
14.59
23.59
31.52
36.73
38.36
36.48
31.99
26.07
19.88
14.26
9.66
6.31
4.30
3.60
4.04
5.27
6.75
7.89
8.19
7.42
5.67
3.23
0.54
-2.05
-4.31
-6.22
-7.86
-9.43
-11.07
-12.83
-14.67
-16.49
-18.14
-19.57
-20.73
-21.62
-22.26
-22.67
-22.91
-23.02
-23.08
-23.13
-23.18
-23.22
-23.27
-23.37
-23.64
-24.18
-25.05
-26.19
-27.44
-28.54
-29.20
-29.12
-28.11
-26.08
-23.10
-19.39
-15.28
-11.11
-7.20
-3.75
-0.90
1.29
2.82
3.80
4.38
4.80
5.25
5.91
6.81
7.90
9.07
10.16
11.08
11.80
12.32
12.69
12.99
13.26
13.53
13.77
13.93
14.02
14.11
14.26
14.49
14.67
14.59
14.04
12.92
11.38
9.68
8.12
6.85
5.84
4.92
3.91
2.71
1.35
-0.09
-1.51
-2.85
-4.10
-5.26
-6.37
-7.47
-8.63
-9.92
-11.34
-12.77
-14.03
-14.89
-15.19
-14.85
-13.88
-12.30
-10.20
-7.71
-5.03
-2.44
-0.19
1.54
2.71
3.44
3.88
4.18
4.40
4.57
4.72
4.95
5.34
5.92
6.67
7.50
8.29
8.97
9.50
9.90
10.19
10.40
10.51
10.44
10.12
9.45
8.43
7.14
5.75
4.44
3.31
2.33
1.35
0.22
-1.13
-2.62
-4.06
-5.29
-6.27
-7.14
-8.15
-9.51
-11.25
-13.19
-14.97
-16.23
-16.71
-16.34
-15.21
-13.49
-11.31
-8.83
-6.20
-3.60
-1.28
0.58
1.90
2.76
3.35
3.83
4.27
4.67
4.98
5.20
5.42
5.76
6.30
6.99
7.70
8.28
8.63
8.73
8.61
8.33
7.87
7.22
6.37
5.33
4.18
3.00
1.86
0.78
-0.24
-1.26
-2.30
-3.41
-4.57
-5.82
-7.15
-8.58
-10.12
-11.76
-13.39
-14.86
-15.92
-16.35
-15.98
-14.80
-12.93
-10.56
-7.90
-5.09
-2.31
0.27
2.45
4.01
4.86
5.04
4.79
4.40
4.13
4.12
4.38
4.84
5.40
6.03
6.67
7.26
7.73
7.98
7.93
7.56
6.94
6.13
5.28
4.47
3.74
3.02
2.21
1.19
-0.07
-1.51
-2.98
-4.42
-5.80
-7.25
-8.89
-10.81
-12.91
-14.90
-16.42
-17.16
-17.01
-16.04
-14.51
-12.62
-10.52
-8.23
-5.72
-3.04
-0.35
2.09
4.05
5.42
6.30
6.87
7.36
7.86
8.35
8.74
8.96
9.03
9.02
8.98
8.95
8.91
8.83
8.67
8.42
8.10
7.69
7.17
6.52
5.73
4.83
3.84
2.79
1.68
0.45
-0.90
-2.37
-3.91
-5.46
-6.95
-8.39
-9.79
-11.20
-12.69
-14.22
-15.74
-17.07
-17.98
-18.26
-17.73
-16.32
-14.12
-11.32
-8.16
-4.94
-1.92
0.70
2.78
4.32
5.36
6.07
6.59
7.10
7.67
8.34
9.10
9.92
10.75
11.53
12.18
12.64
12.88
12.91
12.76
12.49
12.13
11.71
11.23
10.67
10.04
9.31
8.44
7.46
6.35
5.15
3.89
2.59
1.23
-0.22
-1.73
-3.31
-4.90
-6.43
-7.83
-9.09
-10.26
-11.45
-12.78
-14.31
-16.02
-17.74
-19.22
-20.17
-20.35
-19.65
-18.09
-15.83
-13.11
-10.17
-7.25
-4.48
-1.89
0.53
2.81
4.96
6.85
8.34
9.20
9.36
8.85
7.96
7.04
6.44
6.38
6.83
7.60
8.42
9.11
9.67
10.18
10.71
11.20
11.49
11.39
10.82
9.94
8.98
8.22
7.78
7.56
7.34
6.89
6.10
5.02
3.79
2.52
1.29
0.10
-1.09
-2.30
-3.53
-4.73
-5.84
-6.83
-7.77
-8.73
-9.84
-11.11
-12.47
-13.76
-14.80
-15.43
-15.58
-15.23
-14.38
-13.05
-11.29
-9.18
-6.91
-4.71
-2.78
-1.24
-0.12
0.67
1.24
1.78
2.44
3.39
4.68
6.25
7.91
9.36
10.37
10.84
10.85
10.60
10.34
10.14
9.99
9.72
9.21
8.43
7.46
6.45
5.54
4.78
4.14
3.57
3.05
2.64
2.38
2.28
2.23
2.07
1.63
0.86
-0.19
-1.36
-2.49
-3.42
-4.14
-4.71
-5.24
-5.87
-6.75
-7.96
-9.52
-11.35
-13.25
-14.98
-16.28
-16.95
-16.83
-15.86
-14.03
-11.43
-8.29
-4.92
-1.69
1.11
3.35
5.07
6.43
7.59
8.58
9.28
9.55
9.36
8.89
8.44
8.38
8.91
10.00
11.39
12.72
13.68
14.11
14.01
13.54
12.90
12.20
11.49
10.75
9.91
8.90
7.73
6.48
5.25
4.14
3.14
2.21
1.24
0.20
-0.92
-2.05
-3.13
-4.19
-5.33
-6.63
-8.10
-9.63
-11.03
-12.15
-13.06
-13.97
-15.17
-16.82
-18.78
-20.69
-22.04
-22.43
-21.67
-19.85
-17.26
-14.25
-11.15
-8.21
-5.59
-3.39
-1.65
-0.41
0.41
0.91
1.20
1.40
1.55
1.66
1.74
1.81
1.93
2.20
2.65
3.32
4.13
5.01
5.84
6.53
6.94
6.97
6.55
5.71
4.53
3.21
1.91
0.70
-0.38
-1.37
-2.27
-3.03
-3.64
-4.11
-4.55
-5.11
-5.96
-7.13
-8.57
-10.09
-11.45
-12.44
-12.91
-12.76
-12.01
-10.71
-9.00
-7.04
-4.97
-2.86
-0.77
1.26
3.19
4.90
6.28
7.23
7.74
7.87
7.81
7.72
7.73
7.89
8.12
8.34
8.43
8.37
8.19
7.94
7.64
7.22
6.57
5.53
4.04
2.14
-0.01
-2.18
-4.19
-5.95
-7.51
-9.02
-10.64
-12.48
-14.52
-16.59
-18.47
-19.97
-20.98
-21.48
-21.54
-21.26
-20.71
-20.01
-19.22
-18.40
-17.57
-16.64
-15.45
-13.76
-11.45
-8.64
-5.71
-3.29
-1.93
-1.89
-2.95
-4.47
-5.64
-5.82
-4.81
-2.81
-0.31
2.24
4.57
6.62
8.41
9.92
11.00
11.44
11.00
9.60
7.29
4.34
1.14
-1.87
-4.36
-6.11
-7.15
-7.63
-7.79
-7.82
-7.84
-7.92
-8.08
-8.31
-8.52
-8.56
-8.15
-7.08
-5.25
-2.78
0.12
3.23
6.42
9.72
13.09
16.44
19.52
22.07
24.01
25.48
26.82
28.31
29.97
31.48
32.34
32.12
30.74
28.48
25.93
23.68
22.13
21.35
21.16
21.19
21.10
20.62
19.59
17.99
15.86
13.32
10.55
7.71
4.95
2.42
0.19
-1.77
-3.62
-5.59
-7.87
-10.52
-13.38
-16.07
-18.10
-19.06
-18.70
-17.03
-14.28
-10.89
-7.33
-4.00
-1.18
1.06
2.77
4.06
5.05
5.78
6.28
6.56
6.63
6.56
6.40
6.22
6.05
5.93
5.86
5.78
5.59
5.19
4.49
3.47
2.21
0.85
-0.47
-1.65
-2.61
-3.32
-3.81
-4.16
-4.51
-5.03
-5.82
-6.86
-8.03
-9.21
-10.31
-11.40
-12.61
-14.03
-15.60
-17.10
-18.17
-18.51
-17.91
-16.39
-14.16
-11.55
-8.85
-6.31
-4.03
-1.99
-0.19
1.43
2.84
4.06
5.12
6.10
7.14
8.33
9.65
10.99
12.19
13.13
13.76
14.15
14.38
14.48
14.39
14.02
13.29
12.22
10.96
9.72
8.68
7.88
7.22
6.52
5.59
4.37
2.93
1.43
0.03
-1.19
-2.29
-3.41
-4.66
-6.06
-7.57
-9.15
-10.79
-12.59
-14.60
-16.75
-18.72
-20.06
-20.31
-19.24
-16.92
-13.70
-10.00
-6.16
-2.38
1.24
4.63
7.64
10.08
11.75
12.63
12.83
12.60
12.21
11.85
11.59
11.42
11.28
11.12
11.00
10.98
11.12
11.40
11.70
11.86
11.72
11.21
10.36
9.32
8.27
7.36
6.66
6.14
5.69
5.20
4.56
3.75
2.76
1.65
0.47
-0.70
-1.81
-2.84
-3.80
-4.74
-5.78
-6.98
-8.39
-9.97
-11.53
-12.82
-13.55
-13.44
-12.39
-10.47
-7.95
-5.13
-2.33
0.27
2.58
4.60
6.37
7.89
9.16
10.17
10.91
11.40
11.69
11.81
11.76
11.56
11.18
10.64
9.98
9.33
8.82
8.58
8.66
8.99
9.41
9.66
9.57
9.05
8.12
6.93
5.68
4.53
3.58
2.85
2.25
1.61
0.81
-0.24
-1.50
-2.86
-4.13
-5.19
-6.04
-6.77
-7.54
-8.49
-9.71
-11.19
-12.83
-14.46
-15.84
-16.69
-16.76
-15.94
-14.25
-11.94
-9.33
-6.69
-4.25
-2.08
-0.23
1.27
2.38
3.08
3.45
3.62
3.80
4.17
4.83
5.76
6.86
7.96
8.92
9.62
10.00
10.07
9.85
9.42
8.84
8.22
7.63
7.14
6.75
6.42
6.01
5.41
4.52
3.35
2.04
0.77
-0.25
-0.94
-1.32
-1.53
-1.79
-2.28
-3.14
-4.40
-6.01
-7.83
-9.68
-11.35
-12.69
-13.67
-14.37
-15.01
-15.82
-16.91
-18.21
-19.39
-20.04
-19.84
-18.63
-16.54
-13.86
-10.92
-8.00
-5.26
-2.77
-0.58
1.23
2.63
3.63
4.32
4.87
5.44
6.13
6.92
7.73
8.42
8.92
9.22
9.45
9.75
10.23
10.86
11.53
12.03
12.22
12.09
11.72
11.25
10.75
10.21
9.56
8.74
7.77
6.79
5.99
5.49
5.29
5.24
5.11
4.70
3.92
2.86
1.69
0.62
-0.23
-0.91
-1.56
-2.33
-3.31
-4.42
-5.52
-6.51
-7.40
-8.30
-9.35
-10.57
-11.93
-13.30
-14.61
-15.87
-17.15
-18.47
-19.74
-20.66
-20.87
-20.07
-18.19
-15.44
-12.26
-9.13
-6.34
-4.02
-2.06
-0.34
1.21
2.58
3.68
4.47
5.03
5.52
6.08
6.74
7.43
8.01
8.36
8.48
8.46
8.41
8.47
8.70
9.07
9.49
9.84
10.02
9.99
9.79
9.45
9.03
8.53
7.91
7.17
6.38
5.66
5.12
4.79
4.60
4.44
4.19
3.80
3.27
2.60
1.80
0.83
-0.33
-1.67
-3.11
-4.55
-5.91
-7.12
-8.19
-9.12
-9.92
-10.66
-11.39
-12.23
-13.27
-14.54
-16.04
-17.66
-19.22
-20.53
-21.35
-21.50
-20.88
-19.48
-17.42
-14.91
-12.17
-9.39
-6.71
-4.20
-1.88
0.22
2.04
3.58
4.80
5.75
6.47
7.01
7.42
7.73
7.97
8.18
8.40
8.70
9.10
9.57
10.05
10.46
10.71
10.78
10.71
10.54
10.32
10.06
9.76
9.38
8.93
8.39
7.82
7.22
6.62
6.04
5.50
5.02
4.59
4.19
3.72
3.12
2.34
1.41
0.40
-0.54
-1.32
-1.93
-2.49
-3.15
-4.07
-5.31
-6.79
-8.35
-9.78
-10.94
-11.81
-12.49
-13.18
-14.09
-15.35
-16.94
-18.65
-20.17
-21.12
-21.21
-20.33
-18.56
-16.18
-13.50
-10.82
-8.32
-6.07
-4.10
-2.42
-1.04
0.04
0.87
1.56
2.24
3.00
3.88
4.82
5.70
6.44
7.02
7.45
7.80
8.14
8.49
8.83
9.12
9.32
9.37
9.24
8.93
8.46
7.86
7.18
6.49
5.85
5.33
4.97
4.82
4.83
4.92
4.93
4.68
4.10
3.19
2.13
1.07
0.17
-0.55
-1.21
-1.89
-2.65
-3.47
-4.26
-4.98
-5.68
-6.46
-7.42
-8.55
-9.76
-10.92
-11.94
-12.91
-14.02
-15.46
-17.29
-19.29
-21.05
-22.06
-21.97
-20.67
-18.36
-15.40
-12.17
-8.92
-5.77
-2.77
0.01
2.40
4.21
5.32
5.81
5.89
5.85
5.93
6.29
6.90
7.70
8.60
9.51
10.36
11.11
11.70
12.12
12.38
12.54
12.66
12.79
12.93
13.04
13.04
12.83
12.43
11.87
11.26
10.70
10.23
9.80
9.36
8.86
8.27
7.65
7.03
6.41
5.72
4.91
3.95
2.87
1.76
0.67
-0.38
-1.44
-2.52
-3.66
-4.81
-5.93
-6.99
-8.02
-9.03
-10.06
-11.10
-12.14
-13.23
-14.46
-15.91
-17.62
-19.45
-21.13
-22.27
-22.52
-21.70
-19.83
-17.16
-14.07
-10.94
-8.05
-5.55
-3.44
-1.63
-0.06
1.25
2.24
2.82
2.98
2.87
2.74
2.82
3.20
3.78
4.32
4.60
4.56
4.31
4.09
4.07
4.32
4.76
5.19
5.49
5.62
5.66
5.76
6.02
6.42
6.89
7.31
7.56
7.62
7.46
7.11
6.57
5.86
5.02
4.12
3.26
2.51
1.92
1.46
1.03
0.47
-0.31
-1.40
-2.80
-4.43
-6.14
-7.76
-9.16
-10.32
-11.33
-12.38
-13.62
-15.09
-16.69
-18.18
-19.28
-19.81
-19.65
-18.78
-17.19
-14.89
-11.92
-8.45
-4.77
-1.24
1.80
4.17
5.89
7.21
8.38
9.62
10.94
12.19
13.16
13.68
13.78
13.67
13.67
14.04
14.82
15.81
16.67
17.08
16.92
16.26
15.40
14.59
14.02
13.64
13.34
12.94
12.40
11.72
11.00
10.24
9.42
8.47
7.32
6.04
4.79
3.77
3.08
2.73
2.53
2.24
1.68
0.81
-0.25
-1.30
-2.19
-2.91
-3.56
-4.31
-5.28
-6.45
-7.73
-8.97
-10.11
-11.20
-12.40
-13.83
-15.51
-17.28
-18.82
-19.76
-19.85
-19.01
-17.38
-15.18
-12.66
-10.05
-7.45
-4.93
-2.56
-0.41
1.42
2.86
3.89
4.54
4.88
5.03
5.10
5.17
5.27
5.41
5.60
5.87
6.31
6.99
7.96
9.12
10.31
11.28
11.86
11.99
11.73
11.26
10.71
10.19
9.73
9.34
9.02
8.75
8.51
8.23
7.82
7.24
6.51
5.69
4.89
4.21
3.70
3.35
3.05
2.68
2.09
1.17
-0.12
-1.69
-3.44
-5.21
-6.89
-8.42
-9.77
-11.00
-12.16
-13.32
-14.52
-15.73
-16.88
-17.78
-18.17
-17.81
-16.52
-14.30
-11.33
-7.96
-4.57
-1.51
1.01
2.95
4.38
5.44
6.24
6.84
7.27
7.56
7.78
8.04
8.41
8.89
9.43
9.94
10.33
10.56
10.67
10.67
10.59
10.42
10.17
9.81
9.33
8.75
8.09
7.40
6.73
6.13
5.63
5.20
4.75
4.16
3.36
2.39
1.37
0.50
-0.13
-0.55
-0.92
-1.43
-2.26
-3.41
-4.77
-6.15
-7.38
-8.41
-9.31
-10.18
-11.17
-12.34
-13.63
-14.88
-15.88
-16.42
-16.30
-15.45
-13.87
-11.65
-8.95
-5.97
-2.92
-0.02
2.51
4.50
5.88
6.67
7.03
7.17
7.29
7.55
8.01
8.65
9.41
10.22
11.03
11.78
12.45
13.02
13.49
13.81
13.94
13.82
13.41
12.73
11.86
10.89
9.92
9.01
8.19
7.40
6.65
5.92
5.25
4.64
4.08
3.52
2.93
2.28
1.62
0.95
0.26
-0.53
-1.50
-2.68
-3.98
-5.25
-6.34
-7.23
-8.03
-8.95
-10.15
-11.68
-13.46
-15.30
-16.99
-18.34
-19.16
-19.33
-18.73
-17.31
-15.14
-12.40
-9.38
-6.36
-3.59
-1.23
0.69
2.21
3.42
4.41
5.21
5.80
6.13
6.18
6.03
5.84
5.82
6.18
6.97
8.12
9.40
10.55
11.34
11.67
11.59
11.19
10.63
9.96
9.24
8.48
7.77
7.20
6.87
6.77
6.79
6.72
6.36
5.64
4.64
3.53
2.52
1.69
0.98
0.28
-0.52
-1.40
-2.32
-3.19
-4.01
-4.82
-5.72
-6.76
-7.94
-9.23
-10.64
-12.16
-13.77
-15.36
-16.73
-17.62
-17.82
-17.26
-16.00
-14.22
-12.12
-9.91
-7.70
-5.60
-3.66
-1.92
-0.38
0.92
1.97
2.74
3.22
3.48
3.67
3.92
4.37
5.07
5.94
6.90
7.86
8.77
9.62
10.39
11.01
11.44
11.61
11.54
11.26
10.85
10.39
9.93
9.48
9.01
8.45
7.77
6.93
5.97
4.94
3.96
3.07
2.28
1.54
0.71
-0.28
-1.50
-2.92
-4.43
-5.92
-7.30
-8.59
-9.90
-11.36
-13.04
-14.88
-16.66
-18.14
-19.09
-19.39
-19.03
-18.06
-16.54
-14.51
-12.04
-9.29
-6.52
-4.06
-2.17
-0.93
-0.28
0.06
0.37
0.89
1.69
2.71
3.81
4.85
5.75
6.50
7.11
7.59
7.93
8.11
8.18
8.17
8.14
8.14
8.14
8.09
7.89
7.48
6.81
5.94
4.97
4.05
3.28
2.70
2.23
1.72
1.04
0.15
-0.88
-1.92
-2.86
-3.68
-4.48
-5.39
-6.44
-7.60
-8.68
-9.58
-10.28
-10.90
-11.64
-12.64
-13.89
-15.17
-16.16
-16.50
-16.00
-14.66
-12.60
-10.05
-7.24
-4.36
-1.54
1.03
3.26
5.08
6.54
7.79
9.02
10.38
11.87
13.35
14.61
15.49
15.97
16.22
16.52
17.09
18.07
19.38
20.76
21.85
22.36
22.20
21.55
20.92
20.94
22.22
25.12
29.58
35.09
40.76
45.46
48.12
48.07
45.20
40.06
33.59
26.81
20.40
14.66
9.48
4.71
0.27
-3.68
-7.00
-9.75
-12.24
-14.99
-18.50
-22.99
-28.40
-34.43
-40.67
-46.78
-52.45
-57.36
-61.22
-63.73
-64.77
-64.40
-62.98
-60.92
-58.60
-56.18
-53.62
-50.83
-47.75
-44.51
-41.30
-38.32
-35.65
-33.27
-31.19
-29.44
-28.17
-27.52
-27.55
-28.16
-29.26
-30.78
-32.77
-35.34
-38.49
-41.98
-45.34
-47.98
-49.28
-48.72
-45.95
-40.77
-33.24
-23.72
-12.89
-1.62
9.14
18.74
26.88
33.64
39.26
43.93
47.69
50.44
52.09
52.68
52.34
51.32
49.78
47.84
45.57
43.10
40.65
38.50
36.90
35.87
35.20
34.51
33.35
31.45
28.80
25.63
22.39
19.59
17.69
16.94
17.37
18.73
20.63
22.61
24.30
25.52
26.25
26.55
26.48
26.06
25.28
24.14
22.70
21.10
19.53
18.15
17.07
16.30
15.76
15.27
14.61
13.61
12.20
10.50
8.68
6.95
5.49
4.35
3.54
3.07
2.94
3.12
3.48
3.84
3.98
3.78
3.19
2.32
1.29
0.23
-0.82
-1.88
-2.99
-4.24
-5.69
-7.33
-9.13
-10.97
-12.74
-14.33
-15.71
-16.91
-18.04
-19.21
-20.51
-21.90
-23.26
-24.37
-25.04
-25.09
-24.47
-23.23
-21.51
-19.43
-17.12
-14.65
-12.04
-9.40
-6.82
-4.47
-2.46
-0.77
0.64
1.91
3.12
4.30
5.43
6.51
7.60
8.80
10.19
11.76
13.37
14.83
15.96
16.72
17.18
17.50
17.80
18.17
18.60
19.06
19.53
19.96
20.28
20.42
20.24
19.66
18.64
17.18
15.33
13.14
10.71
8.12
5.49
2.93
0.50
-1.75
-3.82
-5.66
-7.22
-8.39
-9.09
-9.22
-8.80
-7.87
-6.56
-4.97
-3.29
-1.70
-0.38
0.52
0.95
0.90
0.48
-0.17
-0.86
-1.39
-1.63
-1.54
-1.18
-0.69
-0.22
0.13
0.40
0.63
0.89
1.16
1.32
1.23
0.82
0.13
-0.68
-1.50
-2.26
-3.02
-3.90
-4.96
-6.17
-7.43
-8.63
-9.76
-10.86
-12.05
-13.35
-14.69
-15.93
-16.95
-17.74
-18.36
-18.97
-19.62
-20.26
-20.68
-20.68
-20.06
-18.69
-16.62
-13.97
-10.97
-7.87
-4.89
-2.25
-0.04
1.73
3.15
4.30
5.31
6.20
6.98
7.62
8.18
8.69
9.25
9.93
10.71
11.61
12.62
13.78
15.13
16.66
18.21
19.57
20.52
20.96
20.95
20.67
20.36
20.17
20.10
19.95
19.42
18.22
16.17
13.31
9.91
6.36
3.07
0.28
-2.00
-4.01
-6.00
-8.21
-10.65
-13.14
-15.43
-17.23
-18.32
-18.59
-17.97
-16.51
-14.33
-11.67
-8.86
-6.29
-4.27
-2.94
-2.28
-2.09
-2.12
-2.14
-2.05
-1.81
-1.42
-0.88
-0.19
0.68
1.67
2.70
3.60
4.26
4.63
4.78
4.83
4.82
4.76
4.53
4.01
3.16
2.07
0.91
-0.10
-0.85
-1.34
-1.71
-2.12
-2.69
-3.48
-4.46
-5.56
-6.72
-7.90
-9.10
-10.33
-11.61
-12.92
-14.14
-15.13
-15.72
-15.87
-15.55
-14.88
-13.97
-12.88
-11.69
-10.45
-9.27
-8.32
-7.73
-7.59
-7.84
-8.39
-9.10
-9.83
-10.50
-10.97
-11.09
-10.69
-9.65
-8.02
-5.97
-3.75
-1.53
0.61
2.74
4.90
7.07
9.10
10.80
12.02
12.81
13.33
13.82
14.47
15.30
16.18
16.86
17.10
16.67
15.45
13.47
10.87
7.90
4.92
2.25
0.13
-1.33
-2.13
-2.34
-2.07
-1.42
-0.52
0.44
1.29
1.87
2.11
2.07
1.86
1.65
1.49
1.35
1.11
0.66
-0.05
-0.93
-1.79
-2.41
-2.66
-2.54
-2.17
-1.79
-1.61
-1.69
-1.98
-2.34
-2.59
-2.68
-2.64
-2.63
-2.76
-3.11
-3.66
-4.30
-4.93
-5.49
-6.02
-6.57
-7.23
-8.09
-9.16
-10.39
-11.63
-12.68
-13.31
-13.39
-12.83
-11.63
-9.88
-7.70
-5.23
-2.68
-0.25
1.82
3.38
4.39
4.92
5.13
5.20
5.26
5.38
5.53
5.73
5.93
6.12
6.24
6.24
6.04
5.62
5.02
4.34
3.68
3.15
2.77
2.51
2.27
1.92
1.31
0.37
-0.95
-2.57
-4.36
-6.13
-7.77
-9.25
-10.64
-12.08
-13.60
-15.09
-16.30
-16.88
-16.58
-15.31
-13.23
-10.63
-7.88
-5.25
-2.90
-0.91
0.73
1.99
2.93
3.59
4.11
4.60
5.10
5.55
5.82
5.76
5.32
4.64
3.92
3.38
3.14
3.20
3.44
3.70
3.86
3.81
3.48
2.83
1.85
0.58
-0.91
-2.48
-3.99
-5.36
-6.57
-7.67
-8.78
-10.03
-11.50
-13.16
-14.83
-16.25
-17.12
-17.20
-16.38
-14.74
-12.45
-9.79
-7.02
-4.32
-1.81
0.44
2.42
4.15
5.63
6.87
7.85
8.59
9.14
9.58
9.95
10.33
10.77
11.28
11.90
12.61
13.38
14.10
14.65
14.87
14.63
13.88
12.65
11.05
9.23
7.34
5.47
3.66
1.93
0.27
-1.32
-2.81
-4.21
-5.49
-6.66
-7.76
-8.85
-10.00
-11.24
-12.54
-13.77
-14.74
-15.21
-14.97
-13.88
-11.94
-9.26
-6.10
-2.78
0.36
3.00
4.94
6.10
6.57
6.56
6.29
5.97
5.71
5.53
5.42
5.36
5.36
5.43
5.62
5.89
6.21
6.50
6.70
6.81
6.89
7.05
7.33
7.72
8.10
8.28
8.10
7.48
6.48
5.29
4.11
3.04
2.07
1.11
0.00
-1.28
-2.68
-4.03
-5.22
-6.28
-7.35
-8.69
-10.42
-12.49
-14.56
-16.17
-16.90
-16.56
-15.20
-13.09
-10.55
-7.83
-5.09
-2.37
0.24
2.61
4.55
5.89
6.57
6.67
6.43
6.14
6.04
6.24
6.73
7.34
7.86
8.15
8.14
7.91
7.56
7.22
6.95
6.72
6.43
5.98
5.29
4.33
3.12
1.68
0.10
-1.49
-2.94
-4.07
-4.83
-5.29
-5.71
-6.39
-7.64
-9.52
-11.91
-14.45
-16.66
-18.11
-18.44
-17.60
-15.78
-13.41
-11.02
-9.01
-7.54
-6.47
-5.46
-4.10
-2.16
0.35
3.22
6.10
8.66
10.67
12.01
12.66
12.74
12.43
11.98
11.58
11.33
11.21
11.07
10.75
10.16
9.26
8.08
6.74
5.30
3.85
2.44
1.12
-0.03
-0.91
-1.45
-1.60
-1.36
-0.71
0.32
1.72
3.39
5.20
6.95
8.48
9.65
10.44
10.78
10.64
9.93
8.58
6.63
4.24
1.69
-0.72
-2.78
-4.45
-5.85
-7.15
-8.51
-9.94
-11.38
-12.70
-13.78
-14.52
-14.86
-14.72
-14.04
-12.76
-10.93
-8.76
-6.54
-4.61
-3.24
-2.49
-2.26
-2.30
-2.36
-2.28
-2.01
-1.61
-1.14
-0.59
0.09
0.94
1.95
3.01
3.95
4.66
5.07
5.21
5.20
5.15
5.14
5.13
5.04
4.74
4.16
3.31
2.32
1.32
0.45
-0.28
-0.90
-1.48
-2.06
-2.63
-3.13
-3.53
-3.89
-4.33
-4.96
-5.80
-6.72
-7.54
-8.12
-8.45
-8.69
-9.05
-9.67
-10.58
-11.58
-12.42
-12.78
-12.44
-11.29
-9.40
-6.93
-4.17
-1.39
1.22
3.61
5.80
7.86
9.77
11.36
12.40
12.63
12.00
10.65
8.89
7.12
5.67
4.79
4.59
5.08
6.12
7.45
8.69
9.49
9.57
8.89
7.57
5.83
3.91
1.92
-0.14
-2.30
-4.57
-6.91
-9.14
-11.10
-12.66
-13.77
-14.50
-14.97
-15.34
-15.68
-16.03
-16.39
-16.75
-17.15
-17.65
-18.29
-19.06
-19.84
-20.50
-20.92
-21.12
-21.25
-21.50
-21.98
-22.63
-23.17
-23.22
-22.41
-20.55
-17.70
-14.12
-10.16
-6.15
-2.30
1.32
4.66
7.68
10.25
12.22
13.52
14.16
14.32
14.22
14.07
13.99
14.01
14.15
14.42
14.81
15.31
15.88
16.44
16.90
17.23
17.39
17.38
17.13
16.58
15.63
14.26
12.54
10.59
8.59
6.72
5.13
3.93
3.14
2.69
2.39
2.06
1.56
0.84
-0.06
-1.05
-2.10
-3.21
-4.41
-5.63
-6.80
-7.78
-8.53
-9.13
-9.78
-10.63
-11.80
-13.25
-14.77
-16.11
-16.96
-17.05
-16.21
-14.42
-11.84
-8.81
-5.73
-2.96
-0.70
1.03
2.35
3.42
4.33
5.12
5.76
6.25
6.62
6.90
7.12
7.24
7.16
6.84
6.34
5.80
5.46
5.46
5.85
6.54
7.34
8.03
8.44
8.44
7.93
6.92
5.50
3.85
2.18
0.69
-0.58
-1.68
-2.75
-3.91
-5.21
-6.58
-7.85
-8.86
-9.53
-9.87
-10.01
-10.22
-10.79
-11.99
-13.96
-16.64
-19.76
-22.87
-25.43
-26.99
-27.26
-26.17
-23.85
-20.57
-16.69
-12.60
-8.69
-5.30
-2.67
-0.88
0.23
0.91
1.52
2.26
3.21
4.25
5.16
5.81
6.17
6.35
6.49
6.70
6.97
7.22
7.40
7.51
7.60
7.76
7.97
8.11
7.98
7.42
6.44
5.20
4.01
3.14
2.67
2.50
2.35
1.93
1.06
-0.31
-2.08
-4.07
-6.06
-7.85
-9.20
-9.93
-9.88
-9.00
-7.35
-5.14
-2.62
-0.05
2.39
4.56
6.44
8.05
9.41
10.52
11.36
11.85
11.97
11.77
11.38
11.00
10.84
11.01
11.53
12.26
12.95
13.36
13.32
12.80
11.89
10.79
9.66
8.55
7.40
6.12
4.65
3.06
1.47
0.04
-1.17
-2.22
-3.27
-4.47
-5.89
-7.49
-9.15
-10.72
-12.02
-12.84
-13.02
-12.40
-10.92
-8.62
-5.67
-2.33
1.11
4.37
7.23
9.58
11.36
12.63
13.45
13.92
14.12
14.09
13.94
13.79
13.76
13.94
14.34
14.90
15.49
15.93
16.13
16.02
15.61
14.97
14.16
13.27
12.36
11.41
10.37
9.16
7.70
5.95
4.00
1.95
-0.10
-2.11
-4.10
-6.10
-8.17
-10.35
-12.67
-15.10
-17.50
-19.65
-21.25
-21.95
-21.57
-20.05
-17.57
-14.42
-10.90
-7.31
-3.85
-0.66
2.16
4.51
6.36
7.71
8.63
9.25
9.68
10.04
10.40
10.81
11.31
11.87
12.45
12.97
13.34
13.45
13.27
12.83
12.19
11.44
10.63
9.77
8.82
7.81
6.73
5.61
4.47
3.25
1.86
0.24
-1.57
-3.45
-5.19
-6.61
-7.69
-8.50
-9.30
-10.33
-11.72
-13.42
-15.18
-16.58
-17.18
-16.64
-14.85
-11.95
-8.26
-4.18
-0.07
3.83
7.37
10.42
12.89
14.66
15.67
16.01
15.88
15.55
15.25
15.14
15.24
15.50
15.90
16.38
16.93
17.47
17.92
18.15
18.08
17.66
16.94
15.99
14.90
13.69
12.39
10.98
9.51
8.01
6.51
5.02
3.48
1.85
0.13
-1.61
-3.21
-4.56
-5.62
-6.51
-7.44
-8.63
-10.26
-12.35
-14.79
-17.38
-19.85
-21.87
-23.07
-23.15
-21.91
-19.34
-15.70
-11.41
-6.95
-2.69
1.14
4.47
7.31
9.65
11.41
12.55
13.11
13.22
13.12
13.07
13.19
13.49
13.86
14.22
14.52
14.80
15.11
15.45
15.76
15.87
15.68
15.14
14.36
13.48
12.68
12.04
11.60
11.30
11.04
10.72
10.30
9.76
9.07
8.24
7.24
6.04
4.64
3.05
1.33
-0.52
-2.51
-4.71
-7.17
-9.82
-12.41
-14.51
-15.67
-15.61
-14.44
-12.73
-11.33
-11.09
-12.48
-15.40
-19.18
-22.79
-25.23
-25.87
-24.63
-22.00
-18.75
-15.65
-13.21
-11.49
-10.20
-8.85
-6.96
-4.31
-1.09
2.13
4.61
5.67
4.95
2.62
-0.60
-3.57
-4.82
-2.99
2.92
13.03
26.39
41.09
54.66
64.88
70.48
71.42
68.72
63.87
58.17
52.32
46.41
40.21
33.46
26.12
18.41
10.64
3.22
-3.56
-9.42
-14.14
-17.62
-19.77
-20.60
-20.22
-18.85
-16.81
-14.52
-12.39
-10.70
-9.53
-8.75
-8.06
-7.18
-5.96
-4.47
-3.01
-1.94
-1.51
-1.72
-2.34
-2.97
-3.24
-2.95
-2.13
-1.02
0.09
0.93
1.37
1.41
1.15
0.75
0.30
-0.14
-0.58
-1.09
-1.70
-2.37
-3.03
-3.58
-3.96
-4.14
-4.20
-4.23
-4.31
-4.48
-4.73
-5.04
-5.42
-5.92
-6.61
-7.55
-8.76
-10.21
-11.82
-13.43
-14.89
-16.05
-16.94
-17.75
-18.74
-20.16
-22.05
-24.14
-25.91
-26.78
-26.34
-24.49
-21.48
-17.74
-13.76
-9.92
-6.47
-3.56
-1.26
0.41
1.52
2.21
2.71
3.25
3.96
4.85
5.79
6.61
7.21
7.63
7.99
8.47
9.16
10.01
10.86
11.50
11.80
11.76
11.48
11.09
10.74
10.49
10.32
10.18
9.99
9.72
9.35
8.92
8.43
7.83
7.08
6.14
5.03
3.86
2.77
1.85
1.08
0.35
-0.48
-1.50
-2.69
-3.97
-5.28
-6.62
-8.04
-9.58
-11.22
-12.85
-14.36
-15.69
-16.81
-17.70
-18.23
-18.23
-17.50
-15.92
-13.53
-10.53
-7.23
-3.93
-0.88
1.73
3.81
5.29
6.18
6.57
6.63
6.52
6.40
6.36
6.43
6.65
7.03
7.59
8.30
9.14
10.01
10.78
11.34
11.64
11.64
11.43
11.10
10.73
10.41
10.10
9.77
9.32
8.69
7.86
6.85
5.70
4.45
3.10
1.66
0.17
-1.30
-2.69
-3.94
-5.10
-6.28
-7.59
-9.05
-10.55
-11.91
-12.95
-13.62
-14.07
-14.53
-15.29
-16.52
-18.23
-20.28
-22.42
-24.33
-25.72
-26.31
-25.92
-24.48
-22.08
-18.99
-15.60
-12.26
-9.26
-6.66
-4.44
-2.45
-0.60
1.11
2.61
3.81
4.66
5.20
5.52
5.73
5.96
6.30
6.80
7.50
8.37
9.34
10.29
11.11
11.71
12.02
12.02
11.69
11.07
10.26
9.41
8.70
8.23
7.94
7.65
7.11
6.16
4.82
3.33
1.98
1.00
0.44
0.11
-0.26
-0.92
-2.03
-3.52
-5.25
-6.97
-8.48
-9.68
-10.58
-11.34
-12.16
-13.21
-14.54
-16.03
-17.45
-18.57
-19.24
-19.35
-18.89
-17.81
-16.07
-13.65
-10.67
-7.33
-3.96
-0.88
1.66
3.59
4.93
5.81
6.38
6.77
7.08
7.36
7.62
7.88
8.18
8.61
9.23
10.06
11.02
11.92
12.60
12.91
12.83
12.43
11.84
11.19
10.56
9.95
9.30
8.58
7.78
6.96
6.20
5.53
4.95
4.38
3.74
2.97
2.03
0.92
-0.34
-1.73
-3.17
-4.55
-5.74
-6.63
-7.30
-7.95
-8.85
-10.26
-12.23
-14.58
-16.91
-18.79
-19.82
-19.83
-18.81
-16.92
-14.38
-11.42
-8.24
-5.06
-2.03
0.69
3.02
4.97
6.54
7.71
8.49
8.88
8.94
8.81
8.65
8.64
8.86
9.35
10.02
10.78
11.52
12.21
12.77
13.15
13.27
13.06
12.53
11.76
10.84
9.92
9.08
8.30
7.54
6.71
5.74
4.62
3.36
2.04
0.72
-0.52
-1.61
-2.51
-3.23
-3.87
-4.58
-5.50
-6.73
-8.26
-9.97
-11.71
-13.34
-14.75
-15.85
-16.56
-16.75
-16.29
-15.03
-12.96
-10.20
-7.02
-3.79
-0.80
1.74
3.80
5.43
6.72
7.69
8.30
8.52
8.33
7.87
7.28
6.76
6.41
6.24
6.19
6.16
6.08
5.97
5.85
5.76
5.66
5.48
5.17
4.67
4.03
3.30
2.55
1.79
0.99
0.12
-0.84
-1.85
-2.89
-3.90
-4.87
-5.83
-6.80
-7.85
-9.02
-10.34
-11.82
-13.39
-14.94
-16.26
-17.18
-17.52
-17.21
-16.25
-14.69
-12.58
-10.00
-7.09
-4.02
-1.07
1.49
3.45
4.72
5.37
5.60
5.66
5.70
5.80
5.98
6.22
6.56
7.02
7.62
8.28
8.92
9.39
9.61
9.55
9.22
8.68
7.99
7.25
6.51
5.85
5.30
4.80
4.29
3.63
2.77
1.71
0.55
-0.58
-1.57
-2.37
-3.01
-3.60
-4.28
-5.16
-6.35
-7.93
-9.86
-12.08
-14.37
-16.41
-17.80
-18.21
-17.43
-15.50
-12.71
-9.53
-6.40
-3.65
-1.40
0.44
1.99
3.34
4.48
5.33
5.84
6.03
6.02
5.95
5.97
6.13
6.41
6.78
7.23
7.81
8.53
9.36
10.18
10.82
11.12
10.97
10.43
9.65
8.84
8.18
7.72
7.41
7.10
6.68
6.08
5.35
4.53
3.66
2.70
1.62
0.41
-0.89
-2.21
-3.46
-4.64
-5.86
-7.20
-8.70
-10.33
-12.00
-13.60
-15.10
-16.44
-17.53
-18.22
-18.27
-17.50
-15.83
-13.33
-10.20
-6.75
-3.32
-0.18
2.42
4.36
5.63
6.30
6.54
6.52
6.42
6.40
6.61
7.13
7.95
8.98
10.03
10.90
11.46
11.70
11.73
11.67
11.62
11.57
11.45
11.19
10.76
10.21
9.63
9.07
8.52
7.95
7.29
6.58
5.86
5.20
4.64
4.12
3.58
2.91
2.06
0.98
-0.31
-1.79
-3.42
-5.11
-6.79
-8.38
-9.85
-11.19
-12.44
-13.67
-14.95
-16.35
-17.91
-19.51
-20.96
-21.94
-22.10
-21.21
-19.25
-16.42
-13.08
-9.65
-6.45
-3.62
-1.21
0.85
2.57
4.01
5.13
5.97
6.54
6.96
7.30
7.69
8.17
8.72
9.27
9.71
10.00
10.13
10.19
10.31
10.56
10.95
11.41
11.77
11.92
11.78
11.35
10.66
9.79
8.78
7.71
6.66
5.79
5.20
4.98
5.03
5.14
5.04
4.51
3.51
2.19
0.83
-0.35
-1.27
-2.01
-2.80
-3.79
-5.05
-6.50
-7.98
-9.41
-10.78
-12.22
-13.89
-15.83
-17.91
-19.82
-21.14
-21.51
-20.75
-18.95
-16.40
-13.44
-10.38
-7.38
-4.57
-2.02
0.13
1.77
2.86
3.54
4.02
4.53
5.18
5.93
6.64
7.18
7.52
7.75
8.00
8.38
8.90
9.48
10.01
10.39
10.58
10.60
10.50
10.33
10.11
9.87
9.57
9.18
8.67
8.02
7.22
6.37
5.48
4.64
3.84
3.07
2.30
1.48
0.59
-0.39
-1.51
-2.78
-4.19
-5.69
-7.13
-8.36
-9.28
-9.89
-10.35
-10.88
-11.69
-12.87
-14.38
-16.00
-17.41
-18.32
-18.46
-17.68
-16.03
-13.68
-10.92
-8.04
-5.28
-2.77
-0.56
1.34
2.89
4.06
4.84
5.27
5.50
5.70
5.98
6.36
6.75
7.03
7.12
7.06
6.95
6.96
7.14
7.47
7.86
8.18
8.37
8.36
8.14
7.73
7.14
6.45
5.77
5.19
4.78
4.50
4.22
3.78
3.07
2.11
1.02
-0.05
-0.99
-1.79
-2.51
-3.25
-4.08
-4.98
-5.93
-6.89
-7.86
-8.87
-9.96
-11.22
-12.66
-14.30
-16.02
-17.62
-18.80
-19.28
-18.85
-17.53
-15.49
-13.02
-10.40
-7.81
-5.35
-3.03
-0.87
1.10
2.81
4.20
5.29
6.13
6.77
7.28
7.69
8.02
8.27
8.44
8.52
8.56
8.60
8.72
8.95
9.26
9.54
9.69
9.59
9.23
8.65
7.93
7.11
6.28
5.46
4.75
4.18
3.78
3.46
3.13
2.69
2.16
1.61
1.17
0.91
0.75
0.55
0.09
-0.73
-1.84
-3.08
-4.25
-5.23
-6.05
-6.89
-7.92
-9.23
-10.81
-12.57
-14.34
-15.99
-17.34
-18.25
-18.56
-18.12
-16.89
-14.93
-12.41
-9.63
-6.86
-4.33
-2.13
-0.26
1.37
2.85
4.21
5.39
6.26
6.74
6.90
6.88
6.94
7.23
7.81
8.57
9.38
10.09
10.63
11.00
11.19
11.21
11.06
10.74
10.28
9.74
9.19
8.64
8.10
7.51
6.88
6.19
5.47
4.79
4.23
3.85
3.66
3.55
3.36
2.96
2.27
1.35
0.31
-0.74
-1.73
-2.66
-3.55
-4.45
-5.36
-6.34
-7.47
-8.85
-10.54
-12.45
-14.39
-16.03
-17.06
-17.22
-16.41
-14.68
-12.21
-9.31
-6.34
-3.63
-1.39
0.31
1.56
2.50
3.25
3.87
4.34
4.67
4.91
5.16
5.49
5.92
6.34
6.62
6.67
6.52
6.31
6.23
6.40
6.82
7.33
7.75
7.89
7.65
7.06
6.24
5.35
4.52
3.80
3.15
2.44
1.54
0.38
-1.01
-2.49
-3.85
-4.97
-5.80
-6.46
-7.11
-7.90
-8.95
-10.30
-11.90
-13.64
-15.34
-16.74
-17.56
-17.56
-16.62
-14.77
-12.21
-9.26
-6.26
-3.50
-1.17
0.70
2.17
3.33
4.19
4.74
4.95
4.83
4.51
4.22
4.15
4.43
4.99
5.67
6.25
6.60
6.70
6.70
6.71
6.82
6.98
7.06
6.91
6.44
5.67
4.72
3.72
2.80
2.01
1.27
0.47
-0.48
-1.58
-2.77
-3.95
-5.04
-6.02
-6.91
-7.75
-8.56
-9.34
-10.14
-11.07
-12.27
-13.83
-15.71
-17.62
-19.13
-19.80
-19.33
-17.75
-15.33
-12.50
-9.61
-6.87
-4.31
-1.86
0.48
2.60
4.31
5.47
6.10
6.33
6.45
6.69
7.18
7.86
8.61
9.24
9.68
9.95
10.15
10.38
10.62
10.79
10.76
10.50
10.09
9.69
9.43
9.32
9.23
8.92
8.24
7.17
5.85
4.52
3.33
2.33
1.41
0.46
-0.62
-1.79
-2.99
-4.11
-5.15
-6.16
-7.24
-8.51
-10.06
-11.90
-13.91
-15.86
-17.45
-18.40
-18.53
-17.79
-16.28
-14.14
-11.49
-8.47
-5.20
-1.89
1.21
3.79
5.68
6.86
7.50
7.85
8.17
8.60
9.14
9.75
10.33
10.85
11.28
11.64
12.02
12.46
13.01
13.66
14.32
14.89
15.23
15.23
14.83
14.00
12.77
11.15
9.22
7.06
4.82
2.64
0.61
-1.24
-3.00
-4.80
-6.67
-8.58
-10.41
-12.00
-13.27
-14.24
-15.10
-16.03
-17.20
-18.65
-20.36
-22.26
-24.32
-26.49
-28.75
-30.96
-32.85
-34.08
-34.35
-33.46
-31.49
-28.71
-25.53
-22.34
-19.38
-16.78
-14.55
-12.66
-11.11
-9.95
-9.14
-8.58
-8.09
-7.45
-6.51
-5.23
-3.70
-2.04
-0.31
1.49
3.45
5.64
8.03
10.49
12.77
14.64
15.90
16.46
16.35
15.66
14.54
13.18
11.75
10.43
9.32
8.47
7.87
7.47
7.22
7.07
7.00
6.94
6.86
6.70
6.43
6.07
5.69
5.33
5.01
4.68
4.22
3.53
2.50
1.06
-0.80
-3.01
-5.36
-7.53
-9.11
-9.73
-9.20
-7.55
-5.02
-1.98
1.18
4.14
6.69
8.73
10.22
11.14
11.53
11.45
10.97
10.20
9.23
8.23
7.38
6.86
6.79
7.20
7.98
8.98
10.02
10.97
11.74
12.27
12.50
12.35
11.83
10.99
9.99
9.06
8.34
7.87
7.54
7.16
6.59
5.79
4.86
3.99
3.33
2.90
2.58
2.12
1.31
0.04
-1.66
-3.59
-5.47
-7.10
-8.41
-9.46
-10.46
-11.57
-12.91
-14.45
-16.06
-17.57
-18.80
-19.59
-19.78
-19.23
-17.83
-15.57
-12.58
-9.14
-5.60
-2.31
0.49
2.67
4.25
5.35
6.10
6.66
7.13
7.57
8.03
8.49
8.98
9.50
10.04
10.60
11.14
11.64
12.07
12.43
12.70
12.86
12.85
12.60
12.08
11.33
10.48
9.69
9.10
8.72
8.47
8.18
7.70
7.01
6.19
5.40
4.78
4.32
3.91
3.33
2.45
1.26
-0.15
-1.61
-2.98
-4.15
-5.16
-6.13
-7.23
-8.64
-10.43
-12.56
-14.77
-16.73
-18.09
-18.62
-18.20
-16.91
-14.81
-12.06
-8.85
-5.43
-2.12
0.74
2.91
4.31
5.03
5.31
5.39
5.45
5.57
5.75
6.00
6.34
6.82
7.43
8.15
8.88
9.55
10.09
10.47
10.69
10.74
10.59
10.24
9.72
9.10
8.52
8.07
7.82
7.70
7.61
7.41
7.02
6.41
5.65
4.82
4.02
3.34
2.73
2.13
1.47
0.68
-0.18
-1.04
-1.84
-2.60
-3.40
-4.38
-5.63
-7.13
-8.77
-10.41
-11.91
-13.21
-14.24
-14.92
-15.08
-14.59
-13.34
-11.39
-8.92
-6.22
-3.58
-1.23
0.76
2.38
3.74
4.95
6.08
7.20
8.30
9.35
10.32
11.18
11.98
12.83
13.83
15.04
16.42
17.80
18.95
19.65
19.75
19.29
18.47
17.54
16.73
16.17
15.81
15.49
15.00
14.16
12.85
11.10
9.04
6.88
4.87
3.20
1.96
1.11
0.53
0.03
-0.58
-1.45
-2.66
-4.17
-5.83
-7.43
-8.74
-9.60
-9.95
-9.92
-9.72
-9.57
-9.57
-9.71
-9.85
-9.85
-9.70
-9.45
-9.18
-8.84
-8.31
-7.39
-5.98
-4.19
-2.32
-0.75
0.27
0.73
0.84
0.88
1.06
1.38
1.71
1.88
1.85
1.71
1.62
1.72
2.04
2.42
2.69
2.68
2.35
1.77
1.10
0.51
0.08
-0.19
-0.36
-0.53
-0.79
-1.20
-1.78
-2.53
-3.43
-4.46
-5.55
-6.64
-7.61
-8.41
-9.03
-9.53
-10.04
-10.62
-11.24
-11.72
-11.79
-11.27
-10.09
-8.46
-6.68
-5.08
-3.85
-2.95
-2.21
-1.46
-0.63
0.21
0.95
1.51
1.91
2.24
2.57
2.95
3.34
3.69
3.99
4.25
4.47
4.63
4.68
4.60
4.36
4.02
3.64
3.26
2.91
2.55
2.15
1.70
1.22
0.73
0.27
-0.12
-0.47
-0.86
-1.36
-2.05
-2.97
-4.13
-5.47
-6.90
-8.31
-9.58
-10.55
-11.06
-10.93
-10.07
-8.53
-6.42
-3.98
-1.46
0.93
3.03
4.70
5.82
6.34
6.30
5.84
5.18
4.56
4.15
4.01
4.09
4.28
4.49
4.63
4.65
4.48
4.13
3.62
3.03
2.51
2.16
1.97
1.86
1.66
1.24
0.54
-0.44
-1.58
-2.79
-4.02
-5.24
-6.50
-7.79
-9.10
-10.35
-11.44
-12.22
-12.58
-12.42
-11.69
-10.44
-8.74
-6.71
-4.49
-2.21
-0.02
1.95
3.63
5.02
6.15
7.07
7.79
8.31
8.59
8.62
8.40
7.98
7.41
6.81
6.25
5.80
5.48
5.26
5.04
4.72
4.22
3.50
2.62
1.65
0.63
-0.40
-1.40
-2.38
-3.30
-4.21
-5.21
-6.44
-7.97
-9.74
-11.49
-12.82
-13.40
-13.06
-11.90
-10.19
-8.25
-6.32
-4.49
-2.76
-1.10
0.46
1.84
2.98
3.88
4.55
5.06
5.46
5.79
6.12
6.48
6.93
7.45
7.95
8.32
8.43
8.26
7.86
7.32
6.77
6.25
5.71
5.07
4.26
3.22
2.01
0.69
-0.64
-1.93
-3.11
-4.16
-5.07
-5.86
-6.59
-7.34
-8.24
-9.38
-10.72
-12.08
-13.14
-13.58
-13.16
-11.84
-9.79
-7.28
-4.64
-2.11
0.18
2.16
3.82
5.19
6.25
7.02
7.52
7.78
7.89
7.91
7.94
8.03
8.18
8.37
8.55
8.70
8.80
8.82
8.70
8.40
7.93
7.35
6.75
6.19
5.62
4.91
3.96
2.76
1.44
0.16
-0.95
-1.89
-2.76
-3.70
-4.76
-5.93
-7.14
-8.37
-9.66
-11.03
-12.40
-13.52
-14.09
-13.85
-12.67
-10.68
-8.16
-5.47
-2.94
-0.81
0.84
2.02
2.85
3.46
3.99
4.52
5.08
5.69
6.30
6.88
7.36
7.67
7.74
7.56
7.12
6.53
5.90
5.29
4.73
4.20
3.61
2.94
2.28
1.80
1.68
1.96
2.51
3.03
3.22
2.89
2.10
1.10
0.16
-0.59
-1.19
-1.82
-2.68
-3.83
-5.21
-6.65
-8.05
-9.38
-10.66
-11.91
-13.06
-13.93
-14.25
-13.76
-12.31
-9.99
-7.06
-3.97
-1.15
1.11
2.70
3.70
4.29
4.67
4.99
5.37
5.88
6.58
7.48
8.51
9.49
10.25
10.68
10.79
10.70
10.54
10.39
10.18
9.76
9.02
7.98
6.79
5.67
4.83
4.33
4.13
4.10
4.12
4.11
3.99
3.71
3.20
2.46
1.53
0.57
-0.30
-0.99
-1.57
-2.22
-3.17
-4.62
-6.63
-9.09
-11.74
-14.25
-16.28
-17.54
-17.86
-17.16
-15.47
-12.95
-9.82
-6.37
-2.92
0.24
2.90
4.97
6.48
7.52
8.24
8.77
9.18
9.54
9.88
10.23
10.67
11.20
11.75
12.19
12.32
12.04
11.38
10.55
9.75
9.17
8.82
8.60
8.35
7.96
7.38
6.68
5.91
5.12
4.31
3.49
2.67
1.83
0.96
-0.00
-1.05
-2.15
-3.21
-4.13
-4.89
-5.56
-6.26
-7.11
-8.13
-9.33
-10.61
-11.91
-13.14
-14.20
-14.95
-15.21
-14.81
-13.63
-11.71
-9.25
-6.59
-4.10
-2.06
-0.62
0.27
0.77
1.11
1.47
1.89
2.33
2.64
2.74
2.62
2.37
2.14
2.07
2.15
2.29
2.35
2.21
1.90
1.56
1.37
1.49
1.94
2.60
3.30
3.86
4.15
4.17
4.00
3.79
3.59
3.41
3.17
2.75
2.11
1.30
0.45
-0.32
-0.95
-1.51
-2.15
-2.99
-4.05
-5.25
-6.50
-7.72
-8.95
-10.27
-11.68
-13.07
-14.21
-14.85
-14.79
-14.00
-12.59
-10.79
-8.87
-6.97
-5.20
-3.56
-2.04
-0.61
0.74
1.97
3.08
4.07
4.96
5.78
6.55
7.24
7.79
8.16
8.35
8.45
8.57
8.82
9.17
9.51
9.65
9.43
8.76
7.69
6.35
4.93
3.62
2.59
1.95
1.71
1.70
1.68
1.33
0.50
-0.84
-2.51
-4.28
-5.98
-7.56
-9.09
-10.59
-12.01
-13.23
-14.18
-14.88
-15.45
-16.02
-16.61
-17.03
-17.00
-16.28
-14.76
-12.57
-9.93
-7.14
-4.40
-1.83
0.55
2.69
4.55
6.04
7.08
7.67
7.92
8.02
8.18
8.56
9.21
10.06
10.97
11.80
12.42
12.78
12.84
12.61
12.11
11.40
10.56
9.70
8.86
8.06
7.26
6.37
5.33
4.12
2.83
1.58
0.51
-0.29
-0.82
-1.16
-1.42
-1.75
-2.22
-2.88
-3.69
-4.59
-5.53
-6.46
-7.45
-8.57
-9.88
-11.34
-12.71
-13.67
-13.94
-13.40
-12.14
-10.45
-8.60
-6.76
-4.94
-3.11
-1.28
0.43
1.82
2.70
3.04
2.93
2.64
2.44
2.52
2.96
3.72
4.63
5.53
6.27
6.81
7.15
7.34
7.45
7.49
7.48
7.45
7.39
7.34
7.28
7.19
7.03
6.76
6.34
5.76
4.98
4.01
2.86
1.61
0.34
-0.84
-1.89
-2.84
-3.77
-4.78
-5.93
-7.21
-8.57
-9.89
-11.04
-11.90
-12.35
-12.30
-11.69
-10.52
-8.83
-6.72
-4.37
-1.99
0.18
1.97
3.34
4.36
5.16
5.82
6.29
6.50
6.37
5.95
5.45
5.15
5.26
5.75
6.46
7.12
7.55
7.73
7.79
7.86
7.98
8.04
7.80
7.09
5.85
4.20
2.40
0.65
-0.90
-2.28
-3.57
-4.85
-6.15
-7.42
-8.58
-9.62
-10.59
-11.61
-12.75
-14.00
-15.20
-16.08
-16.34
-15.78
-14.32
-12.03
-9.15
-5.96
-2.78
0.06
2.34
3.93
4.83
5.18
5.21
5.17
5.20
5.35
5.57
5.77
5.93
6.02
6.09
6.15
6.19
6.17
6.06
5.90
5.75
5.64
5.55
5.34
4.84
3.94
2.63
1.08
-0.49
-1.90
-3.05
-3.96
-4.70
-5.37
-6.06
-6.84
-7.82
-9.07
-10.58
-12.16
-13.53
-14.29
-14.16
-13.04
-11.05
-8.50
-5.78
-3.17
-0.86
1.09
2.71
4.03
5.09
5.88
6.45
6.87
7.24
7.66
8.16
8.66
9.03
9.15
8.98
8.61
8.20
7.84
7.58
7.33
6.98
6.50
5.93
5.36
4.87
4.43
3.86
2.94
1.49
-0.51
-2.89
-5.34
-7.57
-9.36
-10.67
-11.65
-12.53
-13.61
-15.10
-17.05
-19.32
-21.54
-23.26
-23.97
-23.29
-21.09
-17.56
-13.20
-8.68
-4.75
-1.96
-0.59
-0.52
-1.30
-2.31
-2.94
-2.80
-1.82
-0.21
1.69
3.55
5.20
6.57
7.70
8.67
9.55
10.44
11.45
12.69
14.22
16.02
17.94
19.72
21.06
21.73
21.65
20.89
19.66
18.15
16.52
14.81
12.95
10.91
8.72
6.45
4.23
2.09
-0.04
-2.35
-5.01
-8.07
-11.34
-14.49
-17.06
-18.71
-19.30
-18.96
-17.99
-16.71
-15.39
-14.11
-12.85
-11.54
-10.13
-8.57
-6.86
-4.94
-2.77
-0.44
1.90
3.94
5.39
6.03
5.78
4.73
3.08
1.05
-1.09
-3.03
-4.44
-5.01
-4.56
-3.20
-1.27
0.70
2.25
3.08
3.18
2.78
2.15
1.53
0.99
0.52
0.08
-0.33
-0.63
-0.73
-0.58
-0.23
0.23
0.68
1.03
1.22
1.25
1.12
0.88
0.63
0.49
0.62
1.15
2.12
3.52
5.25
7.23
9.33
11.43
13.41
15.11
16.48
17.54
18.46
19.42
20.52
21.63
22.51
22.81
22.34
21.12
19.44
17.65
16.09
14.91
14.07
13.40
12.74
11.93
10.92
9.69
8.34
6.98
5.79
4.92
4.44
4.32
4.37
4.37
4.16
3.61
2.73
1.56
0.14
-1.48
-3.21
-4.96
-6.59
-8.01
-9.22
-10.34
-11.50
-12.83
-14.31
-15.78
-16.99
-17.68
-17.71
-17.07
-15.91
-14.37
-12.62
-10.76
-8.87
-6.99
-5.20
-3.59
-2.26
-1.26
-0.62
-0.28
-0.15
-0.11
-0.08
0.02
0.19
0.38
0.53
0.52
0.27
-0.25
-1.00
-1.93
-2.92
-3.88
-4.71
-5.40
-5.99
-6.61
-7.45
-8.66
-10.29
-12.22
-14.13
-15.60
-16.24
-15.87
-14.61
-12.92
-11.42
-10.68
-11.00
-12.27
-14.02
-15.57
-16.31
-15.89
-14.31
-11.88
-9.03
-6.23
-3.83
-2.05
-0.97
-0.58
-0.70
-1.03
-1.15
-0.63
0.78
3.03
5.72
8.16
9.67
9.76
8.42
6.03
3.28
0.82
-0.91
-1.81
-1.99
-1.65
-0.91
0.23
1.78
3.68
5.72
7.57
8.89
9.46
9.28
8.44
7.21
5.80
4.39
3.07
1.85
0.70
-0.45
-1.75
-3.29
-5.09
-6.97
-8.58
-9.43
-9.12
-7.54
-4.94
-1.90
0.97
3.16
4.48
5.03
5.01
4.65
4.08
3.43
2.86
2.57
2.82
3.73
5.26
7.13
8.96
10.35
11.10
11.22
10.93
10.54
10.32
10.39
10.73
11.21
11.67
11.99
12.07
11.84
11.22
10.18
8.77
7.13
5.47
3.95
2.63
1.48
0.44
-0.55
-1.49
-2.35
-3.12
-3.82
-4.54
-5.30
-6.10
-6.89
-7.59
-8.15
-8.49
-8.54
-8.19
-7.34
-5.93
-3.99
-1.70
0.71
2.96
4.86
6.34
7.44
8.24
8.80
9.09
9.02
8.57
7.79
6.86
6.01
5.44
5.20
5.17
5.19
5.09
4.84
4.52
4.23
4.08
4.08
4.21
4.38
4.50
4.45
4.18
3.64
2.87
2.03
1.29
0.83
0.72
0.84
0.93
0.69
-0.11
-1.52
-3.36
-5.35
-7.18
-8.62
-9.61
-10.21
-10.59
-10.94
-11.46
-12.22
-13.23
-14.33
-15.28
-15.81
-15.65
-14.67
-12.93
-10.62
-8.04
-5.48
-3.13
-1.10
0.56
1.83
2.65
2.99
2.86
2.41
1.85
1.47
1.47
1.97
2.94
4.30
6.00
7.99
10.24
12.62
14.87
16.60
17.48
17.38
16.48
15.23
14.12
13.45
13.26
13.30
13.28
13.11
12.87
12.73
12.77
12.80
12.47
11.41
9.48
6.90
4.17
1.87
0.38
-0.24
-0.23
-0.06
-0.15
-0.77
-1.98
-3.65
-5.54
-7.46
-9.32
-11.10
-12.78
-14.27
-15.36
-15.76
-15.23
-13.71
-11.35
-8.51
-5.68
-3.23
-1.39
-0.14
0.67
1.21
1.57
1.74
1.65
1.24
0.62
0.03
-0.16
0.39
1.83
3.99
6.39
8.41
9.42
9.07
7.33
4.56
1.30
-1.82
-4.30
-5.81
-6.28
-5.81
-4.64
-3.08
-1.43
0.01
0.97
1.29
0.88
-0.19
-1.73
-3.46
-5.10
-6.39
-7.24
-7.62
-7.54
-7.02
-6.05
-4.54
-2.39
0.58
4.56
9.74
16.16
23.59
31.49
39.10
45.69
50.71
53.93
55.43
55.45
54.27
52.26
49.76
47.15
44.69
42.38
39.93
36.89
32.81
27.53
21.22
14.23
6.94
-0.47
-8.04
-15.84
-23.82
-31.64
-38.74
-44.44
-48.26
-50.12
-50.40
-49.85
-49.27
-49.18
-49.65
-50.35
-50.82
-50.76
-50.25
-49.70
-49.57
-50.11
-51.16
-52.18
-52.49
-51.51
-49.01
-45.07
-40.03
-34.30
-28.18
-21.96
-15.88
-10.22
-5.31
-1.39
1.39
3.15
4.09
4.51
4.65
4.66
4.61
4.57
4.60
4.76
5.06
5.42
5.74
5.92
5.91
5.71
5.34
4.86
4.30
3.71
3.13
2.63
2.26
2.09
2.21
2.58
3.15
3.75
4.17
4.19
3.73
2.81
1.59
0.33
-0.76
-1.51
-1.88
-1.89
-1.60
-1.04
-0.29
0.64
1.71
2.85
4.00
5.07
5.96
6.60
6.94
6.96
6.71
6.26
5.72
5.15
4.62
4.15
3.78
3.49
3.27
3.02
2.64
2.02
1.12
0.01
-1.16
-2.20
-3.01
-3.60
-4.06
-4.53
-5.09
-5.77
-6.56
-7.39
-8.28
-9.30
-10.48
-11.79
-13.06
-14.01
-14.36
-13.97
-12.86
-11.25
-9.42
-7.57
-5.77
-3.97
-2.08
-0.10
1.80
3.36
4.31
4.56
4.23
3.62
3.02
2.65
2.48
2.38
2.19
1.88
1.56
1.39
1.46
1.66
1.76
1.50
0.76
-0.34
-1.59
-2.71
-3.56
-4.11
-4.49
-4.81
-5.20
-5.70
-6.37
-7.25
-8.37
-9.70
-11.11
-12.38
-13.25
-13.58
-13.26
-12.28
-10.68
-8.53
-5.95
-3.15
-0.44
1.91
3.65
4.72
5.20
5.26
5.11
4.88
4.62
4.37
4.18
4.05
4.02
4.07
4.15
4.18
4.07
3.73
3.20
2.55
1.97
1.61
1.48
1.46
1.30
0.80
-0.12
-1.34
-2.65
-3.95
-5.24
-6.66
-8.34
-10.21
-12.06
-13.55
-14.39
-14.44
-13.72
-12.33
-10.38
-7.98
-5.21
-2.26
0.65
3.27
5.39
6.91
7.82
8.19
8.14
7.77
7.18
6.46
5.75
5.15
4.77
4.66
4.76
4.91
4.92
4.65
4.07
3.25
2.33
1.44
0.59
-0.25
-1.16
-2.15
-3.17
-4.16
-5.13
-6.19
-7.47
-9.05
-10.84
-12.54
-13.77
-14.23
-13.75
-12.40
-10.40
-7.98
-5.35
-2.66
-0.08
2.22
4.07
5.40
6.24
6.76
7.15
7.54
7.95
8.33
8.64
8.85
9.02
9.16
9.20
9.09
8.72
8.13
7.40
6.65
5.98
5.36
4.73
3.92
2.89
1.61
0.19
-1.25
-2.59
-3.84
-5.02
-6.23
-7.52
-8.85
-10.00
-10.72
-10.72
-9.88
-8.21
-5.90
-3.22
-0.43
2.27
4.74
6.87
8.61
9.91
10.75
11.13
11.13
10.87
10.49
10.10
9.77
9.47
9.09
8.54
7.78
6.86
5.89
5.00
4.24
3.63
3.11
2.60
2.02
1.26
0.29
-0.94
-2.37
-3.91
-5.43
-6.83
-8.06
-9.11
-10.08
-11.04
-12.00
-12.90
-13.56
-13.79
-13.40
-12.34
-10.62
-8.33
-5.55
-2.38
1.07
4.58
7.80
10.38
12.00
12.57
12.23
11.30
10.17
9.14
8.34
7.74
7.24
6.73
6.20
5.74
5.48
5.52
5.88
6.48
7.14
7.64
7.75
7.37
6.53
5.36
4.07
2.85
1.79
0.87
-0.02
-1.04
-2.31
-3.87
-5.68
-7.60
-9.48
-11.13
-12.40
-13.19
-13.46
-13.21
-12.46
-11.25
-9.53
-7.29
-4.59
-1.60
1.37
3.95
5.87
7.05
7.59
7.74
7.75
7.76
7.84
7.98
8.16
8.43
8.84
9.40
10.04
10.64
11.06
11.21
11.11
10.79
10.35
9.84
9.32
8.81
8.33
7.87
7.38
6.79
6.00
4.98
3.78
2.54
1.39
0.39
-0.48
-1.33
-2.26
-3.30
-4.42
-5.60
-6.81
-8.10
-9.50
-10.95
-12.29
-13.20
-13.40
-12.68
-11.03
-8.65
-5.86
-3.01
-0.36
1.98
3.97
5.66
7.06
8.13
8.81
9.12
9.11
8.94
8.73
8.53
8.26
7.83
7.20
6.48
5.88
5.57
5.63
5.96
6.38
6.74
6.97
7.08
7.09
7.00
6.76
6.29
5.58
4.68
3.70
2.75
1.91
1.21
0.62
0.07
-0.57
-1.39
-2.42
-3.62
-4.86
-6.03
-7.12
-8.22
-9.46
-10.91
-12.48
-13.91
-14.87
-15.12
-14.59
-13.37
-11.60
-9.41
-6.84
-3.94
-0.83
2.24
4.93
6.93
8.09
8.46
8.26
7.77
7.28
6.97
6.89
7.04
7.32
7.62
7.91
8.18
8.48
8.85
9.24
9.51
9.51
9.11
8.31
7.27
6.22
5.32
4.67
4.19
3.78
3.30
2.70
1.95
1.11
0.21
-0.71
-1.62
-2.49
-3.26
-3.90
-4.39
-4.75
-5.07
-5.53
-6.32
-7.57
-9.27
-11.23
-13.10
-14.47
-14.97
-14.36
-12.62
-9.96
-6.76
-3.46
-0.53
1.75
3.27
4.16
4.66
5.05
5.51
6.11
6.77
7.35
7.72
7.80
7.59
7.16
6.64
6.17
5.86
5.82
6.07
6.57
7.23
7.89
8.38
8.54
8.33
7.80
7.10
6.39
5.77
5.26
4.75
4.17
3.49
2.79
2.18
1.72
1.35
0.92
0.24
-0.79
-2.13
-3.66
-5.18
-6.57
-7.75
-8.76
-9.67
-10.61
-11.67
-12.89
-14.18
-15.35
-16.13
-16.29
-15.67
-14.30
-12.31
-9.93
-7.38
-4.82
-2.42
-0.29
1.43
2.67
3.42
3.79
3.99
4.23
4.66
5.34
6.16
6.93
7.50
7.80
7.85
7.78
7.75
7.83
8.07
8.39
8.68
8.77
8.56
8.05
7.28
6.40
5.53
4.78
4.18
3.71
3.34
3.02
2.67
2.23
1.61
0.76
-0.28
-1.42
-2.53
-3.50
-4.29
-4.97
-5.63
-6.40
-7.35
-8.49
-9.80
-11.17
-12.47
-13.53
-14.20
-14.39
-14.04
-13.15
-11.69
-9.69
-7.22
-4.48
-1.75
0.68
2.59
3.90
4.69
5.11
5.33
5.44
5.47
5.45
5.40
5.40
5.52
5.79
6.17
6.58
6.93
7.18
7.33
7.47
7.66
7.90
8.11
8.16
7.91
7.35
6.56
5.73
5.00
4.49
4.15
3.87
3.53
3.02
2.29
1.32
0.12
-1.31
-2.90
-4.53
-6.07
-7.35
-8.27
-8.86
-9.30
-9.86
-10.80
-12.27
-14.16
-16.17
-17.85
-18.77
-18.65
-17.47
-15.41
-12.81
-10.03
-7.33
-4.88
-2.74
-0.92
0.55
1.67
2.43
2.90
3.22
3.54
4.01
4.62
5.28
5.83
6.20
6.44
6.73
7.21
7.89
8.64
9.25
9.54
9.48
9.14
8.62
7.98
7.21
6.27
5.19
4.08
3.09
2.36
1.92
1.69
1.51
1.23
0.74
-0.02
-1.03
-2.22
-3.50
-4.74
-5.85
-6.84
-7.80
-8.89
-10.29
-12.00
-13.85
-15.51
-16.62
-16.87
-16.19
-14.67
-12.54
-10.03
-7.35
-4.65
-2.06
0.30
2.32
3.97
5.27
6.30
7.14
7.82
8.30
8.52
8.48
8.27
8.02
7.88
7.91
8.05
8.22
8.32
8.31
8.23
8.11
7.92
7.61
7.10
6.37
5.48
4.59
3.83
3.30
2.97
2.71
2.38
1.90
1.21
0.36
-0.58
-1.56
-2.53
-3.50
-4.43
-5.34
-6.23
-7.17
-8.30
-9.68
-11.34
-13.10
-14.72
-15.90
-16.42
-16.21
-15.31
-13.85
-11.97
-9.81
-7.53
-5.28
-3.18
-1.28
0.46
2.08
3.60
4.96
6.03
6.73
7.09
7.24
7.36
7.56
7.87
8.20
8.49
8.72
8.91
9.06
9.10
8.94
8.47
7.71
6.76
5.81
4.97
4.25
3.58
2.83
1.98
1.07
0.20
-0.52
-1.07
-1.49
-1.84
-2.16
-2.48
-2.79
-3.16
-3.64
-4.36
-5.46
-6.98
-8.84
-10.87
-12.77
-14.20
-14.90
-14.73
-13.70
-11.99
-9.85
-7.52
-5.19
-2.96
-0.86
1.06
2.75
4.13
5.15
5.82
6.22
6.50
6.76
7.04
7.30
7.48
7.51
7.42
7.28
7.21
7.27
7.50
7.83
8.17
8.40
8.41
8.10
7.45
6.52
5.48
4.53
3.85
3.49
3.34
3.23
2.94
2.37
1.56
0.65
-0.22
-0.98
-1.67
-2.39
-3.23
-4.20
-5.28
-6.44
-7.73
-9.18
-10.81
-12.45
-13.78
-14.44
-14.18
-12.98
-11.09
-8.90
-6.72
-4.72
-2.93
-1.31
0.14
1.39
2.40
3.20
3.89
4.57
5.27
5.98
6.62
7.15
7.56
7.89
8.15
8.34
8.48
8.60
8.77
9.08
9.50
9.95
10.26
10.28
9.93
9.27
8.42
7.54
6.75
6.06
5.43
4.78
4.01
3.10
2.07
1.00
-0.06
-1.09
-2.13
-3.21
-4.35
-5.46
-6.48
-7.36
-8.17
-9.02
-10.04
-11.19
-12.29
-13.01
-13.07
-12.37
-11.04
-9.32
-7.45
-5.54
-3.57
-1.50
0.62
2.61
4.20
5.21
5.62
5.62
5.50
5.49
5.72
6.15
6.67
7.17
7.63
8.05
8.43
8.73
8.87
8.80
8.51
8.10
7.66
7.26
6.91
6.57
6.21
5.86
5.55
5.35
5.25
5.15
4.96
4.62
4.18
3.76
3.46
3.30
3.18
2.90
2.28
1.26
-0.12
-1.68
-3.24
-4.63
-5.80
-6.77
-7.61
-8.40
-9.25
-10.21
-11.31
-12.51
-13.65
-14.55
-14.97
-14.72
-13.73
-12.01
-9.74
-7.18
-4.60
-2.22
-0.21
1.40
2.59
3.43
4.00
4.39
4.70
5.05
5.53
6.14
6.83
7.49
8.02
8.36
8.56
8.69
8.79
8.90
8.98
9.05
9.13
9.26
9.46
9.67
9.76
9.60
9.12
8.32
7.33
6.33
5.49
4.89
4.53
4.35
4.24
4.11
3.87
3.46
2.79
1.80
0.46
-1.11
-2.74
-4.19
-5.27
-5.95
-6.35
-6.67
-7.11
-7.80
-8.76
-9.94
-11.23
-12.48
-13.53
-14.18
-14.28
-13.73
-12.51
-10.76
-8.66
-6.47
-4.41
-2.64
-1.24
-0.17
0.62
1.24
1.76
2.22
2.62
2.97
3.29
3.57
3.85
4.11
4.34
4.55
4.79
5.10
5.51
6.01
6.53
7.00
7.33
7.51
7.50
7.25
6.76
6.03
5.15
4.27
3.52
2.94
2.43
1.84
1.02
-0.05
-1.32
-2.66
-3.96
-5.14
-6.18
-7.11
-7.92
-8.63
-9.23
-9.70
-10.01
-10.16
-10.10
-9.81
-9.27
-8.42
-7.23
-5.70
-3.91
-2.03
-0.25
1.25
2.37
3.13
3.58
3.81
3.86
3.81
3.74
3.78
3.98
4.34
4.71
4.96
5.02
4.94
4.86
4.92
5.11
5.36
5.51
5.47
5.27
4.96
4.62
4.24
3.75
3.09
2.24
1.26
0.30
-0.56
-1.27
-1.91
-2.55
-3.26
-4.01
-4.72
-5.32
-5.79
-6.20
-6.74
-7.53
-8.59
-9.78
-10.82
-11.41
-11.39
-10.75
-9.63
-8.21
-6.63
-4.99
-3.33
-1.69
-0.15
1.17
2.18
2.88
3.34
3.67
4.00
4.36
4.73
5.05
5.26
5.35
5.32
5.21
5.05
4.92
4.82
4.75
4.66
4.45
4.04
3.43
2.63
1.77
1.00
0.42
0.09
-0.01
0.08
0.26
0.45
0.57
0.49
0.12
-0.57
-1.56
-2.69
-3.78
-4.66
-5.24
-5.58
-5.82
-6.16
-6.72
-7.51
-8.43
-9.34
-10.10
-10.68
-11.08
-11.32
-11.32
-10.94
-10.03
-8.52
-6.51
-4.23
-2.00
-0.09
1.38
2.40
3.02
3.33
3.41
3.32
3.16
3.00
2.90
2.85
2.85
2.83
2.78
2.71
2.60
2.42
2.06
1.51
0.77
-0.01
-0.66
-1.04
-1.10
-0.91
-0.61
-0.36
-0.29
-0.46
-0.84
-1.37
-1.94
-2.51
-3.04
-3.58
-4.20
-4.97
-5.93
-6.98
-7.97
-8.70
-9.01
-8.81
-8.10
-6.95
-5.50
-3.89
-2.25
-0.65
0.85
2.21
3.39
4.28
4.83
5.03
4.99
4.91
5.01
5.41
6.02
6.64
7.04
7.10
6.88
6.56
6.33
6.25
6.23
6.09
5.67
4.98
4.11
3.25
2.52
1.91
1.35
0.71
-0.09
-1.06
-2.18
-3.41
-4.70
-6.01
-7.26
-8.39
-9.29
-9.97
-10.41
-10.66
-10.68
-10.41
-9.76
-8.67
-7.18
-5.42
-3.58
-1.81
-0.21
1.18
2.37
3.38
4.21
4.84
5.26
5.50
5.58
5.53
5.37
5.10
4.72
4.28
3.81
3.41
3.15
3.06
3.08
3.08
2.94
2.59
2.05
1.44
0.84
0.30
-0.24
-0.85
-1.56
-2.34
-3.12
-3.86
-4.64
-5.58
-6.80
-8.30
-9.89
-11.33
-12.37
-12.86
-12.81
-12.28
-11.29
-9.86
-7.98
-5.76
-3.38
-1.14
0.73
2.15
3.17
3.94
4.61
5.22
5.74
6.14
6.41
6.55
6.61
6.65
6.72
6.84
7.00
7.13
7.11
6.86
6.35
5.69
5.02
4.45
4.05
3.71
3.32
2.77
2.02
1.16
0.28
-0.54
-1.34
-2.15
-3.04
-4.06
-5.17
-6.37
-7.58
-8.77
-9.88
-10.82
-11.48
-11.71
-11.41
-10.51
-9.03
-7.09
-4.88
-2.60
-0.46
1.47
3.11
4.47
5.49
6.11
6.32
6.17
5.89
5.73
5.89
6.43
7.16
7.86
8.27
8.33
8.11
7.79
7.48
7.21
6.92
6.52
5.93
5.13
4.15
3.03
1.86
0.72
-0.30
-1.17
-1.90
-2.57
-3.27
-4.04
-4.94
-5.98
-7.18
-8.54
-9.98
-11.31
-12.24
-12.45
-11.75
-10.14
-7.85
-5.26
-2.74
-0.52
1.33
2.85
4.11
5.08
5.74
6.07
6.15
6.20
6.43
6.97
7.78
8.66
9.37
9.75
9.75
9.48
9.07
8.65
8.29
7.96
7.63
7.20
6.58
5.65
4.38
2.82
1.14
-0.43
-1.70
-2.62
-3.27
-3.83
-4.47
-5.28
-6.30
-7.53
-8.94
-10.48
-12.02
-13.31
-14.08
-14.11
-13.29
-11.70
-9.58
-7.21
-4.84
-2.62
-0.58
1.27
2.98
4.52
5.92
7.14
8.19
9.07
9.80
10.42
10.96
11.45
11.85
12.13
12.21
12.03
11.60
10.96
10.21
9.39
8.55
7.67
6.77
5.87
5.01
4.24
3.53
2.78
1.87
0.75
-0.48
-1.66
-2.59
-3.21
-3.61
-4.02
-4.66
-5.67
-7.02
-8.59
-10.14
-11.41
-12.17
-12.25
-11.63
-10.39
-8.74
-6.92
-5.13
-3.45
-1.85
-0.28
1.32
2.93
4.49
5.90
7.08
8.00
8.62
9.02
9.28
9.49
9.73
10.01
10.29
10.48
10.49
10.28
9.86
9.26
8.54
7.75
6.93
6.20
5.66
5.43
5.56
5.97
6.51
6.98
7.21
7.18
6.99
6.78
6.65
6.54
6.27
5.59
4.34
2.57
0.51
-1.55
-3.35
-4.81
-6.01
-7.09
-8.17
-9.29
-10.39
-11.36
-12.16
-12.79
-13.37
-14.02
-14.78
-15.60
-16.28
-16.55
-16.19
-15.12
-13.45
-11.41
-9.27
-7.25
-5.43
-3.79
-2.27
-0.79
0.61
1.85
2.79
3.29
3.33
3.05
2.75
2.76
3.27
4.26
5.53
6.79
7.85
8.69
9.37
9.98
10.49
10.83
10.92
10.74
10.40
9.99
9.54
8.98
8.19
7.08
5.67
4.12
2.63
1.35
0.36
-0.35
-0.87
-1.29
-1.68
-2.13
-2.68
-3.37
-4.19
-5.12
-6.13
-7.19
-8.30
-9.45
-10.57
-11.48
-11.95
-11.77
-10.92
-9.53
-7.88
-6.24
-4.71
-3.30
-1.89
-0.46
0.91
2.11
3.03
3.67
4.17
4.67
5.22
5.75
6.15
6.36
6.40
6.42
6.54
6.77
7.03
7.11
6.90
6.37
5.63
4.86
4.21
3.73
3.35
2.94
2.39
1.68
0.89
0.14
-0.48
-0.94
-1.28
-1.58
-1.93
-2.39
-2.98
-3.71
-4.63
-5.75
-7.08
-8.52
-9.92
-11.03
-11.60
-11.44
-10.51
-8.97
-7.09
-5.23
-3.62
-2.36
-1.40
-0.61
0.15
0.92
1.67
2.32
2.82
3.19
3.50
3.84
4.22
4.56
4.77
4.78
4.61
4.36
4.17
4.14
4.28
4.52
4.70
4.74
4.56
4.20
3.69
3.10
2.47
1.79
1.07
0.31
-0.49
-1.32
-2.17
-3.04
-3.90
-4.69
-5.35
-5.86
-6.28
-6.73
-7.39
-8.35
-9.59
-10.92
-12.06
-12.68
-12.59
-11.70
-10.10
-7.97
-5.58
-3.19
-1.05
0.68
1.97
2.93
3.70
4.38
4.99
5.47
5.74
5.81
5.76
5.78
6.03
6.51
7.10
7.57
7.70
7.37
6.57
5.45
4.16
2.90
1.80
0.93
0.27
-0.26
-0.75
-1.28
-1.85
-2.44
-3.04
-3.66
-4.33
-5.06
-5.81
-6.52
-7.10
-7.52
-7.82
-8.09
-8.44
-8.92
-9.46
-9.95
-10.23
-10.12
-9.51
-8.38
-6.76
-4.81
-2.72
-0.72
1.04
2.48
3.62
4.52
5.23
5.76
6.12
6.26
6.19
5.93
5.57
5.24
5.03
5.01
5.19
5.50
5.85
6.09
6.11
5.88
5.40
4.77
4.12
3.51
2.96
2.41
1.81
1.09
0.26
-0.63
-1.55
-2.53
-3.62
-4.88
-6.31
-7.82
-9.27
-10.56
-11.63
-12.50
-13.14
-13.45
-13.27
-12.44
-10.92
-8.84
-6.50
-4.15
-1.97
-0.03
1.66
3.07
4.11
4.67
4.77
4.52
4.17
4.00
4.20
4.79
5.63
6.51
7.23
7.68
7.87
7.89
7.88
7.95
8.10
8.23
8.18
7.76
6.85
5.43
3.62
1.62
-0.38
-2.20
-3.77
-5.14
-6.48
-7.98
-9.80
-11.95
-14.27
-16.48
-18.26
-19.28
-19.34
-18.40
-16.53
-13.96
-11.01
-8.01
-5.23
-2.83
-0.83
0.85
2.32
3.62
4.73
5.55
6.00
6.08
5.88
