1548705540.00
64.000000
-0.00
-0.00
-0.00
-0.00
-0.00
-0.00
-0.00
-0.00
-0.00
-0.00
0.00
0.01
0.01
-0.00
-0.03
-0.05
-0.05
0.00
0.13
0.36
0.66
1.01
1.37
1.72
2.06
2.40
2.79
3.24
3.80
4.42
5.06
5.66
6.20
6.68
7.15
7.68
8.31
9.14
10.09
11.04
11.88
12.56
13.14
13.76
14.65
15.96
17.91
20.32
22.90
25.38
27.58
29.57
31.68
34.32
37.81
42.54
48.15
54.10
59.83
64.97
69.58
74.14
79.34
85.71
93.76
103.00
112.62
121.73
129.77
136.75
143.30
150.75
157.77
166.64
177.95
191.79
206.97
220.57
228.25
225.36
208.53
176.87
132.76
80.05
23.07
-34.94
-92.44
-149.16
-205.23
-260.37
-313.74
-363.87
-409.83
-450.91
-486.50
-515.74
-537.23
-549.22
-549.96
-538.37
-514.21
-478.67
-433.88
-382.45
-327.02
-269.84
-212.63
-156.66
-102.95
-52.37
-5.90
35.58
71.43
101.35
125.50
144.38
158.69
169.15
176.37
180.75
182.57
182.07
179.51
175.23
169.65
163.18
156.15
148.81
141.30
133.69
126.02
118.33
110.69
103.16
95.80
88.68
81.83
75.25
68.95
62.95
57.25
51.86
46.78
42.03
37.59
33.45
29.61
26.07
22.81
19.83
17.11
14.67
12.48
10.54
8.83
7.35
6.07
4.97
4.05
3.27
2.62
2.09
1.65
1.30
1.01
0.79
0.61
0.47
0.37
0.29
0.23
0.18
0.15
0.14
0.13
0.14
0.15
0.17
0.19
0.22
0.26
0.30
0.34
0.38
0.43
0.48
0.52
0.57
0.63
0.68
0.74
0.80
0.86
0.94
1.03
1.13
1.25
1.37
1.49
1.58
1.65
1.72
1.81
1.95
2.16
2.42
2.73
3.05
3.37
3.67
3.98
4.33
4.76
5.28
5.88
6.52
7.15
7.73
8.26
8.77
9.35
10.06
10.95
12.00
13.10
14.12
14.96
15.57
16.07
16.61
17.32
18.25
19.21
19.86
19.78
18.62
16.24
12.81
8.67
4.27
-0.13
-4.47
-8.96
-13.88
-19.40
-25.41
-31.41
-36.72
-40.77
-43.24
-44.28
-44.38
-44.17
-44.25
-45.09
-47.07
-50.26
-54.17
-57.46
-58.14
-54.18
-44.51
-29.81
-12.49
4.14
17.13
25.09
28.40
28.63
27.53
26.09
24.52
22.53
20.09
17.57
15.67
14.89
15.16
15.88
16.29
15.78
14.33
12.38
10.57
9.40
9.00
9.12
9.37
9.42
9.23
9.01
9.11
9.78
11.07
12.80
14.59
16.07
16.92
17.03
16.44
15.37
14.03
12.66
11.35
10.19
9.12
8.00
6.68
5.03
3.03
0.77
-1.59
-3.82
-5.75
-7.26
-8.39
-9.21
-9.85
-10.41
-10.93
-11.35
-11.57
-11.55
-11.29
-11.00
-10.89
-11.17
-11.83
-12.64
-13.26
-13.35
-12.74
-11.44
-9.63
-7.41
-4.85
-1.99
1.05
3.99
6.49
8.25
9.22
9.52
9.41
9.08
8.53
7.63
6.32
4.72
3.22
2.32
2.35
3.32
4.80
6.15
6.83
6.62
5.74
4.68
3.98
3.88
4.24
4.71
4.98
4.98
4.89
5.03
5.50
6.17
6.61
6.40
5.49
4.25
3.45
3.93
6.13
9.86
14.34
18.46
21.27
22.35
21.91
20.57
18.91
17.25
15.43
13.16
10.34
7.26
4.54
2.78
2.27
2.77
3.68
4.36
4.45
3.97
3.20
2.43
1.70
0.90
-0.19
-1.73
-3.66
-5.75
-7.77
-9.54
-11.04
-12.38
-13.66
-14.89
-15.97
-16.68
-16.81
-16.22
-14.87
-12.83
-10.28
-7.42
-4.53
-1.93
0.11
1.39
1.85
1.58
0.79
-0.24
-1.29
-2.21
-2.90
-3.30
-3.40
-3.23
-2.86
-2.38
-1.86
-1.34
-0.77
-0.14
0.51
1.08
1.44
1.45
1.08
0.42
-0.39
-1.19
-1.96
-2.73
-3.67
-4.86
-6.29
-7.75
-8.91
-9.42
-9.01
-7.62
-5.35
-2.46
0.74
3.95
6.83
9.10
10.54
11.00
10.50
9.22
7.42
5.43
3.54
1.98
0.93
0.41
0.36
0.59
0.89
1.08
1.11
1.03
0.89
0.69
0.22
-0.81
-2.53
-4.89
-7.47
-9.73
-11.20
-11.67
-11.21
-10.16
-8.89
-7.69
-6.71
-5.99
-5.52
-5.24
-5.07
-4.82
-4.30
-3.36
-1.98
-0.41
0.89
1.34
0.46
-1.95
-5.70
-10.22
-14.80
-18.80
-21.93
-24.19
-25.93
-27.49
-29.12
-30.80
-32.33
-33.42
-33.90
-33.80
-33.36
-32.90
-32.65
-32.60
-32.48
-31.88
-30.47
-28.09
-24.90
-21.20
-17.34
-13.60
-10.10
-6.85
-3.83
-0.98
1.81
4.72
8.02
12.03
16.96
22.81
29.25
35.64
41.11
44.91
46.63
46.38
44.71
42.44
40.21
38.35
36.69
34.94
32.84
30.45
28.14
26.40
25.49
25.31
25.39
25.09
24.02
22.12
19.72
17.32
15.31
13.82
12.60
11.40
9.99
8.48
7.13
6.21
5.84
5.89
6.02
5.90
5.35
4.38
3.18
2.05
1.26
1.02
1.38
2.19
3.17
3.95
4.18
3.71
2.60
1.12
-0.42
-1.85
-3.11
-4.33
-5.58
-6.89
-8.11
-9.11
-9.81
-10.25
-10.58
-10.89
-11.19
-11.33
-11.15
-10.51
-9.47
-8.26
-7.24
-6.73
-6.88
-7.64
-8.75
-9.87
-10.71
-11.08
-11.00
-10.64
-10.25
-10.09
-10.30
-10.93
-11.91
-13.08
-14.23
-15.16
-15.71
-15.89
-15.84
-15.79
-15.98
-16.57
-17.55
-18.81
-20.20
-21.63
-23.17
-24.92
-26.94
-29.14
-31.27
-32.95
-33.79
-33.44
-31.70
-28.58
-24.22
-19.08
-13.74
-8.91
-5.20
-2.89
-1.88
-1.65
-1.51
-0.86
0.61
2.78
5.28
7.63
9.42
10.52
11.00
11.03
10.82
10.41
9.78
8.85
7.66
6.42
5.47
5.20
5.83
7.23
9.00
10.59
11.49
11.49
10.66
9.25
7.42
5.16
2.27
-1.42
-5.82
-10.51
-14.87
-18.35
-20.70
-22.11
-23.03
-23.96
-25.25
-26.98
-29.06
-31.28
-33.44
-35.37
-36.88
-37.74
-37.69
-36.46
-33.85
-29.81
-24.46
-18.09
-11.05
-3.73
3.59
10.73
17.62
24.18
30.30
35.78
40.39
43.98
46.51
48.10
48.91
49.10
48.80
48.11
47.09
45.78
44.25
42.61
40.96
39.44
38.17
37.21
36.59
36.27
36.17
36.27
36.55
37.05
37.75
38.54
39.24
39.64
39.56
38.82
37.27
34.78
31.34
27.18
22.70
18.49
14.97
12.22
9.92
7.48
4.41
0.60
-3.57
-7.41
-10.26
-11.82
-12.26
-12.08
-11.86
-12.00
-12.75
-14.12
-16.18
-18.99
-22.68
-27.31
-32.78
-38.76
-44.68
-49.91
-53.91
-56.45
-57.70
-58.18
-58.56
-59.36
-60.67
-62.04
-62.68
-61.72
-58.67
-53.58
-47.07
-39.98
-33.11
-26.96
-21.61
-16.93
-12.75
-9.05
-5.97
-3.66
-2.12
-1.09
-0.12
1.25
3.24
5.79
8.63
11.43
14.01
16.34
18.46
20.36
21.90
22.89
23.23
22.97
22.31
21.47
20.62
19.78
18.88
17.82
16.57
15.23
13.95
12.92
12.26
11.94
11.76
11.46
10.77
9.58
7.99
6.25
4.68
3.41
2.38
1.40
0.28
-1.02
-2.35
-3.43
-4.11
-4.41
-4.55
-4.74
-5.01
-5.04
-4.39
-2.72
-0.03
3.17
6.18
8.40
9.61
10.04
10.11
10.18
10.31
10.31
9.94
9.17
8.18
7.30
6.77
6.66
6.85
7.18
7.51
7.76
7.87
7.75
7.30
6.51
5.50
4.46
3.61
3.01
2.60
2.18
1.54
0.58
-0.68
-2.09
-3.46
-4.61
-5.32
-5.36
-4.48
-2.48
0.61
4.47
8.53
12.07
14.53
15.62
15.45
14.39
12.87
11.26
9.78
8.50
7.50
6.88
6.82
7.46
8.87
10.91
13.32
15.69
17.68
19.10
19.98
20.59
21.26
22.30
23.76
25.48
27.15
28.47
29.24
29.50
29.50
29.52
29.89
30.77
32.15
33.84
35.39
36.27
35.87
33.74
29.67
23.86
16.86
9.41
2.18
-4.40
-10.28
-15.69
-20.86
-25.87
-30.48
-34.30
-36.92
-38.19
-38.21
-37.31
-35.86
-34.23
-32.76
-31.80
-31.77
-32.86
-34.98
-37.58
-39.85
-41.15
-41.34
-40.89
-40.76
-41.94
-45.06
-50.21
-56.88
-64.11
-70.55
-74.68
-75.07
-70.83
-62.00
-49.71
-35.89
-22.64
-11.50
-3.08
2.87
7.09
10.21
12.60
14.34
15.46
16.12
16.52
16.84
17.12
17.30
17.22
16.80
16.07
15.14
14.19
13.39
12.92
12.81
12.92
12.99
12.68
11.75
10.19
8.23
6.25
4.59
3.44
2.78
2.42
2.14
1.75
1.17
0.47
-0.21
-0.67
-0.79
-0.57
-0.09
0.57
1.44
2.62
4.23
6.12
7.91
9.05
9.13
8.11
6.35
4.50
3.09
2.38
2.23
2.36
2.60
2.92
3.50
4.38
5.43
6.25
6.41
5.68
4.13
2.18
0.27
-1.27
-2.43
-3.41
-4.50
-5.81
-7.27
-8.66
-9.80
-10.70
-11.58
-12.76
-14.44
-16.58
-18.79
-20.48
-21.02
-20.00
-17.34
-13.29
-8.44
-3.48
0.95
4.42
6.85
8.37
9.21
9.52
9.22
8.07
5.87
2.66
-1.17
-5.02
-8.28
-10.58
-11.92
-12.61
-13.11
-13.75
-14.71
-15.99
-17.54
-19.32
-21.35
-23.70
-26.40
-29.38
-32.51
-35.59
-38.49
-41.17
-43.74
-46.47
-49.63
-53.36
-57.49
-61.46
-64.39
-65.27
-63.27
-58.02
-49.66
-38.78
-26.25
-12.91
0.51
13.46
25.47
36.09
44.92
51.70
56.42
59.35
60.93
61.63
61.76
61.45
60.66
59.33
57.49
55.27
52.83
50.32
47.80
45.17
42.28
39.02
35.40
31.58
27.77
24.17
20.86
17.71
14.49
11.01
7.14
2.95
-1.39
-5.61
-9.38
-12.30
-13.86
-13.61
-11.26
-6.88
-0.98
5.61
11.95
17.27
21.13
23.47
24.50
24.57
24.03
23.21
22.34
21.61
21.11
20.92
21.07
21.67
22.77
24.36
26.26
28.16
29.73
30.76
31.26
31.48
31.80
32.59
34.04
36.15
38.67
41.14
42.84
42.90
40.46
34.90
26.15
14.76
1.89
-11.03
-22.59
-31.73
-37.79
-40.57
-40.22
-37.20
-32.25
-26.27
-20.30
-15.23
-11.72
-10.11
-10.45
-12.65
-16.56
-21.92
-28.30
-34.97
-40.98
-45.38
-47.50
-47.25
-45.01
-41.44
-37.19
-32.76
-28.53
-24.93
-22.50
-21.74
-22.87
-25.63
-29.29
-32.87
-35.55
-36.98
-37.37
-37.30
-37.53
-38.80
-41.59
-45.94
-51.25
-56.21
-58.90
-57.35
-50.17
-37.06
-19.07
1.70
22.78
41.87
57.35
68.36
74.63
76.30
73.87
68.15
60.28
51.65
43.58
36.96
32.16
28.91
26.63
24.73
22.89
21.06
19.31
17.48
15.16
11.79
6.98
0.78
-6.26
-13.35
-19.83
-25.42
-30.36
-35.16
-40.44
-46.66
-53.92
-61.86
-69.53
-75.46
-77.87
-75.22
-66.71
-52.72
-34.80
-15.23
3.66
20.00
32.74
41.57
46.75
48.86
48.63
46.91
44.54
42.29
40.66
39.88
39.85
40.29
40.88
41.39
41.75
41.97
42.10
42.11
41.83
41.03
39.42
36.88
33.53
29.76
26.06
22.95
20.69
19.25
18.26
17.27
15.95
14.37
13.09
12.99
15.00
19.63
26.67
35.24
43.95
51.36
56.33
58.31
57.26
53.63
48.08
41.41
34.44
27.86
22.13
17.35
13.29
9.56
5.81
1.90
-1.94
-5.36
-7.98
-9.65
-10.50
-10.82
-10.97
-11.18
-11.58
-12.14
-12.80
-13.47
-14.08
-14.54
-14.77
-14.68
-14.30
-13.73
-13.14
-12.67
-12.31
-11.82
-10.84
-9.03
-6.25
-2.73
1.02
4.38
6.89
8.41
9.15
9.43
9.53
9.47
9.09
8.15
6.56
4.35
1.68
-1.35
-4.72
-8.56
-13.08
-18.34
-24.26
-30.48
-36.53
-41.93
-46.40
-49.94
-52.88
-55.73
-58.96
-62.78
-67.01
-71.17
-74.64
-76.88
-77.49
-76.35
-73.57
-69.60
-65.24
-61.62
-60.00
-61.40
-66.37
-74.70
-85.46
-97.17
-108.15
-116.98
-122.69
-124.93
-123.74
-119.31
-111.64
-100.53
-85.73
-67.24
-45.52
-21.56
3.30
27.64
50.16
69.70
85.32
96.23
102.01
102.71
99.00
92.10
83.54
74.83
67.15
61.11
56.63
53.03
49.15
43.77
36.02
25.98
14.93
5.34
0.31
2.59
13.52
32.32
56.06
80.43
100.99
114.30
118.69
114.29
102.52
85.42
65.07
43.35
21.81
1.83
-15.53
-29.53
-39.88
-46.77
-50.75
-52.45
-52.41
-50.82
-47.55
-42.28
-34.86
-25.48
-14.92
-4.32
5.04
12.22
16.71
18.48
17.77
14.79
9.68
2.50
-6.48
-16.53
-26.33
-34.23
-38.59
-38.31
-33.20
-24.04
-12.47
-0.44
10.22
18.22
22.98
24.57
23.49
20.46
16.27
11.69
7.50
4.36
2.63
2.36
3.21
4.59
5.87
6.61
6.61
5.90
4.51
2.36
-0.78
-5.16
-10.96
-18.03
-25.98
-34.22
-42.25
-49.78
-56.84
-63.77
-71.10
-79.40
-88.93
-99.40
-109.74
-118.17
-122.56
-120.99
-112.51
-97.45
-77.41
-54.66
-31.51
-9.71
9.76
26.49
40.35
51.31
59.42
64.96
68.57
71.12
73.48
76.24
79.44
82.65
85.19
86.42
86.03
84.19
81.44
78.40
75.51
72.79
69.76
65.68
59.87
52.05
42.55
32.15
21.80
12.18
3.43
-4.82
-13.30
-22.69
-33.38
-45.30
-57.74
-69.45
-78.78
-83.95
-83.49
-76.76
-64.13
-47.04
-27.57
-7.93
10.06
25.19
36.81
44.67
48.80
49.55
47.65
44.23
40.66
38.22
37.74
39.36
42.58
46.50
50.12
52.70
53.86
53.62
52.22
50.01
47.26
44.06
40.33
35.87
30.50
24.13
16.87
8.99
0.93
-6.83
-13.88
-20.06
-25.47
-30.59
-36.03
-42.45
-50.16
-58.91
-67.71
-74.89
-78.49
-76.77
-68.83
-54.98
-36.72
-16.35
3.69
21.34
35.33
45.05
50.47
51.83
49.64
44.76
38.44
32.25
27.67
25.72
26.56
29.53
33.44
37.10
39.71
41.06
41.36
40.98
40.17
38.85
36.82
33.77
29.56
24.22
17.99
11.19
4.25
-2.45
-8.58
-13.98
-18.75
-23.26
-28.09
-33.95
-41.33
-50.22
-59.84
-68.54
-74.12
-74.39
-67.90
-54.48
-35.45
-13.21
9.47
30.16
47.20
59.73
67.45
70.38
68.77
63.26
54.99
45.62
36.91
30.35
26.70
25.84
27.03
29.21
31.47
33.21
34.25
34.61
34.38
33.54
31.87
29.07
24.89
19.41
13.02
6.43
0.39
-4.59
-8.44
-11.63
-14.88
-18.96
-24.37
-31.10
-38.61
-45.86
-51.45
-53.91
-52.00
-45.08
-33.37
-17.99
-0.84
15.89
30.09
40.25
45.70
46.62
43.87
38.58
31.90
24.75
17.82
11.63
6.59
3.03
1.01
0.35
0.57
1.04
1.22
0.76
-0.52
-2.75
-6.03
-10.49
-16.13
-22.65
-29.56
-36.23
-42.22
-47.44
-52.23
-57.23
-63.18
-70.61
-79.56
-89.36
-98.51
-104.99
-106.74
-102.48
-92.28
-77.69
-61.33
-45.89
-33.21
-23.80
-16.92
-11.29
-5.87
-0.37
4.84
9.13
12.12
13.94
15.16
16.41
18.11
20.23
22.47
24.37
25.59
25.93
25.45
24.50
23.77
24.30
27.27
33.63
43.72
57.02
72.24
87.60
101.36
112.11
119.01
121.76
120.63
116.24
109.67
102.16
94.91
88.72
83.81
79.82
76.08
71.85
66.67
60.41
53.19
45.20
36.71
27.96
19.39
11.47
4.70
-0.59
-4.43
-7.15
-9.25
-11.18
-13.10
-14.89
-16.31
-17.20
-17.60
-17.79
-18.08
-18.71
-19.68
-20.91
-22.18
-23.40
-24.54
-25.63
-26.69
-27.64
-28.33
-28.59
-28.30
-27.45
-26.12
-24.51
-22.85
-21.36
-20.09
-18.93
-17.65
-16.04
-13.97
-11.56
-9.05
-6.77
-4.99
-3.77
-3.05
-2.66
-2.39
-2.05
-1.51
-0.69
0.45
1.89
3.52
5.20
6.72
7.81
8.27
7.92
6.76
5.00
2.95
0.90
-1.02
-2.96
-5.18
-7.91
-11.17
-14.69
-18.06
-20.93
-23.17
-24.88
-26.24
-27.29
-27.85
-27.58
-26.10
-23.36
-19.60
-15.39
-11.41
-8.28
-6.34
-5.62
-5.90
-6.83
-8.09
-9.44
-10.78
-12.05
-13.18
-14.05
-14.50
-14.39
-13.69
-12.49
-11.01
-9.50
-8.11
-6.86
-5.69
-4.47
-3.13
-1.67
-0.14
1.38
2.83
4.16
5.29
6.13
6.49
6.20
5.20
3.62
1.80
0.25
-0.53
-0.22
1.20
3.49
6.21
8.93
11.25
12.92
13.74
13.60
12.45
10.34
7.49
4.21
0.91
-2.06
-4.38
-5.90
-6.65
-6.82
-6.73
-6.69
-6.90
-7.39
-8.05
-8.71
-9.29
-9.80
-10.30
-10.82
-11.28
-11.55
-11.54
-11.31
-11.02
-10.91
-11.09
-11.53
-12.06
-12.54
-12.87
-12.96
-12.65
-11.56
-9.22
-5.26
0.35
7.19
14.55
21.68
28.11
33.72
38.66
43.08
46.97
50.03
51.86
52.11
50.70
47.88
44.12
39.96
35.83
31.89
28.02
24.01
19.70
15.14
10.65
6.64
3.45
1.13
-0.53
-1.84
-3.08
-4.30
-5.41
-6.30
-6.92
-7.40
-7.94
-8.73
-9.81
-11.13
-12.51
-13.80
-14.82
-15.50
-15.84
-15.90
-15.84
-15.77
-15.80
-15.95
-16.18
-16.53
-17.05
-17.86
-19.05
-20.56
-22.10
-23.29
-23.77
-23.42
-22.42
-21.18
-20.15
-19.59
-19.50
-19.60
-19.55
-19.07
-18.09
-16.70
-15.13
-13.58
-12.26
-11.32
-10.83
-10.84
-11.30
-12.10
-13.14
-14.40
-15.94
-17.87
-20.19
-22.67
-24.88
-26.28
-26.42
-25.08
-22.36
-18.65
-14.44
-10.23
-6.40
-3.13
-0.42
1.87
3.96
6.05
8.31
10.80
13.61
16.75
20.22
23.91
27.65
31.26
34.67
37.89
40.94
43.64
45.48
45.71
43.50
38.21
29.59
17.83
3.55
-12.36
-28.80
-44.60
-58.67
-70.13
-78.41
-83.25
-84.60
-82.59
-77.45
-69.65
-60.06
-49.86
-40.45
-33.06
-28.51
-26.98
-28.17
-31.41
-35.85
-40.63
-44.88
-47.86
-48.94
-47.75
-44.21
-38.46
-30.85
-21.82
-11.91
-1.77
7.78
15.82
21.50
24.25
24.02
21.27
16.85
11.63
6.17
0.52
-5.76
-13.29
-22.49
-33.15
-44.34
-54.47
-61.74
-64.54
-61.97
-54.00
-41.47
-25.88
-9.02
7.39
21.97
33.93
43.13
49.97
55.22
59.82
64.63
70.29
77.11
85.03
93.53
101.82
108.95
113.98
116.36
115.90
112.79
107.34
99.81
90.18
78.30
64.09
47.88
30.51
13.18
-2.86
-16.85
-28.67
-38.92
-48.51
-58.24
-68.39
-78.64
-88.16
-95.97
-101.19
-103.38
-102.48
-98.91
-93.39
-86.82
-80.22
-74.57
-70.64
-68.82
-68.95
-70.38
-72.02
-72.71
-71.40
-67.33
-60.12
-49.66
-36.15
-19.97
-1.79
17.46
36.72
54.90
71.14
84.98
96.33
105.34
112.25
117.21
120.34
121.69
121.46
119.99
117.73
115.16
112.54
109.82
106.63
102.41
96.70
89.41
80.98
72.27
64.33
58.01
53.66
51.06
49.56
48.34
46.68
44.12
40.32
35.10
28.28
19.87
10.10
-0.47
-11.08
-21.10
-30.31
-39.04
-47.96
-57.66
-68.11
-78.43
-86.92
-91.58
-90.77
-83.72
-70.86
-53.69
-34.34
-15.02
2.48
17.09
28.56
37.23
43.80
49.03
53.56
57.63
61.02
62.93
62.19
57.61
48.53
35.39
19.92
4.86
-6.87
-13.24
-13.73
-9.42
-2.36
5.35
12.26
17.73
21.65
23.86
23.92
21.24
15.56
7.26
-2.54
-12.38
-21.01
-27.87
-33.27
-38.09
-43.37
-49.80
-57.44
-65.74
-73.73
-80.53
-85.67
-89.25
-91.83
-94.06
-96.31
-98.51
-100.29
-101.32
-101.61
-101.52
-101.62
-102.31
-103.61
-105.05
-105.76
-104.75
-101.07
-94.07
-83.52
-69.67
-53.31
-35.62
-17.82
-0.93
14.41
27.99
39.73
49.52
57.12
62.30
65.02
65.59
64.63
62.82
60.76
58.69
56.62
54.46
52.18
49.88
47.67
45.55
43.27
40.39
36.43
31.11
24.50
16.96
9.05
1.34
-5.82
-12.27
-18.11
-23.55
-28.81
-34.03
-39.22
-44.24
-48.80
-52.57
-55.22
-56.48
-56.16
-54.15
-50.44
-45.16
-38.61
-31.30
-23.83
-16.82
-10.70
-5.72
-1.95
0.58
1.82
1.71
0.28
-2.22
-5.33
-8.50
-11.29
-13.47
-15.11
-16.43
-17.66
-18.87
-19.97
-20.69
-20.77
-20.03
-18.46
-16.24
-13.64
-11.06
-8.80
-7.06
-5.89
-5.20
-4.89
-4.82
-4.92
-5.04
-4.97
-4.44
-3.19
-1.08
1.87
5.52
9.63
13.98
18.37
22.62
26.53
29.90
32.57
34.45
35.54
35.95
35.86
35.47
34.91
34.30
33.66
32.90
31.97
30.80
29.40
27.79
25.98
23.89
21.46
18.70
15.83
13.19
11.16
9.88
9.17
8.62
7.72
6.18
4.07
1.82
0.03
-0.78
-0.31
1.47
4.35
8.02
12.15
16.36
20.33
23.74
26.41
28.35
29.80
31.16
32.83
35.01
37.52
39.75
40.79
39.75
36.09
29.84
21.67
12.62
3.76
-4.27
-11.35
-17.72
-23.64
-29.07
-33.60
-36.74
-38.26
-38.53
-38.33
-38.50
-39.37
-40.62
-41.38
-40.82
-38.59
-35.05
-30.94
-26.99
-23.41
-19.85
-15.62
-10.13
-3.22
4.71
12.88
20.41
26.60
31.14
34.07
35.70
36.46
36.71
36.76
36.79
36.99
37.52
38.43
39.57
40.56
40.93
40.41
39.09
37.45
36.09
35.48
35.69
36.57
37.93
39.72
41.97
44.47
46.58
47.27
45.50
40.88
33.85
25.63
17.64
10.88
5.65
1.55
-1.89
-4.76
-6.49
-5.97
-2.15
5.46
16.33
28.94
41.28
51.48
58.43
62.04
63.05
62.43
60.76
57.91
53.19
45.89
35.71
22.80
7.21
-11.75
-35.56
-65.77
-102.60
-144.23
-187.22
-228.22
-265.89
-301.35
-336.62
-371.82
-403.35
-424.39
-428.16
-411.71
-377.77
-333.38
-285.92
-239.61
-194.41
-148.10
-99.64
-51.15
-7.36
27.15
50.70
65.37
75.48
85.15
96.23
108.03
118.53
126.33
131.93
137.95
148.32
166.32
192.85
225.05
256.58
279.22
285.68
272.29
240.16
194.37
141.73
88.46
38.91
-4.27
-39.24
-64.40
-78.62
-82.07
-76.61
-65.37
-51.58
-37.44
-23.82
-11.01
0.25
8.29
11.08
7.44
-1.98
-14.52
-26.72
-35.70
-40.19
-40.41
-37.29
-31.58
-23.45
-12.84
-0.10
13.73
27.17
38.95
48.65
56.79
64.36
72.10
80.03
87.40
93.13
96.27
96.42
93.73
88.66
81.77
73.57
64.63
55.54
46.92
39.20
32.45
26.26
20.04
13.33
6.11
-1.05
-7.28
-11.73
-13.97
-14.08
-12.58
-10.05
-6.86
-3.10
1.34
6.40
11.68
16.41
19.71
20.96
20.14
17.83
14.99
12.48
10.78
9.86
9.38
8.94
8.31
7.49
6.59
5.67
4.66
3.31
1.29
-1.63
-5.46
-9.86
-14.28
-18.13
-21.13
-23.47
-25.82
-29.06
-33.93
-40.57
-48.45
-56.44
-63.17
-67.44
-68.63
-66.79
-62.57
-56.93
-50.84
-45.15
-40.46
-37.17
-35.46
-35.27
-36.20
-37.49
-38.23
-37.64
-35.47
-32.15
-28.61
-25.87
-24.70
-25.28
-27.38
-30.57
-34.53
-39.12
-44.34
-50.12
-56.17
-62.05
-67.43
-72.28
-77.11
-82.73
-89.85
-98.67
-108.60
-118.50
-127.20
-133.88
-138.29
-140.46
-140.30
-137.19
-130.19
-118.38
-101.60
-80.65
-57.23
-33.46
-11.50
6.83
20.03
27.05
27.39
21.43
10.64
-2.56
-15.34
-25.20
-30.65
-31.44
-28.50
-23.24
-17.03
-10.82
-5.07
0.08
4.49
7.99
10.24
10.94
10.01
7.64
4.25
0.33
-3.87
-8.44
-13.92
-20.99
-30.05
-40.78
-52.01
-61.86
-68.38
-70.08
-66.46
-57.97
-45.71
-30.94
-14.78
1.80
17.83
32.13
43.28
50.07
51.89
49.22
43.84
38.47
36.15
39.40
49.64
66.96
90.45
118.43
149.00
180.12
209.76
235.87
256.60
270.43
276.46
274.55
265.35
250.25
231.20
210.46
190.14
171.78
156.03
142.66
131.08
120.88
112.19
105.54
101.26
99.08
97.96
96.48
93.55
88.87
82.94
76.59
70.34
64.15
57.56
50.14
41.96
33.70
26.37
20.81
17.24
15.23
13.87
12.27
9.99
7.19
4.49
2.53
1.55
1.23
0.80
-0.53
-3.10
-6.61
-10.31
-13.37
-15.43
-16.75
-18.08
-20.20
-23.46
-27.57
-31.73
-35.00
-36.65
-36.44
-34.51
-31.25
-27.02
-22.08
-16.63
-10.90
-5.37
-0.72
2.33
3.22
1.89
-1.20
-5.11
-8.78
-11.42
-12.77
-13.14
-13.14
-13.38
-14.15
-15.35
-16.64
-17.78
-18.72
-19.75
-21.24
-23.35
-25.93
-28.51
-30.58
-31.84
-32.40
-32.72
-33.39
-34.80
-36.98
-39.48
-41.56
-42.42
-41.44
-38.38
-33.45
-27.19
-20.36
-13.74
-7.86
-3.07
0.47
2.71
3.59
3.15
1.59
-0.67
-3.04
-4.99
-6.23
-6.78
-6.90
-6.85
-6.83
-6.85
-6.87
-6.92
-7.18
-7.88
-9.16
-11.01
-13.19
-15.37
-17.27
-18.80
-20.03
-21.23
-22.64
-24.44
-26.58
-28.77
-30.56
-31.48
-31.10
-29.14
-25.50
-20.27
-13.84
-6.83
-0.06
5.57
9.39
11.07
10.75
8.94
6.25
3.23
0.23
-2.56
-5.07
-7.23
-8.99
-10.26
-11.06
-11.48
-11.73
-12.15
-13.07
-14.72
-17.10
-20.01
-23.04
-25.83
-28.19
-30.24
-32.38
-35.14
-38.93
-43.86
-49.56
-55.14
-59.37
-60.90
-58.62
-51.98
-41.32
-27.78
-13.08
0.94
12.73
21.39
26.67
28.80
28.35
26.04
22.62
18.83
15.39
12.87
11.64
11.78
13.04
14.93
16.77
17.90
17.79
16.17
13.11
8.96
4.23
-0.54
-5.00
-9.04
-12.80
-16.65
-21.04
-26.38
-32.81
-39.99
-46.99
-52.30
-54.18
-51.15
-42.60
-29.06
-12.24
5.50
21.73
34.64
43.39
48.05
49.31
48.03
44.98
40.77
35.97
31.25
27.40
25.08
24.61
25.75
27.72
29.52
30.20
29.28
26.73
22.95
18.47
13.78
9.19
4.77
0.47
-3.84
-8.29
-13.01
-18.20
-24.04
-30.67
-37.90
-44.99
-50.53
-52.72
-49.87
-41.17
-27.16
-9.71
8.49
24.82
37.40
45.49
49.31
49.61
47.28
43.14
38.00
32.76
28.35
25.55
24.66
25.42
27.06
28.64
29.46
29.23
28.11
26.40
24.34
21.90
18.85
14.97
10.26
5.05
-0.14
-4.81
-8.66
-11.81
-14.70
-17.99
-22.33
-28.08
-35.01
-42.17
-48.00
-50.63
-48.51
-40.97
-28.62
-13.19
2.93
17.47
28.82
36.31
40.00
40.36
37.95
33.35
27.29
20.82
15.19
11.55
10.49
11.82
14.56
17.39
19.16
19.37
18.28
16.62
15.12
14.07
13.18
11.81
9.36
5.68
1.12
-3.59
-7.74
-10.92
-13.15
-14.78
-16.35
-18.35
-21.21
-25.18
-30.29
-36.15
-41.86
-46.01
-46.97
-43.39
-34.79
-21.82
-6.21
9.74
23.83
34.56
41.34
44.42
44.50
42.34
38.64
34.05
29.22
24.94
21.93
20.70
21.30
23.28
25.81
27.89
28.76
28.04
25.90
22.88
19.70
16.86
14.47
12.23
9.66
6.41
2.45
-1.83
-5.89
-9.26
-11.81
-13.73
-15.49
-17.57
-20.37
-24.06
-28.60
-33.66
-38.61
-42.46
-43.98
-42.03
-35.92
-25.78
-12.67
1.60
14.98
25.76
32.98
36.55
37.02
35.16
31.68
27.11
21.99
16.94
12.78
10.27
9.80
11.15
13.58
16.04
17.69
18.11
17.46
16.17
14.67
13.11
11.38
9.17
6.30
2.73
-1.29
-5.44
-9.37
-12.96
-16.21
-19.20
-22.02
-24.68
-27.18
-29.61
-32.16
-35.11
-38.59
-42.27
-45.25
-46.21
-43.84
-37.36
-26.92
-13.75
0.23
12.98
22.96
29.40
32.33
32.32
30.12
26.49
22.11
17.67
13.81
11.05
9.67
9.56
10.36
11.51
12.51
13.04
13.01
12.47
11.49
10.08
8.17
5.73
2.81
-0.42
-3.77
-7.09
-10.27
-13.29
-16.17
-18.95
-21.74
-24.71
-28.03
-31.71
-35.46
-38.52
-39.87
-38.43
-33.58
-25.44
-14.92
-3.52
7.12
15.66
21.44
24.42
25.02
23.84
21.46
18.32
14.81
11.40
8.59
6.85
6.44
7.25
8.83
10.55
11.80
12.16
11.48
9.79
7.20
3.84
-0.17
-4.68
-9.47
-14.27
-18.76
-22.70
-25.97
-28.69
-31.23
-34.09
-37.72
-42.21
-47.07
-51.19
-53.08
-51.34
-45.23
-34.99
-21.89
-7.83
5.19
15.65
22.82
26.69
27.75
26.68
24.13
20.68
16.91
13.35
10.47
8.60
7.80
7.89
8.53
9.37
10.15
10.75
11.15
11.26
10.91
9.81
7.76
4.71
0.92
-3.15
-6.99
-10.26
-12.96
-15.45
-18.23
-21.82
-26.38
-31.62
-36.74
-40.53
-41.77
-39.46
-33.30
-23.74
-11.91
0.64
12.36
21.98
28.76
32.41
33.09
31.20
27.41
22.52
17.43
12.95
9.68
7.86
7.36
7.74
8.49
9.10
9.30
8.97
8.13
6.80
4.93
2.47
-0.59
-4.15
-8.00
-11.82
-15.35
-18.40
-21.01
-23.43
-26.05
-29.39
-33.68
-38.77
-43.85
-47.59
-48.44
-45.22
-37.56
-26.23
-12.87
0.48
12.01
20.63
26.00
28.35
28.26
26.28
22.96
18.88
14.69
11.11
8.72
7.79
8.24
9.61
11.29
12.70
13.42
13.27
12.24
10.45
8.02
5.09
1.76
-1.86
-5.61
-9.40
-13.11
-16.77
-20.42
-24.23
-28.38
-33.00
-38.06
-43.18
-47.54
-49.96
-49.14
-44.12
-34.73
-21.80
-7.06
7.36
19.55
28.30
33.27
34.85
33.82
31.03
27.30
23.32
19.73
17.05
15.62
15.52
16.46
18.01
19.65
20.95
21.67
21.68
20.98
19.51
17.23
14.10
10.15
5.55
0.62
-4.26
-8.73
-12.63
-16.07
-19.41
-23.19
-27.86
-33.56
-39.79
-45.39
-48.73
-48.23
-42.90
-32.84
-19.28
-4.23
10.17
22.23
31.07
36.48
38.72
38.22
35.45
31.03
25.79
20.73
16.79
14.50
13.84
14.26
14.92
15.08
14.31
12.63
10.34
7.77
5.11
2.23
-1.17
-5.45
-10.73
-16.83
-23.28
-29.51
-35.05
-39.83
-44.09
-48.39
-53.35
-59.42
-66.64
-74.42
-81.58
-86.41
-87.15
-82.50
-72.04
-56.48
-37.44
-17.03
2.76
20.43
35.17
46.70
55.06
60.45
63.16
63.66
62.59
60.78
59.02
57.93
57.68
58.08
58.53
58.36
57.09
54.54
50.99
46.92
42.84
38.98
35.25
31.33
26.84
21.64
15.85
9.87
4.14
-1.01
-5.51
-9.54
-13.51
-17.93
-23.18
-29.39
-36.21
-42.70
-47.53
-49.25
-46.84
-40.05
-29.58
-16.93
-3.91
7.84
17.23
23.81
27.64
29.07
28.48
26.28
22.96
19.15
15.62
13.19
12.46
13.61
16.31
19.78
23.10
25.56
26.83
27.06
26.61
25.86
24.96
23.82
22.18
19.87
16.88
13.42
9.86
6.49
3.52
0.96
-1.41
-3.91
-6.97
-10.86
-15.66
-21.02
-26.20
-30.17
-31.80
-30.29
-25.42
-17.72
-8.36
1.10
9.17
14.81
17.57
17.57
15.30
11.42
6.58
1.38
-3.61
-7.83
-10.80
-12.19
-11.98
-10.46
-8.13
-5.60
-3.35
-1.64
-0.49
0.17
0.45
0.27
-0.53
-2.15
-4.62
-7.73
-11.07
-14.22
-16.93
-19.19
-21.32
-23.74
-26.83
-30.82
-35.61
-40.76
-45.42
-48.46
-48.60
-44.87
-36.89
-25.22
-11.25
3.05
15.71
25.28
31.13
33.42
32.89
30.41
26.79
22.63
18.38
14.51
11.47
9.63
9.21
10.08
11.83
13.78
15.24
15.74
15.06
13.32
10.77
7.74
4.42
0.86
-2.93
-6.91
-10.92
-14.74
-18.21
-21.44
-24.83
-28.97
-34.12
-39.94
-45.20
-48.15
-47.06
-40.99
-30.22
-16.23
-1.22
12.63
23.77
31.49
35.81
37.20
36.24
33.53
29.66
25.27
21.06
17.62
15.31
14.16
13.92
14.22
14.72
15.22
15.60
15.75
15.52
14.67
13.04
10.58
7.44
3.89
0.25
-3.32
-6.81
-10.31
-14.04
-18.17
-22.83
-28.00
-33.33
-38.12
-41.22
-41.36
-37.55
-29.53
-18.04
-4.66
8.59
19.92
28.19
33.02
34.71
33.90
31.27
27.50
23.22
18.97
15.25
12.40
10.56
9.72
9.75
10.39
11.37
12.33
12.84
12.50
11.02
8.35
4.67
0.40
-3.94
-7.85
-11.01
-13.39
-15.23
-17.02
-19.36
-22.76
-27.43
-33.07
-38.80
-43.29
-45.02
-42.69
-35.76
-24.60
-10.53
4.52
18.56
30.07
38.22
42.89
44.43
43.39
40.36
35.97
31.00
26.34
22.86
21.13
21.18
22.48
24.14
25.30
25.46
24.64
23.21
21.70
20.36
19.10
17.52
15.19
11.85
7.62
2.91
-1.73
-5.85
-9.34
-12.35
-15.29
-18.62
-22.65
-27.37
-32.36
-36.81
-39.69
-39.96
-36.94
-30.52
-21.27
-10.32
0.91
11.09
19.17
24.58
27.16
27.11
24.85
21.01
16.31
11.52
7.39
4.50
3.14
3.28
4.55
6.30
7.84
8.61
8.39
7.29
5.62
3.69
1.62
-0.71
-3.54
-7.01
-11.03
-15.27
-19.26
-22.70
-25.61
-28.38
-31.67
-36.09
-41.77
-48.17
-53.98
-57.42
-56.79
-51.07
-40.38
-26.01
-10.03
5.38
18.43
28.17
34.42
37.48
37.90
36.17
32.81
28.45
23.86
19.94
17.46
16.89
18.14
20.66
23.55
25.95
27.31
27.54
26.92
25.89
24.67
23.19
21.19
18.39
14.75
10.54
6.23
2.25
-1.15
-4.04
-6.70
-9.48
-12.65
-16.29
-20.28
-24.32
-27.87
-30.27
-30.83
-29.00
-24.57
-17.81
-9.48
-0.64
7.60
14.25
18.66
20.56
20.05
17.48
13.44
8.58
3.57
-1.00
-4.72
-7.42
-9.17
-10.19
-10.78
-11.15
-11.39
-11.54
-11.58
-11.59
-11.72
-12.19
-13.16
-14.67
-16.60
-18.70
-20.73
-22.50
-23.99
-25.32
-26.71
-28.38
-30.50
-33.15
-36.15
-39.08
-41.21
-41.64
-39.49
-34.25
-25.97
-15.41
-3.83
7.31
16.79
23.86
28.32
30.40
30.48
28.95
26.20
22.58
18.58
14.75
11.64
9.64
8.86
9.13
10.08
11.23
12.18
12.60
12.32
11.31
9.62
7.37
4.77
1.97
-0.85
-3.65
-6.44
-9.34
-12.50
-16.07
-20.07
-24.32
-28.38
-31.50
-32.82
-31.56
-27.32
-20.29
-11.34
-1.76
7.03
13.92
18.35
20.32
20.26
18.77
16.43
13.63
10.68
7.83
5.33
3.45
2.42
2.34
3.07
4.34
5.69
6.68
6.99
6.50
5.28
3.50
1.35
-1.03
-3.59
-6.30
-9.17
-12.20
-15.51
-19.26
-23.57
-28.35
-33.15
-37.05
-38.90
-37.60
-32.58
-24.02
-12.91
-0.82
10.60
20.00
26.61
30.23
31.11
29.72
26.60
22.32
17.46
12.67
8.53
5.48
3.73
3.22
3.62
4.45
5.19
5.43
4.89
3.53
1.46
-1.10
-3.93
-6.89
-9.97
-13.20
-16.69
-20.47
-24.62
-29.19
-34.27
-39.77
-45.37
-50.37
-53.69
-54.18
-50.94
-43.82
-33.53
-21.61
-10.02
-0.55
5.61
8.14
7.47
4.45
-0.06
-5.37
-11.04
-16.64
-21.68
-25.63
-28.05
-28.82
-28.19
-26.74
-25.13
-23.82
-23.00
-22.49
-21.98
-21.08
-19.55
-17.29
-14.37
-10.97
-7.37
-3.93
-1.05
0.87
1.48
0.69
-1.11
-2.94
-3.35
-0.86
5.53
15.83
28.99
43.23
56.58
67.51
75.19
79.47
80.67
79.26
75.81
70.89
65.17
59.42
54.35
50.56
48.37
47.80
48.56
50.11
51.81
53.02
53.29
52.35
50.23
47.19
43.77
40.72
38.87
38.76
40.25
42.21
42.61
39.10
29.92
14.69
-5.17
-26.71
-46.29
-60.64
-67.67
-66.89
-59.26
-46.76
-31.81
-16.77
-3.58
6.31
12.05
13.51
11.21
6.36
0.59
-4.42
-7.38
-7.76
-5.84
-2.49
1.30
4.77
7.60
9.79
11.50
12.80
13.61
13.77
13.17
11.88
10.16
8.40
7.02
6.25
6.07
6.17
6.11
5.43
3.89
1.52
-1.40
-4.45
-7.14
-8.92
-9.31
-7.84
-4.37
0.87
7.09
13.17
17.84
20.15
19.71
16.80
12.23
7.06
2.27
-1.48
-3.92
-5.15
-5.41
-4.90
-3.74
-1.96
0.33
2.79
4.90
6.04
5.87
4.46
2.33
0.30
-0.81
-0.51
1.23
4.02
7.25
10.42
13.35
16.32
20.07
25.55
33.82
45.69
61.45
80.45
100.85
119.66
133.41
139.05
135.10
122.28
103.36
82.29
62.73
47.04
35.74
27.90
21.83
15.81
8.32
-2.14
-17.13
-38.04
-65.35
-97.82
-132.07
-163.21
-186.17
-197.49
-196.52
-185.56
-168.77
-150.58
-134.26
-121.24
-111.39
-103.80
-97.48
-91.78
-86.25
-80.47
-73.86
-65.88
-56.22
-45.12
-33.27
-21.72
-11.40
-2.89
3.70
8.68
12.49
15.54
18.01
19.90
21.11
21.62
21.54
21.07
20.44
19.82
19.30
18.85
18.51
18.25
18.08
17.93
17.65
17.07
16.06
14.64
12.95
11.17
9.46
7.83
6.22
4.44
2.39
-0.01
-2.71
-5.54
-8.18
-10.20
-11.13
-10.58
-8.41
-4.77
-0.18
4.61
8.84
11.93
13.64
14.05
13.51
12.44
11.17
9.82
8.37
6.77
5.09
3.52
2.33
1.76
1.82
2.32
2.87
3.11
2.80
1.90
0.56
-1.03
-2.69
-4.36
-6.07
-7.87
-9.79
-11.83
-13.97
-16.21
-18.57
-21.03
-23.47
-25.59
-26.82
-26.53
-24.20
-19.65
-13.16
-5.49
2.37
9.39
14.81
18.22
19.57
19.07
17.15
14.38
11.28
8.41
6.14
4.71
4.12
4.28
4.96
5.92
6.88
7.54
7.68
7.18
6.03
4.33
2.24
-0.05
-2.35
-4.48
-6.34
-7.92
-9.40
-11.08
-13.30
-16.25
-19.83
-23.52
-26.52
-27.94
-27.03
-23.43
-17.30
-9.29
-0.41
8.16
15.36
20.50
23.32
24.06
23.23
21.48
19.35
17.17
15.08
13.13
11.35
9.83
8.73
8.16
8.15
8.50
8.93
9.10
8.76
7.82
6.35
4.45
2.19
-0.43
-3.41
-6.68
-10.10
-13.45
-16.55
-19.42
-22.16
-24.91
-27.67
-30.16
-31.84
-32.00
-30.04
-25.66
-19.05
-10.85
-2.11
6.09
12.81
17.49
20.00
20.60
19.75
18.03
15.96
14.00
12.50
11.70
11.67
12.30
13.36
14.48
15.32
15.65
15.37
14.51
13.16
11.39
9.24
6.72
3.88
0.88
-1.99
-4.47
-6.43
-8.00
-9.58
-11.62
-14.39
-17.71
-20.89
-22.95
-22.92
-20.25
-15.04
-7.99
-0.15
7.40
13.75
18.36
21.01
21.80
21.02
19.13
16.65
14.05
11.70
9.84
8.58
7.94
7.83
8.06
8.40
8.63
8.56
8.16
7.51
6.69
5.77
4.67
3.24
1.39
-0.93
-3.61
-6.41
-9.06
-11.40
-13.35
-15.04
-16.66
-18.31
-19.89
-20.98
-20.96
-19.24
-15.48
-9.82
-2.85
4.52
11.40
17.07
21.14
23.47
24.14
23.34
21.36
18.55
15.31
12.08
9.28
7.18
5.91
5.41
5.46
5.76
6.01
6.01
5.67
4.97
3.95
2.65
1.08
-0.73
-2.66
-4.60
-6.44
-8.17
-9.92
-11.91
-14.29
-17.03
-19.79
-21.96
-22.86
-21.94
-19.01
-14.28
-8.37
-2.05
3.90
8.85
12.44
14.46
14.92
13.97
11.93
9.26
6.44
3.92
1.99
0.74
0.14
0.07
0.39
0.90
1.37
1.50
1.07
-0.04
-1.72
-3.74
-5.79
-7.66
-9.27
-10.67
-11.98
-13.36
-15.01
-17.09
-19.66
-22.55
-25.24
-26.96
-26.85
-24.34
-19.36
-12.46
-4.63
2.95
9.31
13.79
16.21
16.74
15.75
13.78
11.30
8.71
6.29
4.18
2.43
1.07
0.13
-0.38
-0.48
-0.34
-0.23
-0.54
-1.60
-3.54
-6.25
-9.36
-12.38
-15.01
-17.19
-19.33
-21.99
-25.65
-30.41
-35.84
-41.05
-44.98
-46.70
-45.72
-42.02
-36.07
-28.69
-20.87
-13.59
-7.72
-3.78
-2.02
-2.37
-4.53
-8.06
-12.40
-16.97
-21.11
-24.18
-25.67
-25.25
-22.85
-18.65
-13.05
-6.55
0.28
6.96
13.11
18.47
22.87
26.22
28.42
29.36
28.99
27.26
24.17
19.78
14.27
8.09
2.00
-2.91
-5.48
-4.74
-0.36
7.17
16.63
26.34
34.72
40.68
43.79
44.24
42.59
39.46
35.43
30.99
26.59
22.71
19.72
17.86
17.07
17.13
17.60
18.03
18.04
17.34
15.79
13.40
10.35
6.96
3.59
0.50
-2.20
-4.64
-7.11
-9.89
-13.25
-17.32
-22.02
-26.98
-31.47
-34.40
-34.55
-30.98
-23.44
-12.65
-0.18
12.01
22.11
28.99
32.41
32.82
31.11
28.18
24.80
21.50
18.68
16.58
15.34
14.88
15.00
15.32
15.49
15.25
14.49
13.18
11.34
9.02
6.21
2.95
-0.68
-4.58
-8.60
-12.60
-16.48
-20.13
-23.53
-26.76
-30.10
-33.94
-38.54
-43.74
-48.75
-52.16
-52.36
-48.17
-39.36
-26.89
-12.67
1.08
12.49
20.57
25.15
26.71
25.93
23.42
19.73
15.48
11.47
8.65
7.77
9.07
12.08
15.74
18.81
20.37
20.19
18.70
16.61
14.57
12.82
11.17
9.24
6.72
3.59
0.11
-3.35
-6.52
-9.32
-11.86
-14.28
-16.76
-19.44
-22.51
-26.27
-30.89
-36.27
-41.68
-45.78
-46.88
-43.53
-35.18
-22.54
-7.43
7.79
21.02
30.94
37.18
40.08
40.23
38.15
34.29
29.20
23.71
18.87
15.72
14.89
16.35
19.35
22.77
25.47
26.74
26.36
24.63
22.08
19.25
16.47
13.83
11.20
8.39
5.19
1.55
-2.43
-6.49
-10.30
-13.57
-16.18
-18.28
-20.18
-22.34
-25.15
-28.90
-33.59
-38.87
-43.91
-47.47
-48.16
-44.83
-37.00
-25.19
-10.84
4.04
17.51
28.12
35.21
38.78
39.28
37.32
33.56
28.73
23.68
19.27
16.30
15.27
16.23
18.73
21.97
25.05
27.22
28.11
27.79
26.60
25.04
23.43
21.82
19.97
17.49
14.10
9.79
4.87
-0.14
-4.67
-8.37
-11.21
-13.50
-15.76
-18.57
-22.31
-27.04
-32.33
-37.27
-40.60
-40.97
-37.39
-29.54
-18.04
-4.29
9.83
22.52
32.50
39.13
42.41
42.75
40.72
37.00
32.33
27.56
23.52
20.87
19.85
20.23
21.33
22.37
22.69
22.02
20.46
18.38
16.13
13.89
11.59
8.99
5.89
2.21
-1.90
-6.10
-10.00
-13.32
-16.00
-18.18
-20.14
-22.28
-24.91
-28.24
-32.27
-36.71
-40.89
-43.91
-44.69
-42.40
-36.70
-27.95
-17.16
-5.72
4.94
13.75
20.15
24.04
25.60
25.23
23.31
20.33
16.87
13.57
11.09
9.86
9.97
11.11
12.65
13.90
14.32
13.75
12.40
10.66
8.86
7.08
5.08
2.53
-0.79
-4.78
-9.03
-13.03
-16.40
-19.06
-21.30
-23.59
-26.45
-30.19
-34.85
-40.11
-45.25
-49.17
-50.61
-48.44
-42.02
-31.54
-18.02
-3.10
11.45
24.10
33.91
40.54
44.09
44.96
43.70
40.97
37.55
34.21
31.60
30.12
29.74
30.15
30.89
31.51
31.76
31.59
31.05
30.18
28.95
27.25
24.95
22.02
18.51
14.57
10.46
6.41
2.64
-0.69
-3.57
-6.17
-8.79
-11.83
-15.61
-20.19
-25.21
-29.85
-33.03
-33.73
-31.35
-25.98
-18.33
-9.59
-0.99
6.48
12.23
16.04
17.95
18.08
16.60
13.85
10.30
6.65
3.58
1.59
0.85
1.17
2.17
3.36
4.43
5.22
5.75
6.09
6.24
6.11
5.52
4.30
2.39
-0.10
-2.90
-5.67
-8.13
-10.16
-11.85
-13.48
-15.39
-17.88
-21.10
-24.97
-29.11
-32.84
-35.29
-35.54
-33.03
-27.68
-20.06
-11.23
-2.41
5.32
11.29
15.24
17.20
17.34
15.88
13.09
9.38
5.31
1.55
-1.30
-2.92
-3.35
-2.97
-2.29
-1.76
-1.56
-1.59
-1.59
-1.35
-0.90
-0.57
-0.81
-1.93
-3.93
-6.46
-8.95
-10.93
-12.24
-13.14
-14.14
-15.77
-18.27
-21.43
-24.69
-27.20
-28.12
-26.83
-23.10
-17.16
-9.60
-1.24
7.03
14.41
20.35
24.49
26.70
27.04
25.75
23.17
19.81
16.22
12.93
10.33
8.58
7.63
7.24
7.15
7.14
7.10
6.98
6.78
6.41
5.76
4.69
3.10
0.99
-1.53
-4.19
-6.70
-8.86
-10.62
-12.20
-13.98
-16.36
-19.54
-23.26
-26.85
-29.40
-30.01
-28.17
-23.88
-17.63
-10.29
-2.78
4.06
9.60
13.49
15.61
16.07
15.14
13.23
10.75
8.11
5.63
3.52
1.92
0.88
0.35
0.19
0.25
0.33
0.30
0.02
-0.58
-1.55
-2.98
-4.83
-7.02
-9.36
-11.67
-13.86
-16.06
-18.57
-21.71
-25.65
-30.15
-34.57
-37.89
-39.12
-37.48
-32.69
-25.07
-15.52
-5.22
4.60
12.88
18.99
22.64
23.95
23.23
20.98
17.77
14.21
10.85
8.09
6.14
4.97
4.44
4.36
4.59
4.96
5.27
5.21
4.50
2.91
0.46
-2.57
-5.77
-8.80
-11.50
-13.99
-16.63
-19.86
-23.99
-29.04
-34.55
-39.61
-43.00
-43.49
-40.24
-33.15
-22.94
-11.02
0.92
11.33
19.16
24.00
26.00
25.66
23.66
20.66
17.26
13.91
10.96
8.64
7.12
6.46
6.60
7.39
8.51
9.57
10.11
9.79
8.47
6.23
3.37
0.22
-2.97
-6.17
-9.50
-13.20
-17.45
-22.28
-27.60
-33.14
-38.40
-42.73
-45.26
-45.00
-41.16
-33.42
-22.19
-8.68
5.32
17.93
27.64
33.64
35.96
35.21
32.36
28.39
24.14
20.21
17.03
14.82
13.68
13.56
14.25
15.38
16.52
17.18
17.02
15.83
13.65
10.67
7.19
3.47
-0.29
-4.00
-7.67
-11.33
-15.09
-19.11
-23.65
-28.92
-34.87
-40.99
-46.20
-49.02
-48.03
-42.36
-32.16
-18.60
-3.57
10.89
23.16
32.30
38.10
40.79
40.87
38.87
35.42
31.27
27.22
23.99
22.05
21.44
21.83
22.69
23.51
23.96
23.99
23.63
22.88
21.65
19.72
16.87
13.07
8.46
3.37
-1.78
-6.61
-10.89
-14.56
-17.75
-20.78
-24.13
-28.26
-33.50
-39.68
-46.00
-51.06
-53.18
-50.92
-43.69
-32.02
-17.47
-2.18
11.77
22.87
30.42
34.44
35.40
33.91
30.63
26.25
21.57
17.44
14.62
13.57
14.29
16.27
18.70
20.74
21.79
21.66
20.54
18.80
16.76
14.54
12.00
8.87
4.94
0.26
-4.88
-9.98
-14.60
-18.55
-21.97
-25.35
-29.31
-34.34
-40.53
-47.36
-53.70
-58.06
-58.93
-55.35
-47.26
-35.60
-22.11
-8.74
2.79
11.39
16.63
18.57
17.55
14.00
8.48
1.78
-5.10
-11.07
-15.19
-16.94
-16.32
-13.76
-9.92
-5.37
-0.47
4.65
9.98
15.44
20.73
25.47
29.23
31.72
32.90
32.91
32.01
30.45
28.36
25.73
22.40
18.15
12.73
6.11
-1.41
-9.00
-15.28
-18.58
-17.51
-11.43
-0.83
12.71
26.93
39.61
49.12
54.78
56.72
55.61
52.26
47.41
41.71
35.83
30.48
26.31
23.75
22.83
23.13
23.93
24.47
24.28
23.24
21.58
19.59
17.43
15.03
12.16
8.60
4.31
-0.55
-5.63
-10.54
-15.01
-18.91
-22.35
-25.59
-29.05
-33.08
-37.87
-43.09
-47.83
-50.73
-50.34
-45.72
-36.80
-24.57
-10.74
2.75
14.27
22.83
28.09
30.23
29.70
27.10
23.11
18.55
14.24
10.97
9.20
9.04
10.13
11.84
13.44
14.42
14.60
14.13
13.33
12.41
11.33
9.81
7.48
4.19
0.10
-4.30
-8.48
-12.09
-15.09
-17.76
-20.49
-23.65
-27.48
-32.07
-37.28
-42.69
-47.44
-50.30
-49.95
-45.35
-36.37
-23.90
-9.71
4.12
15.82
24.44
29.85
32.48
32.89
31.52
28.71
24.84
20.51
16.53
13.72
12.57
13.02
14.55
16.35
17.75
18.39
18.32
17.78
17.02
16.00
14.48
12.12
8.73
4.42
-0.39
-5.12
-9.31
-12.76
-15.60
-18.17
-20.85
-23.95
-27.65
-32.01
-36.88
-41.86
-46.15
-48.59
-47.90
-43.17
-34.25
-22.01
-8.10
5.46
16.96
25.38
30.44
32.45
31.93
29.44
25.51
20.68
15.60
10.97
7.44
5.40
4.92
5.70
7.27
9.06
10.63
11.71
12.17
12.02
11.29
10.02
8.17
5.70
2.64
-0.89
-4.64
-8.31
-11.62
-14.51
-17.15
-19.94
-23.41
-27.88
-33.24
-38.75
-43.13
-44.89
-42.79
-36.35
-26.05
-13.26
0.16
12.39
22.07
28.56
31.85
32.40
30.80
27.66
23.54
18.98
14.54
10.74
7.99
6.52
6.25
6.89
7.95
8.96
9.53
9.42
8.55
6.96
4.78
2.17
-0.72
-3.76
-6.88
-10.03
-13.27
-16.67
-20.40
-24.64
-29.57
-35.14
-40.92
-45.98
-48.98
-48.50
-43.56
-34.07
-21.00
-6.17
8.25
20.39
29.05
33.92
35.33
34.01
30.79
26.46
21.74
17.28
13.65
11.20
10.06
10.10
10.99
12.29
13.54
14.35
14.44
13.65
11.99
9.59
6.64
3.31
-0.36
-4.38
-8.73
-13.31
-17.91
-22.40
-26.83
-31.51
-36.68
-42.25
-47.43
-50.83
-50.83
-46.27
-36.98
-24.01
-9.24
5.12
17.27
26.13
31.36
33.20
32.17
28.95
24.37
19.37
14.94
11.90
10.67
11.12
12.68
14.54
16.02
16.74
16.71
16.09
15.03
13.54
11.47
8.66
5.12
1.04
-3.25
-7.43
-11.32
-14.99
-18.69
-22.78
-27.59
-33.24
-39.49
-45.58
-50.23
-51.89
-49.19
-41.52
-29.35
-14.27
1.45
15.46
26.06
32.49
34.91
34.09
31.04
26.70
21.91
17.35
13.61
11.18
10.30
10.88
12.56
14.71
16.74
18.19
18.87
18.80
18.03
16.57
14.29
11.01
6.70
1.54
-4.02
-9.45
-14.29
-18.38
-21.92
-25.37
-29.31
-34.19
-40.07
-46.44
-52.19
-55.75
-55.50
-50.32
-40.07
-25.78
-9.41
6.67
20.41
30.46
36.43
38.63
37.75
34.59
29.98
24.77
19.88
16.23
14.53
15.01
17.33
20.57
23.63
25.54
25.82
24.60
22.44
20.03
17.82
15.87
13.85
11.25
7.70
3.11
-2.18
-7.65
-12.73
-17.07
-20.65
-23.77
-26.99
-30.89
-35.92
-42.15
-49.09
-55.58
-60.01
-60.64
-56.25
-46.58
-32.56
-16.11
0.49
15.20
26.69
34.43
38.42
38.99
36.55
31.74
25.46
18.92
13.45
10.08
9.24
10.63
13.37
16.40
18.81
20.12
20.30
19.66
18.56
17.26
15.81
14.03
11.64
8.38
4.21
-0.68
-5.85
-10.81
-15.22
-18.99
-22.30
-25.57
-29.25
-33.76
-39.34
-45.90
-52.84
-59.02
-62.84
-62.64
-57.25
-46.50
-31.46
-14.18
2.93
17.81
29.23
36.87
41.02
42.29
41.29
38.60
34.87
30.93
27.71
26.06
26.39
28.52
31.68
34.82
37.01
37.70
36.93
35.15
32.90
30.55
28.12
25.35
21.93
17.69
12.77
7.52
2.38
-2.35
-6.56
-10.36
-14.00
-17.77
-21.96
-26.84
-32.61
-39.21
-46.14
-52.31
-56.10
-55.81
-50.24
-39.26
-23.98
-6.53
10.61
25.27
36.11
42.71
45.43
44.93
42.02
37.44
31.96
26.42
21.70
18.57
17.45
18.26
20.38
22.86
24.81
25.67
25.36
24.22
22.72
21.13
19.43
17.26
14.25
10.23
5.33
0.05
-5.01
-9.38
-12.87
-15.65
-18.24
-21.23
-25.15
-30.18
-35.91
-41.29
-44.83
-44.92
-40.43
-31.13
-17.87
-2.40
13.14
26.85
37.49
44.57
48.22
48.86
47.01
43.27
38.32
32.95
28.05
24.30
22.01
21.01
20.78
20.63
20.03
18.72
16.78
14.46
12.05
9.67
7.33
4.90
2.26
-0.65
-3.73
-6.78
-9.58
-11.95
-13.93
-15.77
-17.88
-20.69
-24.42
-28.99
-33.87
-38.16
-40.74
-40.59
-37.18
-30.61
-21.74
-11.92
-2.65
4.91
10.14
13.00
13.75
12.79
10.54
7.42
4.00
0.95
-1.06
-1.62
-0.74
1.09
3.23
5.07
6.29
6.87
6.91
6.46
5.40
3.52
0.67
-3.08
-7.34
-11.63
-15.49
-18.72
-21.51
-24.31
-27.66
-31.99
-37.41
-43.65
-50.01
-55.38
-58.47
-58.00
-53.13
-43.77
-30.73
-15.62
-0.46
12.84
22.96
29.30
32.01
31.67
29.07
25.06
20.51
16.30
13.23
11.86
12.29
14.15
16.65
18.90
20.21
20.31
19.30
17.51
15.22
12.52
9.33
5.49
1.01
-3.91
-8.87
-13.46
-17.41
-20.70
-23.59
-26.54
-30.08
-34.65
-40.41
-47.08
-53.82
-59.26
-61.76
-59.84
-52.72
-40.63
-24.95
-7.83
8.36
21.64
30.85
35.78
36.91
35.14
31.53
27.05
22.62
19.01
16.81
16.26
17.25
19.27
21.61
23.63
24.87
25.27
24.96
24.15
22.96
21.38
19.27
16.43
12.71
8.04
2.58
-3.31
-9.10
-14.22
-18.30
-21.36
-23.90
-26.72
-30.67
-36.17
-42.96
-49.91
-55.27
-57.09
-53.90
-45.26
-31.95
-15.80
0.84
15.84
27.71
35.83
40.25
41.40
39.84
36.26
31.44
26.40
22.19
19.65
19.19
20.62
23.25
26.11
28.33
29.36
29.08
27.75
25.79
23.63
21.49
19.38
17.11
14.43
11.10
7.03
2.32
-2.79
-7.95
-12.87
-17.30
-21.15
-24.47
-27.51
-30.67
-34.43
-39.14
-44.76
-50.57
-55.15
-56.76
-53.86
-45.85
-33.30
-17.91
-1.88
12.76
24.65
33.22
38.41
40.45
39.60
36.31
31.30
25.63
20.60
17.31
16.33
17.58
20.34
23.61
26.51
28.46
29.29
29.12
28.19
26.74
24.88
22.64
19.95
16.73
12.95
8.64
3.92
-0.99
-5.79
-10.18
-13.91
-16.90
-19.28
-21.45
-23.93
-27.25
-31.60
-36.70
-41.62
-45.00
-45.36
-41.69
-33.75
-22.27
-8.74
5.03
17.41
27.21
33.88
37.32
37.77
35.65
31.48
26.02
20.16
14.85
10.91
8.83
8.63
9.89
11.92
13.94
15.32
15.72
15.14
13.81
12.10
10.24
8.31
6.15
3.55
0.35
-3.39
-7.37
-11.23
-14.68
-17.68
-20.40
-23.20
-26.49
-30.52
-35.31
-40.48
-45.29
-48.70
-49.57
-46.97
-40.56
-30.73
-18.57
-5.61
6.58
16.71
24.05
28.35
29.78
28.78
25.97
22.03
17.66
13.54
10.24
8.07
7.15
7.30
8.17
9.31
10.35
11.03
11.20
10.79
9.74
7.99
5.52
2.39
-1.26
-5.23
-9.30
-13.30
-17.13
-20.76
-24.22
-27.67
-31.38
-35.52
-39.95
-43.98
-46.40
-45.79
-41.12
-32.31
-20.34
-7.04
5.54
15.78
22.85
26.74
27.96
27.14
24.85
21.47
17.44
13.25
9.53
6.83
5.50
5.57
6.72
8.42
10.03
10.99
10.92
9.71
7.48
4.51
1.15
-2.37
-5.91
-9.48
-13.16
-17.08
-21.32
-25.99
-31.16
-36.78
-42.50
-47.55
-50.76
-50.86
-46.86
-38.56
-26.69
-12.77
1.27
13.69
23.29
29.63
32.87
33.52
32.23
29.57
26.08
22.27
18.69
15.89
14.29
14.06
15.01
16.60
18.15
19.03
18.83
17.46
15.07
11.91
8.20
4.02
-0.59
-5.50
-10.53
-15.40
-20.01
-24.48
-29.22
-34.58
-40.47
-46.04
-49.77
-49.91
-45.15
-35.28
-21.39
-5.57
9.78
22.69
32.08
37.78
40.27
40.30
38.53
35.59
32.02
28.44
25.46
23.60
23.07
23.73
25.12
26.63
27.68
27.86
26.97
24.98
21.99
18.18
13.76
8.95
4.01
-0.83
-5.39
-9.54
-13.35
-17.05
-21.07
-25.88
-31.78
-38.50
-45.15
-50.16
-51.81
-48.81
-40.83
-28.76
-14.39
0.09
12.77
22.45
28.70
31.70
31.89
29.84
26.25
21.97
18.00
15.25
14.31
15.13
17.09
19.27
20.82
21.35
20.99
20.19
19.34
18.57
17.59
15.92
13.18
9.29
4.58
-0.41
-5.13
-9.31
-12.99
-16.50
-20.25
-24.66
-29.91
-35.92
-42.15
-47.64
-51.09
-51.12
-46.75
-37.78
-25.05
-10.30
4.33
16.90
26.16
31.75
34.02
33.67
31.41
27.85
23.56
19.24
15.69
13.70
13.69
15.54
18.52
21.53
23.53
23.94
22.78
20.57
18.05
15.79
13.89
12.02
9.61
6.24
1.92
-2.89
-7.50
-11.30
-14.13
-16.34
-18.60
-21.55
-25.52
-30.40
-35.76
-40.98
-45.26
-47.68
-47.20
-42.99
-34.75
-23.03
-9.25
4.66
16.92
26.33
32.48
35.59
36.15
34.66
31.56
27.41
22.92
18.94
16.24
15.26
15.93
17.76
19.96
21.76
22.63
22.42
21.28
19.59
17.71
15.82
13.86
11.59
8.78
5.27
1.19
-3.18
-7.47
-11.36
-14.70
-17.49
-19.86
-22.05
-24.35
-27.05
-30.42
-34.54
-39.17
-43.65
-46.91
-47.72
-45.06
-38.53
-28.61
-16.59
-4.17
6.99
15.77
21.71
24.91
25.75
24.66
22.02
18.27
14.00
9.97
6.95
5.52
5.76
7.35
9.57
11.71
13.26
14.10
14.43
14.52
14.57
14.47
13.90
12.45
9.90
6.32
2.12
-2.11
-5.84
-8.81
-11.10
-13.05
-15.13
-17.73
-21.07
-25.05
-29.37
-33.42
-36.39
-37.39
-35.58
-30.54
-22.39
-11.98
-0.65
10.09
18.99
25.35
29.07
30.48
30.07
28.31
25.57
22.21
18.71
15.58
13.34
12.23
12.22
12.94
13.94
14.78
15.24
15.30
15.05
14.59
13.89
12.83
11.17
8.77
5.64
2.07
-1.46
-4.50
-6.79
-8.45
-9.94
-11.82
-14.44
-17.75
-21.27
-24.21
-25.83
-25.55
-23.17
-18.78
-12.77
-5.68
1.79
8.87
14.82
19.02
21.19
21.37
19.95
17.53
14.77
12.23
10.20
8.74
7.69
6.79
5.78
4.58
3.17
1.62
-0.08
-2.02
-4.37
-7.23
-10.61
-14.39
-18.42
-22.58
-26.89
-31.38
-36.06
-40.83
-45.60
-50.24
-54.75
-59.08
-63.14
-66.57
-68.77
-68.95
-66.33
-60.44
-51.34
-39.59
-26.21
-12.39
0.77
12.50
22.42
30.48
36.86
41.79
45.43
47.88
49.19
49.43
48.68
47.10
44.88
42.28
39.52
36.81
34.27
31.94
29.76
27.61
25.33
22.80
19.96
16.79
13.40
9.88
6.38
3.02
-0.14
-3.10
-5.91
-8.58
-11.04
-13.07
-14.36
-14.54
-13.40
-10.91
-7.39
-3.36
0.52
3.69
5.78
6.63
6.31
5.02
3.06
0.74
-1.60
-3.68
-5.29
-6.29
-6.70
-6.60
-6.13
-5.46
-4.79
-4.33
-4.31
-4.89
-6.15
-7.98
-10.15
-12.36
-14.36
-16.07
-17.54
-18.94
-20.48
-22.29
-24.48
-27.08
-29.99
-32.98
-35.54
-36.92
-36.27
-32.88
-26.53
-17.70
-7.46
2.73
11.52
17.94
21.67
22.90
22.20
20.28
17.77
15.23
13.03
11.43
10.52
10.26
10.45
10.86
11.21
11.33
11.12
10.50
9.44
7.91
5.88
3.35
0.46
-2.65
-5.77
-8.77
-11.62
-14.39
-17.26
-20.44
-24.10
-28.36
-33.06
-37.75
-41.55
-43.33
-42.04
-37.10
-28.68
-17.73
-5.76
5.63
15.12
21.91
25.78
26.93
25.88
23.27
19.81
16.15
12.88
10.36
8.82
8.22
8.41
9.11
10.02
10.84
11.33
11.32
10.64
9.22
7.04
4.23
0.99
-2.38
-5.64
-8.70
-11.63
-14.68
-18.19
-22.49
-27.70
-33.62
-39.60
-44.53
-47.03
-45.79
-40.08
-30.09
-17.00
-2.69
10.80
21.84
29.53
33.79
35.03
33.95
31.19
27.38
23.09
18.93
15.50
13.32
12.61
13.21
14.65
16.31
17.58
18.09
17.68
16.32
14.11
11.10
7.44
3.29
-1.05
-5.24
-9.04
-12.39
-15.55
-18.97
-23.24
-28.72
-35.29
-42.17
-47.93
-50.88
-49.53
-43.18
-32.22
-18.06
-2.76
11.57
23.34
31.66
36.36
37.76
36.42
33.07
28.55
23.83
19.84
17.29
16.47
17.14
18.72
20.49
21.89
22.64
22.72
22.19
21.03
19.11
16.31
12.62
8.27
3.57
-1.15
-5.67
-9.96
-14.04
-18.06
-22.22
-26.84
-32.23
-38.50
-45.19
-51.15
-54.66
-53.93
-47.87
-36.56
-21.38
-4.65
11.15
24.06
33.04
37.97
39.33
37.92
34.53
30.02
25.24
21.08
18.26
17.23
17.94
19.84
22.02
23.55
23.82
22.75
20.77
18.49
16.35
14.35
12.03
8.78
4.27
-1.32
-7.30
-12.75
-17.03
-20.09
-22.49
-25.16
-28.96
-34.36
-41.13
-48.32
-54.39
-57.54
-56.22
-49.56
-37.80
-22.30
-5.21
11.14
24.85
34.88
41.02
43.66
43.46
41.10
37.29
32.84
28.69
25.72
24.52
25.18
27.20
29.72
31.80
32.82
32.60
31.39
29.63
27.69
25.64
23.26
20.21
16.25
11.45
6.20
1.05
-3.54
-7.38
-10.69
-13.91
-17.60
-22.21
-27.87
-34.41
-41.20
-47.23
-51.18
-51.69
-47.80
-39.29
-26.96
-12.44
2.18
15.01
24.71
30.75
33.28
32.85
30.20
26.14
21.49
17.03
13.46
11.21
10.37
10.71
11.70
12.78
13.54
13.79
13.56
13.03
12.33
11.40
10.07
8.02
5.09
1.31
-3.01
-7.41
-11.46
-14.91
-17.78
-20.35
-23.07
-26.41
-30.64
-35.65
-40.78
-44.79
-46.16
-43.53
-36.22
-24.65
-10.27
4.80
18.44
29.06
35.93
39.15
39.30
37.15
33.43
28.84
24.05
19.75
16.58
14.95
14.88
15.99
17.64
19.08
19.77
19.42
18.01
15.64
12.49
8.70
4.40
-0.21
-4.92
-9.49
-13.72
-17.54
-21.09
-24.66
-28.70
-33.61
-39.43
-45.62
-50.97
-53.82
-52.55
-46.23
-35.05
-20.35
-4.29
10.80
23.09
31.56
36.10
37.24
35.83
32.74
28.75
24.51
20.62
17.57
15.74
15.23
15.85
17.15
18.55
19.53
19.77
19.10
17.47
14.89
11.39
7.14
2.46
-2.22
-6.50
-10.26
-13.68
-17.16
-21.13
-25.85
-31.34
-37.36
-43.45
-48.89
-52.64
-53.38
-49.89
-41.54
-28.69
-12.83
3.79
18.79
30.38
37.73
40.92
40.67
37.92
33.63
28.67
23.85
19.83
17.12
15.87
15.93
16.90
18.30
19.71
20.77
21.20
20.76
19.29
16.73
13.13
8.71
3.82
-1.15
-5.83
-9.95
-13.48
-16.61
-19.83
-23.76
-28.92
-35.41
-42.60
-49.07
-52.89
-52.23
-46.04
-34.53
-19.22
-2.49
13.17
25.83
34.56
39.37
40.87
39.85
37.09
33.29
29.17
25.49
22.92
21.85
22.23
23.53
25.03
26.01
26.11
25.27
23.71
21.68
19.26
16.33
12.66
8.12
2.77
-3.01
-8.70
-13.80
-18.09
-21.65
-24.91
-28.48
-32.96
-38.76
-45.85
-53.64
-60.84
-65.67
-66.32
-61.50
-51.08
-36.21
-19.15
-2.52
11.48
21.54
27.43
29.64
28.98
26.25
22.19
17.52
13.06
9.64
7.92
8.08
9.85
12.54
15.36
17.72
19.37
20.32
20.72
20.61
19.85
18.18
15.37
11.33
6.30
0.73
-4.82
-9.87
-14.20
-17.95
-21.63
-25.95
-31.55
-38.65
-46.71
-54.36
-59.63
-60.49
-55.60
-44.78
-29.21
-11.08
7.07
22.99
35.20
43.12
46.83
46.85
43.90
38.86
32.73
26.58
21.38
17.77
15.94
15.55
15.98
16.52
16.75
16.56
16.13
15.68
15.22
14.51
13.08
10.51
6.65
1.71
-3.78
-9.25
-14.23
-18.57
-22.44
-26.24
-30.51
-35.75
-42.14
-49.32
-56.17
-60.96
-61.73
-57.02
-46.41
-30.85
-12.44
6.23
22.78
35.65
44.20
48.52
49.14
46.68
41.87
35.53
28.60
22.05
16.72
13.07
11.16
10.64
10.99
11.64
12.17
12.28
11.81
10.66
8.80
6.23
3.02
-0.72
-4.85
-9.16
-13.44
-17.54
-21.46
-25.38
-29.71
-34.89
-41.18
-48.22
-54.91
-59.43
-59.79
-54.54
-43.41
-27.57
-9.33
8.54
23.67
34.65
41.14
43.63
42.90
39.72
34.72
28.46
21.60
15.00
9.46
5.64
3.78
3.68
4.77
6.32
7.63
8.16
7.53
5.56
2.28
-2.10
-7.16
-12.37
-17.26
-21.57
-25.39
-29.15
-33.43
-38.77
-45.45
-53.23
-61.22
-67.90
-71.32
-69.65
-61.69
-47.60
-28.89
-8.25
11.30
27.27
38.22
43.94
45.10
42.79
38.16
32.26
26.06
20.51
16.39
14.20
13.99
15.39
17.78
20.45
22.81
24.40
24.85
23.93
21.51
17.69
12.83
7.41
1.94
-3.31
-8.36
-13.48
-19.00
-25.25
-32.40
-40.39
-48.80
-56.68
-62.60
-64.73
-61.45
-51.84
-36.29
-16.53
4.69
24.39
40.10
50.45
55.21
55.09
51.29
45.16
38.02
31.06
25.26
21.30
19.44
19.49
20.88
22.87
24.74
26.00
26.33
25.55
23.55
20.27
15.74
10.18
4.01
-2.24
-8.12
-13.32
-17.80
-21.80
-25.79
-30.37
-36.10
-43.13
-50.92
-58.04
-62.41
-61.85
-54.85
-41.27
-22.53
-1.23
19.59
37.27
50.15
57.60
59.87
57.72
52.20
44.53
36.13
28.39
22.51
19.22
18.54
19.86
22.17
24.40
25.81
26.10
25.38
23.91
21.90
19.38
16.17
12.10
7.18
1.59
-4.25
-9.91
-15.07
-19.67
-24.00
-28.55
-33.92
-40.51
-48.13
-55.83
-61.80
-63.88
-60.20
-49.94
-33.76
-13.74
7.24
26.34
41.37
51.23
55.77
55.52
51.47
44.81
36.94
29.23
22.92
18.80
17.10
17.43
19.06
21.14
22.96
24.15
24.57
24.22
23.08
21.09
18.11
14.09
9.12
3.47
-2.45
-8.22
-13.50
-18.11
-22.16
-25.99
-30.17
-35.30
-41.75
-49.26
-56.76
-62.44
-64.13
-60.12
-49.78
-33.97
-14.83
4.84
22.41
36.04
44.90
49.00
48.88
45.29
39.12
31.44
23.49
16.53
11.56
9.07
8.87
10.22
12.20
13.99
15.19
15.74
15.77
15.33
14.32
12.48
9.63
5.77
1.18
-3.71
-8.48
-12.87
-16.84
-20.49
-24.07
-27.89
-32.31
-37.55
-43.51
-49.46
-54.04
-55.47
-52.12
-43.17
-29.03
-11.34
7.39
24.59
38.25
47.30
51.62
51.83
48.86
43.73
37.38
30.66
24.39
19.29
15.93
14.55
14.99
16.71
18.87
20.61
21.33
20.78
19.03
16.35
13.01
9.22
5.07
0.68
-3.80
-8.17
-12.26
-16.00
-19.56
-23.29
-27.69
-33.14
-39.65
-46.55
-52.47
-55.63
-54.34
-47.69
-35.97
-20.65
-4.05
11.44
23.99
32.62
37.21
38.21
36.30
32.16
26.52
20.16
13.97
8.85
5.46
4.08
4.50
6.09
8.05
9.65
10.42
10.15
8.88
6.70
3.77
0.23
-3.72
-7.86
-11.95
-15.80
-19.42
-22.95
-26.79
-31.41
-37.13
-43.85
-50.79
-56.53
-59.30
-57.53
-50.45
-38.49
-23.16
-6.69
8.69
21.25
30.05
34.90
36.13
34.36
30.32
24.82
18.73
12.93
8.18
5.00
3.57
3.72
5.04
6.93
8.78
10.08
10.48
9.84
8.18
5.67
2.50
-1.11
-4.97
-8.91
-12.78
-16.51
-20.16
-24.06
-28.63
-34.16
-40.43
-46.50
-50.78
-51.50
-47.31
-37.89
-24.23
-8.21
7.81
21.76
32.25
38.76
41.43
40.80
37.63
32.72
26.98
21.34
16.67
13.65
12.59
13.32
15.29
17.70
19.76
20.85
20.66
19.14
16.45
12.84
8.67
4.28
0.01
-3.92
-7.44
-10.66
-13.86
-17.39
-21.62
-26.80
-32.89
-39.38
-45.24
-48.98
-49.01
-44.17
-34.18
-19.97
-3.43
13.00
27.07
37.24
42.91
44.40
42.56
38.53
33.41
28.16
23.52
20.00
17.84
17.03
17.31
18.26
19.36
20.09
20.05
18.98
16.84
13.77
10.00
5.81
1.44
-2.92
-7.14
-11.12
-14.78
-18.17
-21.50
-25.18
-29.64
-35.16
-41.45
-47.56
-51.89
-52.71
-48.72
-39.63
-26.41
-10.94
4.47
17.90
28.10
34.66
37.72
37.67
35.04
30.51
24.99
19.58
15.35
13.00
12.67
13.88
15.81
17.66
18.91
19.44
19.34
18.72
17.52
15.51
12.47
8.36
3.43
-1.81
-6.82
-11.24
-15.03
-18.41
-21.76
-25.47
-29.80
-34.89
-40.56
-46.19
-50.66
-52.51
-50.35
-43.36
-31.81
-16.99
-0.99
14.00
26.19
34.56
38.90
39.57
37.33
33.10
27.86
22.56
18.02
14.73
12.89
12.37
12.82
13.75
14.64
15.09
14.84
13.86
12.29
10.26
7.80
4.78
0.99
-3.68
-8.99
-14.41
-19.24
-23.01
-25.74
-28.06
-30.93
-35.19
-41.04
-47.68
-53.47
-56.39
-54.75
-47.86
-36.26
-21.50
-5.65
9.37
22.19
32.03
38.61
41.83
41.78
38.85
33.81
27.89
22.42
18.49
16.62
16.60
17.71
19.04
19.90
19.95
19.23
17.90
16.11
13.80
10.84
7.10
2.60
-2.44
-7.65
-12.66
-17.22
-21.35
-25.34
-29.72
-34.99
-41.40
-48.57
-55.45
-60.36
-61.46
-57.38
-47.73
-33.40
-16.31
1.13
16.70
28.85
36.92
40.92
41.32
38.84
34.29
28.61
22.84
18.01
14.85
13.68
14.32
16.14
18.35
20.19
21.14
20.92
19.51
16.96
13.41
9.05
4.11
-1.08
-6.19
-10.95
-15.26
-19.24
-23.19
-27.53
-32.67
-38.80
-45.73
-52.66
-58.22
-60.68
-58.47
-50.79
-37.98
-21.56
-3.87
12.64
26.09
35.45
40.62
42.06
40.55
36.92
32.03
26.77
22.04
18.59
16.89
16.92
18.27
20.23
22.11
23.42
23.93
23.65
22.62
20.81
18.06
14.22
9.34
3.77
-1.89
-7.07
-11.44
-15.08
-18.47
-22.30
-27.17
-33.31
-40.37
-47.33
-52.69
-54.81
-52.37
-44.85
-32.80
-17.72
-1.70
13.17
25.25
33.56
37.86
38.42
35.91
31.35
25.89
20.75
16.87
14.81
14.57
15.72
17.58
19.51
21.05
21.96
22.23
21.86
20.82
18.99
16.24
12.50
7.86
2.61
-2.86
-8.15
-13.01
-17.40
-21.53
-25.79
-30.64
-36.44
-43.16
-50.16
-56.10
-59.18
-57.63
-50.44
-37.84
-21.37
-3.40
13.51
27.41
37.25
42.87
44.69
43.35
39.60
34.29
28.43
23.07
19.14
17.17
17.15
18.53
20.47
22.20
23.19
23.35
22.84
21.87
20.51
18.58
15.76
11.82
6.86
1.32
-4.12
-8.88
-12.69
-15.80
-18.84
-22.65
-27.85
-34.54
-42.07
-49.05
-53.64
-54.08
-49.27
-39.20
-25.02
-8.77
7.26
21.10
31.50
38.00
40.76
40.31
37.29
32.46
26.66
20.83
15.86
12.42
10.83
10.94
12.25
14.08
15.79
16.93
17.26
16.72
15.37
13.24
10.35
6.71
2.37
-2.55
-7.78
-13.07
-18.19
-23.15
-28.22
-33.83
-40.32
-47.55
-54.70
-60.22
-62.27
-59.32
-50.83
-37.48
-21.09
-4.05
11.43
23.79
32.35
37.13
38.55
37.16
33.53
28.35
22.48
16.90
12.52
9.96
9.37
10.46
12.61
15.11
17.26
18.55
18.61
17.30
14.67
10.96
6.52
1.75
-3.05
-7.73
-12.34
-17.04
-22.08
-27.75
-34.24
-41.51
-49.07
-55.83
-60.19
-60.47
-55.44
-44.92
-29.96
-12.66
4.41
18.99
29.58
35.72
37.70
36.33
32.58
27.37
21.66
16.33
12.17
9.70
9.02
9.78
11.29
12.81
13.81
14.05
13.56
12.40
10.51
7.73
3.90
-0.97
-6.58
-12.41
-17.94
-22.88
-27.28
-31.53
-36.20
-41.78
-48.41
-55.66
-62.42
-67.07
-67.84
-63.42
-53.42
-38.63
-20.87
-2.49
14.27
27.79
37.17
42.27
43.38
41.13
36.41
30.39
24.42
19.78
17.36
17.40
19.41
22.43
25.39
27.51
28.46
28.26
27.06
24.91
21.77
17.59
12.50
6.88
1.22
-4.02
-8.68
-12.88
-16.99
-21.46
-26.70
-32.95
-40.12
-47.67
-54.45
-58.85
-59.11
-53.90
-42.91
-27.09
-8.47
10.37
27.00
39.66
47.51
50.56
49.45
45.22
39.12
32.44
26.46
22.15
20.13
20.44
22.56
25.63
28.65
30.77
31.53
30.87
28.98
26.18
22.69
18.62
13.95
8.71
3.08
-2.66
-8.18
-13.22
-17.70
-21.83
-26.06
-30.98
-37.13
-44.60
-52.75
-60.10
-64.53
-63.95
-57.05
-43.93
-26.19
-6.49
12.30
27.89
39.02
45.46
47.59
46.09
41.70
35.35
28.24
21.82
17.48
16.08
17.64
21.25
25.46
28.78
30.30
29.85
27.88
25.08
21.94
18.58
14.81
10.37
5.18
-0.57
-6.55
-12.41
-17.93
-23.04
-27.79
-32.28
-36.76
-41.60
-47.22
-53.72
-60.55
-66.27
-68.80
-66.05
-56.84
-41.44
-21.77
-0.71
18.75
34.39
45.19
51.16
52.92
51.27
46.97
40.83
33.98
27.76
23.53
22.18
23.75
27.36
31.50
34.65
35.82
34.91
32.55
29.63
26.82
24.19
21.23
17.27
11.82
4.99
-2.57
-9.88
-16.16
-21.00
-24.65
-27.81
-31.34
-36.03
-42.29
-49.93
-58.07
-65.10
-68.99
-67.83
-60.43
-46.86
-28.54
-7.89
12.33
29.82
43.10
51.64
55.60
55.55
52.26
46.71
40.10
33.79
29.08
26.85
27.26
29.70
32.97
35.80
37.24
37.03
35.46
33.17
30.59
27.83
24.53
20.25
14.71
8.10
1.02
-5.77
-11.65
-16.40
-20.25
-23.70
-27.34
-31.66
-36.90
-43.02
-49.54
-55.47
-59.33
-59.44
-54.45
-43.94
-28.66
-10.57
7.83
24.09
36.51
44.30
47.52
46.72
42.73
36.53
29.18
21.88
15.69
11.40
9.25
8.97
9.83
10.96
11.66
11.54
10.60
9.04
7.11
4.88
2.22
-1.18
-5.54
-10.83
-16.73
-22.65
-28.04
-32.54
-36.17
-39.29
-42.44
-46.24
-51.13
-57.22
-63.95
-70.10
-73.77
-72.99
-66.31
-53.52
-35.92
-15.95
3.52
20.09
32.31
39.81
42.88
42.17
38.40
32.41
25.32
18.46
13.20
10.39
10.20
11.97
14.55
16.81
18.00
18.01
17.09
15.58
13.61
11.04
7.54
2.96
-2.55
-8.51
-14.31
-19.43
-23.61
-26.94
-29.77
-32.63
-36.07
-40.48
-45.94
-51.91
-57.22
-60.12
-58.78
-51.87
-39.18
-21.79
-1.90
17.83
34.98
47.90
55.94
59.27
58.54
54.64
48.51
41.17
33.72
27.30
22.81
20.75
20.94
22.65
24.77
26.29
26.61
25.68
23.89
21.76
19.62
17.37
14.61
10.89
6.00
0.20
-5.88
-11.46
-15.97
-19.30
-21.91
-24.66
-28.53
-34.17
-41.49
-49.43
-56.15
-59.40
-57.33
-49.05
-35.09
-17.22
2.03
20.13
35.14
46.00
52.42
54.63
53.16
48.68
42.14
34.71
27.72
22.36
19.35
18.71
19.79
21.56
22.99
23.49
22.96
21.72
20.15
18.40
16.24
13.22
8.93
3.30
-3.30
-10.18
-16.56
-21.92
-26.15
-29.53
-32.65
-36.11
-40.46
-45.87
-52.11
-58.35
-63.20
-64.99
-62.21
-54.07
-40.88
-24.11
-6.03
10.94
24.84
34.50
39.63
40.56
37.97
32.69
25.66
17.93
10.64
4.84
1.26
0.06
0.81
2.66
4.66
6.10
6.75
6.70
6.28
5.61
4.55
2.68
-0.44
-5.00
-10.77
-17.17
-23.47
-29.07
-33.67
-37.32
-40.46
-43.74
-47.89
-53.49
-60.70
-68.94
-76.87
-82.55
-84.01
-79.85
-69.81
-54.90
-37.08
-18.67
-1.72
12.40
23.11
30.37
34.56
36.26
36.26
35.49
34.96
35.48
37.50
40.92
45.15
49.39
52.91
55.26
56.31
56.15
54.93
52.70
49.43
45.07
39.61
33.17
26.06
18.68
11.47
4.80
-1.13
-6.41
-11.44
-16.81
-23.12
-30.66
-39.05
-47.13
-53.12
-55.05
-51.44
-41.84
-27.07
-9.05
9.75
27.00
40.96
50.67
55.89
56.84
54.05
48.33
40.75
32.61
25.26
19.77
16.67
15.87
16.74
18.47
20.32
21.81
22.74
23.01
22.54
21.16
18.70
15.06
10.31
4.78
-1.09
-6.81
-12.02
-16.61
-20.76
-24.91
-29.64
-35.42
-42.32
-49.68
-56.13
-59.81
-58.89
-52.28
-40.09
-23.74
-5.62
11.68
26.06
36.33
42.25
44.21
42.88
38.96
33.15
26.23
19.10
12.68
7.78
4.86
3.98
4.78
6.58
8.62
10.17
10.72
10.03
8.13
5.25
1.68
-2.35
-6.69
-11.22
-15.83
-20.37
-24.76
-29.11
-33.81
-39.34
-45.95
-53.26
-60.00
-64.22
-63.81
-57.35
-44.74
-27.41
-7.97
10.64
26.02
36.82
42.83
44.59
42.97
38.80
32.86
25.98
19.08
13.12
8.85
6.64
6.34
7.40
9.07
10.59
11.31
10.77
8.76
5.38
0.95
-4.00
-9.00
-13.71
-18.08
-22.31
-26.78
-31.95
-38.22
-45.73
-54.17
-62.51
-69.07
-71.75
-68.84
-59.55
-44.50
-25.59
-5.46
13.27
28.63
39.51
45.62
47.22
44.89
39.49
32.11
24.10
16.82
11.43
8.56
8.23
9.85
12.46
15.05
16.74
16.97
15.52
12.41
7.93
2.54
-3.22
-8.82
-13.92
-18.50
-22.84
-27.50
-33.09
-40.06
-48.37
-57.23
-65.09
-69.77
-69.04
-61.36
-46.62
-26.33
-3.38
18.86
37.46
50.67
58.10
60.38
58.63
54.02
47.63
40.42
33.39
27.46
23.35
21.39
21.34
22.54
24.03
24.90
24.45
22.35
18.65
13.71
7.99
1.95
-4.12
-10.07
-15.89
-21.63
-27.37
-33.31
-39.74
-47.04
-55.41
-64.50
-73.06
-79.00
-79.83
-73.51
-59.38
-38.65
-14.21
10.19
31.03
46.06
54.55
57.08
55.00
49.78
42.82
35.40
28.77
24.00
21.81
22.26
24.69
27.93
30.72
32.12
31.79
29.86
26.74
22.77
18.18
13.03
7.41
1.48
-4.45
-10.05
-15.05
-19.38
-23.27
-27.27
-32.15
-38.69
-47.28
-57.50
-67.81
-75.71
-78.36
-73.53
-60.55
-40.70
-16.92
7.08
27.94
43.52
53.07
56.97
56.14
51.65
44.60
36.19
27.88
21.14
17.19
16.49
18.64
22.44
26.36
29.10
29.97
29.03
26.93
24.52
22.41
20.66
18.82
16.17
12.13
6.63
0.22
-6.23
-11.85
-16.24
-19.58
-22.45
-25.59
-29.62
-34.97
-41.81
-49.91
-58.41
-65.61
-69.07
-66.24
-55.50
-36.96
-12.87
13.06
36.80
55.31
67.21
72.77
73.16
69.74
63.62
55.71
47.06
39.02
33.08
30.39
31.24
34.88
39.73
44.00
46.29
46.05
43.56
39.68
35.36
31.25
27.53
23.92
19.96
15.24
9.64
3.31
-3.39
-10.03
-16.27
-21.94
-26.98
-31.54
-35.89
-40.46
-45.83
-52.46
-60.34
-68.61
-75.43
-78.33
-74.98
-64.15
-46.33
-23.79
0.12
22.01
39.29
50.76
56.37
56.85
53.26
46.77
38.66
30.37
23.36
18.79
17.20
18.28
21.05
24.20
26.61
27.70
27.47
26.38
24.96
23.53
21.98
19.87
16.63
11.88
5.69
-1.43
-8.65
-15.16
-20.47
-24.57
-27.91
-31.24
-35.37
-40.84
-47.73
-55.41
-62.53
-67.16
-67.30
-61.50
-49.46
-32.25
-12.11
8.26
26.36
40.42
49.56
53.64
52.99
48.35
40.80
31.75
22.83
15.50
10.69
8.55
8.53
9.68
11.05
12.02
12.38
12.19
11.55
10.42
8.59
5.78
1.78
-3.31
-9.15
-15.16
-20.80
-25.69
-29.76
-33.29
-36.80
-40.93
-46.27
-53.00
-60.59
-67.65
-72.08
-71.60
-64.49
-50.38
-30.51
-7.56
15.17
34.67
48.91
57.17
59.77
57.71
52.28
44.81
36.63
28.96
22.84
18.88
17.19
17.33
18.54
20.01
21.14
21.67
21.52
20.69
19.08
16.46
12.61
7.46
1.24
-5.56
-12.34
-18.55
-23.88
-28.35
-32.33
-36.50
-41.65
-48.33
-56.41
-64.75
-71.26
-73.31
-68.74
-56.67
-38.10
-15.65
7.20
27.20
42.20
51.45
55.29
54.62
50.49
43.89
35.88
27.73
20.77
16.14
14.32
15.00
17.14
19.50
21.04
21.33
20.50
18.93
16.91
14.37
10.95
6.28
0.27
-6.74
-14.04
-20.82
-26.52
-31.04
-34.77
-38.48
-43.04
-49.11
-56.86
-65.61
-73.81
-79.24
-79.49
-72.84
-58.90
-38.95
-15.71
7.50
27.69
42.93
52.50
56.72
56.33
52.28
45.57
37.42
29.30
22.81
19.19
18.93
21.50
25.59
29.62
32.36
33.32
32.73
31.19
29.25
27.04
24.30
20.58
15.60
9.48
2.75
-3.86
-9.70
-14.48
-18.35
-21.83
-25.62
-30.43
-36.70
-44.36
-52.62
-59.88
-63.94
-62.65
-54.64
-39.98
-20.33
1.45
22.19
39.30
51.30
57.87
59.45
56.86
51.02
42.98
34.02
25.64
19.23
15.70
15.16
16.87
19.55
21.89
22.99
22.59
21.01
18.83
16.44
13.89
10.84
6.82
1.57
-4.75
-11.53
-17.97
-23.49
-27.91
-31.53
-35.00
-39.03
-44.16
-50.62
-58.09
-65.61
-71.59
-73.98
-70.87
-61.19
-45.22
-24.77
-2.70
17.89
34.48
45.70
51.30
51.91
48.55
42.41
34.72
26.68
19.51
14.20
11.33
10.89
12.31
14.66
16.98
18.56
19.07
18.57
17.25
15.29
12.66
9.15
4.61
-0.97
-7.23
-13.60
-19.48
-24.47
-28.61
-32.36
-36.45
-41.62
-48.27
-56.15
-64.16
-70.43
-72.76
-69.26
-59.05
-42.76
-22.42
-0.99
18.59
34.04
44.27
49.24
49.64
46.46
40.77
33.65
26.26
19.70
14.92
12.45
12.29
13.89
16.37
18.81
20.49
20.99
20.22
18.22
15.13
11.09
6.26
0.83
-4.87
-10.53
-15.83
-20.62
-25.02
-29.41
-34.42
-40.64
-48.27
-56.79
-64.72
-69.85
-69.87
-63.15
-49.53
-30.48
-8.81
12.20
29.78
42.27
49.27
51.39
49.70
45.32
39.23
32.31
25.44
19.48
15.16
12.87
12.58
13.76
15.63
17.34
18.25
17.95
16.40
13.73
10.16
5.96
1.33
-3.56
-8.61
-13.69
-18.76
-23.85
-29.17
-35.08
-41.93
-49.76
-57.92
-64.91
-68.62
-66.95
-58.63
-43.80
-24.24
-2.82
17.28
33.48
44.30
49.49
49.66
45.90
39.51
31.71
23.76
16.74
11.52
8.52
7.70
8.51
10.21
11.99
13.23
13.64
13.09
11.63
9.27
6.06
2.00
-2.78
-8.03
-13.45
-18.70
-23.61
-28.25
-32.98
-38.36
-44.87
-52.61
-60.94
-68.38
-72.80
-72.02
-64.55
-50.26
-30.57
-8.14
13.89
32.78
46.72
55.05
57.99
56.35
51.23
43.95
35.94
28.64
23.19
20.19
19.59
20.74
22.79
24.89
26.47
27.23
27.03
25.74
23.26
19.56
14.75
9.13
3.16
-2.69
-8.11
-12.96
-17.38
-21.66
-26.23
-31.54
-37.92
-45.28
-53.00
-59.67
-63.31
-61.85
-53.90
-39.37
-19.77
2.15
23.14
40.41
52.29
58.44
59.45
56.43
50.65
43.31
35.62
28.80
23.83
21.30
21.13
22.66
24.89
26.89
28.04
28.18
27.42
25.89
23.66
20.64
16.74
12.00
6.61
0.85
-4.95
-10.54
-15.83
-20.88
-25.90
-31.26
-37.38
-44.44
-52.08
-59.17
-63.84
-63.98
-57.95
-45.36
-27.36
-6.44
14.36
32.27
45.54
53.56
56.65
55.60
51.36
44.93
37.38
29.84
23.42
18.93
16.69
16.42
17.42
18.83
19.89
20.10
19.29
17.44
14.69
11.14
6.95
2.25
-2.81
-8.06
-13.34
-18.48
-23.40
-28.12
-32.89
-38.11
-44.19
-51.14
-58.24
-63.97
-66.23
-63.10
-53.56
-38.08
-18.59
2.03
20.80
35.43
44.75
48.71
48.05
43.93
37.62
30.32
23.15
17.02
12.62
10.31
10.08
11.50
13.85
16.26
17.90
18.20
16.96
14.36
10.77
6.66
2.37
-1.95
-6.29
-10.75
-15.41
-20.39
-25.86
-32.10
-39.35
-47.52
-55.85
-62.76
-66.16
-63.99
-55.10
-39.83
-20.08
1.20
20.88
36.52
46.86
51.83
52.19
49.02
43.36
36.19
28.47
21.19
15.35
11.76
10.75
12.06
14.83
17.85
19.94
20.27
18.51
14.89
10.02
4.61
-0.75
-5.71
-10.26
-14.57
-18.95
-23.70
-29.10
-35.37
-42.46
-49.91
-56.59
-60.74
-60.35
-53.80
-40.63
-21.89
-0.03
21.85
40.85
55.06
63.83
67.51
67.08
63.61
58.16
51.71
45.22
39.64
35.77
34.04
34.41
36.32
38.90
41.17
42.29
41.74
39.38
35.43
30.31
24.56
18.59
12.64
6.76
0.86
-5.21
-11.61
-18.45
-25.82
-33.64
-41.51
-48.47
-53.01
-53.39
-48.24
-37.21
-21.36
-3.01
14.98
29.99
40.37
45.68
46.46
43.79
38.86
32.74
26.30
20.35
15.54
12.33
10.90
11.05
12.29
13.95
15.32
15.86
15.26
13.46
10.60
6.91
2.66
-1.91
-6.66
-11.47
-16.31
-21.11
-25.88
-30.70
-35.77
-41.40
-47.78
-54.68
-61.17
-65.71
-66.50
-62.16
-52.32
-37.92
-21.00
-4.00
10.84
22.06
29.05
31.90
31.13
27.53
22.08
15.94
10.31
6.23
4.29
4.51
6.35
8.91
11.30
12.88
13.43
13.15
12.38
11.40
10.29
8.84
6.74
3.70
-0.32
-5.09
-10.24
-15.34
-20.09
-24.40
-28.41
-32.41
-36.87
-42.20
-48.61
-55.77
-62.65
-67.55
-68.53
-64.08
-53.70
-38.36
-20.20
-1.99
13.79
25.54
32.74
35.77
35.40
32.48
27.76
21.99
16.07
11.01
7.75
6.89
8.40
11.62
15.52
19.02
21.34
22.12
21.45
19.63
17.00
13.84
10.25
6.22
1.70
-3.31
-8.74
-14.38
-19.94
-25.07
-29.47
-33.03
-35.88
-38.38
-41.08
-44.55
-49.23
-55.25
-62.27
-69.29
-74.83
-77.07
-74.42
-65.97
-51.94
-33.67
-13.35
6.59
24.04
37.59
46.65
51.21
51.69
48.83
43.61
37.27
31.18
26.60
24.35
24.65
27.06
30.68
34.43
37.39
38.98
39.05
37.77
35.54
32.80
29.84
26.78
23.47
19.69
15.20
9.91
3.96
-2.32
-8.49
-14.16
-19.05
-23.08
-26.50
-29.76
-33.50
-38.30
-44.42
-51.47
-58.35
-63.36
-64.63
-60.70
-51.06
-36.38
-18.36
0.70
18.54
33.37
44.21
50.73
53.14
51.92
47.75
41.51
34.32
27.46
22.07
18.94
18.23
19.50
21.87
24.37
26.25
27.14
27.07
26.26
25.01
23.46
21.58
19.25
16.26
12.50
7.99
2.95
-2.26
-7.25
-11.68
-15.43
-18.56
-21.37
-24.30
-27.88
-32.46
-38.09
-44.29
-50.00
-53.76
-54.06
-49.84
-40.84
-27.82
-12.29
3.82
18.65
30.79
39.35
44.00
44.77
42.06
36.59
29.44
21.84
15.00
9.83
6.66
5.33
5.25
5.75
6.31
6.66
6.78
6.72
6.50
6.00
4.98
3.19
0.48
-3.21
-7.67
-12.56
-17.50
-22.14
-26.31
-30.09
-33.83
-38.02
-43.11
-49.20
-55.77
-61.64
-65.14
-64.65
-59.09
-48.46
-33.81
-17.04
-0.28
14.63
26.49
34.77
39.43
40.67
38.86
34.57
28.63
22.10
16.09
11.43
8.54
7.29
7.23
7.84
8.72
9.69
10.58
11.18
11.08
9.80
7.03
2.75
-2.65
-8.62
-14.59
-20.20
-25.35
-30.20
-35.06
-40.29
-46.19
-52.85
-59.87
-66.22
-70.30
-70.26
-64.69
-53.17
-36.68
-17.34
2.23
19.57
33.11
42.20
46.96
47.90
45.70
41.10
35.02
28.56
22.82
18.63
16.36
15.82
16.45
17.62
18.80
19.64
19.90
19.36
17.80
15.07
11.15
6.25
0.72
-5.04
-10.71
-16.15
-21.43
-26.78
-32.60
-39.28
-47.00
-55.47
-63.76
-70.23
-72.94
-70.18
-61.09
-46.17
-27.19
-6.76
12.40
28.16
39.36
45.77
47.79
46.15
41.69
35.40
28.39
21.90
16.98
14.23
13.62
14.58
16.23
17.76
18.69
18.87
18.29
16.95
14.73
11.48
7.16
2.02
-3.52
-8.92
-13.82
-18.19
-22.32
-26.79
-32.19
-38.95
-46.98
-55.53
-63.14
-67.88
-67.80
-61.55
-48.89
-30.88
-9.66
12.03
31.58
47.02
57.27
62.13
62.12
58.24
51.81
44.31
37.23
31.76
28.59
27.83
28.97
31.21
33.68
35.73
37.02
37.40
36.79
35.08
32.12
27.85
22.39
16.11
9.48
2.98
-3.14
-8.81
-14.22
-19.68
-25.61
-32.39
-40.22
-48.78
-57.05
-63.27
-65.32
-61.37
-50.60
-33.70
-12.82
9.08
28.99
44.70
55.14
60.31
60.84
57.71
51.91
44.50
36.69
29.72
24.69
22.23
22.35
24.40
27.40
30.31
32.40
33.31
32.94
31.32
28.49
24.43
19.22
13.06
6.26
-0.74
-7.56
-13.88
-19.61
-24.86
-30.02
-35.67
-42.39
-50.38
-59.12
-67.13
-72.19
-72.00
-64.99
-51.07
-31.85
-10.16
10.79
28.32
40.87
48.02
50.21
48.31
43.32
36.38
28.80
21.95
17.08
14.96
15.63
18.40
22.14
25.72
28.38
29.90
30.44
30.22
29.25
27.27
23.90
18.92
12.52
5.26
-2.14
-9.05
-15.22
-20.81
-26.35
-32.48
-39.70
-48.13
-57.25
-65.78
-71.79
-73.14
-68.16
-56.36
-38.74
-17.68
3.72
22.58
36.86
45.70
49.27
48.36
44.04
37.50
29.85
22.24
15.67
10.92
8.37
7.95
9.16
11.25
13.34
14.64
14.58
12.87
9.55
4.91
-0.67
-6.81
-13.28
-19.94
-26.68
-33.31
-39.65
-45.59
-51.32
-57.34
-64.31
-72.58
-81.57
-89.59
-93.99
-92.05
-81.97
-63.80
-39.61
-12.88
12.58
33.70
48.81
57.63
60.77
59.32
54.41
47.29
39.34
32.03
26.64
23.91
23.83
25.71
28.49
31.18
33.12
34.05
33.92
32.78
30.58
27.27
22.81
17.30
11.03
4.39
-2.18
-8.34
-14.01
-19.37
-24.89
-31.14
-38.60
-47.31
-56.59
-64.88
-69.98
-69.55
-61.95
-46.94
-26.01
-2.06
21.43
41.40
55.96
64.53
67.56
66.00
60.94
53.53
45.11
37.13
30.99
27.65
27.28
29.21
32.21
34.94
36.50
36.56
35.32
33.21
30.55
27.32
23.22
17.91
11.25
3.55
-4.49
-12.01
-18.36
-23.38
-27.53
-31.70
-36.95
-44.09
-53.24
-63.56
-73.13
-79.38
-79.69
-72.33
-57.14
-35.77
-11.29
12.73
33.22
48.26
57.22
60.49
58.95
53.74
46.07
37.31
29.00
22.56
18.98
18.45
20.29
23.25
25.95
27.44
27.47
26.42
24.91
23.39
21.85
19.84
16.73
12.15
6.22
-0.44
-6.96
-12.61
-17.10
-20.64
-23.83
-27.40
-32.04
-38.16
-45.78
-54.35
-62.55
-68.39
-69.58
-64.26
-51.72
-32.95
-10.47
12.31
32.16
46.82
55.41
58.26
56.42
51.19
43.82
35.52
27.52
21.00
16.91
15.62
16.78
19.37
22.10
23.85
24.06
22.84
20.69
18.09
15.16
11.62
6.97
0.93
-6.34
-14.16
-21.65
-28.04
-33.09
-37.13
-40.89
-45.30
-51.07
-58.41
-66.73
-74.64
-80.07
-80.77
-74.97
-62.06
-42.92
-19.86
4.00
25.58
42.46
53.40
58.25
57.70
52.93
45.39
36.69
28.37
21.75
17.66
16.26
17.07
19.17
21.53
23.34
24.18
23.95
22.74
20.61
17.52
13.32
7.97
1.65
-5.24
-12.12
-18.46
-23.97
-28.65
-32.85
-37.13
-42.17
-48.55
-56.49
-65.46
-73.99
-79.80
-80.28
-73.46
-58.86
-37.83
-13.29
11.17
32.41
48.41
58.45
62.75
62.04
57.21
49.37
39.91
30.49
22.79
18.02
16.60
18.01
21.07
24.39
26.85
27.94
27.73
26.66
25.14
23.29
20.89
17.50
12.74
6.62
-0.46
-7.75
-14.45
-20.04
-24.46
-28.18
-32.06
-37.00
-43.67
-52.03
-61.07
-68.86
-72.87
-70.73
-61.03
-44.02
-21.64
2.90
26.13
45.19
58.48
65.69
67.47
64.86
58.94
50.79
41.58
32.72
25.65
21.52
20.74
22.78
26.31
29.67
31.59
31.54
29.89
27.47
25.08
22.93
20.63
17.37
12.45
5.72
-2.32
-10.69
-18.28
-24.39
-28.88
-32.23
-35.32
-39.10
-44.28
-51.06
-58.89
-66.45
-71.69
-72.35
-66.66
-54.00
-35.34
-13.09
9.56
29.62
44.99
54.81
59.20
58.83
54.50
47.12
37.82
28.14
19.82
14.44
12.76
14.49
18.36
22.65
25.89
27.32
26.99
25.54
23.69
21.83
19.91
17.50
14.16
9.64
4.07
-2.08
-8.19
-13.71
-18.33
-22.11
-25.44
-28.96
-33.32
-38.89
-45.56
-52.48
-58.06
-60.31
-57.35
-48.22
-33.24
-14.14
6.42
25.65
41.38
52.48
58.83
60.98
59.73
55.90
50.35
43.96
37.72
32.50
28.81
26.59
25.30
24.12
22.28
19.38
15.39
10.53
5.10
-0.75
-6.97
-13.59
-20.50
-27.39
-33.83
-39.35
-43.74
-47.08
-49.85
-52.74
-56.52
-61.69
-68.21
-75.29
-81.36
-84.36
-82.31
-74.02
-59.59
-40.56
-19.51
0.68
17.61
29.84
37.00
39.52
38.25
34.19
28.33
21.70
15.35
10.20
6.96
5.88
6.73
8.90
11.54
13.91
15.48
15.93
15.19
13.28
10.33
6.50
2.10
-2.51
-6.97
-11.10
-14.90
-18.61
-22.61
-27.31
-32.97
-39.53
-46.43
-52.49
-56.02
-55.21
-48.73
-36.34
-19.26
0.16
19.08
34.97
46.31
52.68
54.53
52.73
48.20
41.82
34.45
27.03
20.47
15.58
12.75
11.95
12.64
14.05
15.42
16.19
16.09
15.07
13.18
10.45
6.85
2.33
-2.95
-8.64
-14.20
-19.12
-23.21
-26.65
-30.08
-34.25
-39.66
-46.22
-52.98
-58.26
-60.04
-56.59
-47.16
-32.31
-13.89
5.48
23.21
37.36
46.91
51.75
52.33
49.40
43.88
36.86
29.57
23.14
18.40
15.59
14.40
14.13
14.06
13.69
12.83
11.50
9.75
7.54
4.69
1.05
-3.44
-8.60
-14.11
-19.51
-24.44
-28.74
-32.53
-36.21
-40.30
-45.37
-51.68
-58.99
-66.39
-72.25
-74.56
-71.49
-62.09
-46.75
-27.26
-6.34
13.15
28.97
39.92
45.79
47.10
44.72
39.72
33.28
26.75
21.44
18.34
17.85
19.59
22.61
25.71
27.95
28.85
28.49
27.26
25.56
23.48
20.80
17.10
12.07
5.78
-1.22
-8.08
-13.96
-18.39
-21.42
-23.66
-26.00
-29.39
-34.46
-41.21
-48.86
-55.75
-59.71
-58.56
-50.94
-36.86
-17.87
3.35
23.79
40.94
53.31
60.43
62.63
60.64
55.45
48.26
40.47
33.57
28.81
26.81
27.37
29.62
32.22
34.04
34.40
33.28
31.11
28.45
25.68
22.82
19.63
15.76
10.99
5.37
-0.82
-7.10
-13.01
-18.19
-22.52
-26.16
-29.55
-33.29
-37.98
-43.98
-51.10
-58.37
-64.12
-66.34
-63.24
-53.98
-39.03
-20.19
-0.07
18.62
33.76
44.19
49.63
50.47
47.43
41.47
33.80
25.81
18.92
14.26
12.33
12.86
14.96
17.48
19.46
20.40
20.25
19.28
17.77
15.86
13.47
10.38
6.41
1.53
-4.04
-9.94
-15.75
-21.13
-25.88
-30.07
-33.92
-37.81
-42.26
-47.68
-54.18
-61.20
-67.41
-70.84
-69.46
-61.92
-48.25
-30.11
-10.25
8.25
23.00
32.83
37.84
38.90
37.10
33.43
28.63
23.40
18.49
14.64
12.39
11.92
12.98
14.94
17.13
18.98
20.18
20.60
20.19
18.87
16.56
13.14
8.63
3.23
-2.69
-8.62
-14.09
-18.76
-22.61
-26.03
-29.69
-34.35
-40.42
-47.58
-54.52
-59.20
-59.37
-53.42
-41.08
-23.68
-3.79
15.60
31.91
43.60
50.27
52.37
50.81
46.56
40.54
33.67
26.85
20.95
16.63
14.22
13.59
14.24
15.44
16.47
16.75
15.99
14.14
11.35
7.90
4.04
-0.05
-4.23
-8.45
-12.69
-17.00
-21.53
-26.57
-32.44
-39.34
-47.03
-54.62
-60.57
-62.98
-60.17
-51.35
-37.03
-19.04
0.01
17.46
31.36
40.82
45.88
47.18
45.54
41.70
36.40
30.38
24.52
19.64
16.37
14.89
14.96
16.03
17.42
18.55
19.02
18.63
17.28
14.92
11.55
7.21
2.07
-3.50
-9.07
-14.23
-18.78
-22.94
-27.25
-32.41
-38.81
-46.14
-53.19
-58.06
-58.70
-53.61
-42.48
-26.39
-7.53
11.42
28.02
40.61
48.48
51.78
51.17
47.54
41.85
35.14
28.44
22.77
18.85
17.03
17.13
18.52
20.33
21.76
22.26
21.64
19.96
17.37
14.03
10.05
5.56
0.71
-4.24
-8.99
-13.37
-17.40
-21.39
-25.86
-31.36
-38.05
-45.40
-52.09
-56.22
-55.93
-49.99
-38.39
-22.41
-4.30
13.41
28.57
39.84
46.81
49.76
49.43
46.70
42.46
37.60
32.94
29.12
26.59
25.50
25.67
26.68
28.02
29.23
29.99
30.17
29.68
28.43
26.28
23.10
18.85
13.65
7.80
1.68
-4.40
-10.24
-15.89
-21.62
-27.79
-34.65
-42.12
-49.52
-55.63
-58.81
-57.56
-51.07
-39.60
-24.53
-7.98
7.80
21.00
30.59
36.32
38.50
37.77
34.95
30.92
26.65
22.98
20.50
19.40
19.41
19.96
20.42
20.36
19.57
18.04
15.82
12.88
9.15
4.56
-0.81
-6.74
-12.84
-18.73
-24.09
-28.80
-32.90
-36.66
-40.42
-44.59
-49.50
-55.10
-60.88
-65.77
-68.29
-66.95
-60.83
-49.96
-35.42
-19.13
-3.25
10.32
20.48
26.86
29.68
29.45
26.81
22.48
17.29
12.20
8.07
5.52
4.70
5.27
6.60
8.02
9.08
9.59
9.55
8.99
7.82
5.84
2.83
-1.23
-6.15
-11.48
-16.71
-21.44
-25.61
-29.55
-33.84
-39.08
-45.48
-52.68
-59.59
-64.64
-66.20
-63.16
-55.26
-43.21
-28.54
-13.14
1.18
13.04
21.59
26.50
27.83
26.01
21.80
16.27
10.65
6.08
3.36
2.73
3.92
6.26
9.05
11.72
13.87
15.29
15.75
15.07
13.10
9.91
5.79
1.20
-3.36
-7.53
-11.20
-14.58
-18.07
-22.23
-27.59
-34.39
-42.30
-50.24
-56.43
-58.86
-55.93
-47.08
-33.09
-15.92
1.93
18.13
31.06
40.01
44.99
46.42
44.88
41.06
35.77
29.96
24.65
20.74
18.74
18.70
20.14
22.36
24.53
26.03
26.49
25.78
23.91
20.95
16.99
12.14
6.63
0.77
-5.07
-10.60
-15.74
-20.70
-25.97
-32.12
-39.51
-47.94
-56.40
-63.15
-66.10
-63.51
-54.58
-39.94
-21.47
-1.77
16.56
31.62
42.41
48.82
51.22
50.30
46.89
42.00
36.85
32.70
30.59
30.99
33.70
37.91
42.64
47.03
50.74
53.87
56.81
59.88
63.22
66.68
70.03
73.01
75.36
76.75
76.68
74.58
70.00
62.81
53.23
41.67
28.57
14.30
-0.55
-14.88
-26.93
-34.60
-36.23
-31.34
-21.12
-8.13
4.53
14.26
19.57
20.31
17.23
11.47
4.19
-3.60
-10.98
-17.13
-21.34
-23.26
-22.90
-20.75
-17.59
-14.29
-11.61
-10.01
-9.66
-10.48
-12.25
-14.76
-17.86
-21.62
-26.13
-31.39
-37.26
-43.38
-49.34
-54.87
-60.00
-65.11
-70.75
-77.27
-84.52
-91.52
-96.54
-97.54
-92.73
-81.33
-63.91
-42.33
-19.20
2.74
21.35
35.34
44.26
48.24
47.82
43.76
37.08
29.02
20.88
13.76
8.37
4.80
2.64
1.28
0.22
-0.71
-1.30
-1.18
-0.10
1.76
3.81
5.31
5.71
4.92
3.30
1.46
-0.15
-1.48
-2.95
-5.18
-8.67
-13.62
-19.82
-26.72
-33.47
-38.95
-41.82
-40.60
-33.93
-20.83
-0.97
25.18
56.30
90.20
124.01
154.41
178.18
192.65
196.32
189.25
173.16
150.97
126.10
101.66
79.77
61.26
45.85
32.50
20.07
7.71
-4.88
-17.50
-29.71
-41.12
-51.54
-61.07
-69.91
-78.24
-86.11
-93.33
-99.58
-104.59
-108.30
-110.97
-113.18
-115.52
-118.30
-121.25
-123.52
-123.82
-120.86
-113.80
-102.53
-87.75
-70.76
-53.12
-36.30
-21.46
-9.40
-0.49
5.19
7.90
8.15
6.73
4.58
2.61
1.58
1.86
3.51
6.24
9.56
12.94
15.92
18.07
19.10
18.77
17.05
14.09
10.26
6.07
1.95
-1.85
-5.41
-9.09
-13.40
-18.78
-25.37
-32.87
-40.36
-46.37
-49.16
-47.17
-39.56
-26.64
-9.90
8.31
25.42
39.33
48.91
53.94
54.99
52.88
48.48
42.59
35.96
29.39
23.67
19.45
17.03
16.31
16.77
17.67
18.28
18.06
16.75
14.36
11.10
7.23
3.02
-1.34
-5.78
-10.31
-15.03
-20.09
-25.68
-32.01
-39.16
-46.87
-54.29
-59.96
-62.07
-58.95
-49.77
-34.93
-16.10
4.18
23.27
39.08
50.46
57.28
60.14
59.96
57.71
54.24
50.22
46.25
42.85
40.46
39.44
39.86
41.50
43.82
46.12
47.68
47.97
46.76
44.07
40.11
35.20
29.69
23.93
18.18
12.51
6.74
0.42
-7.07
-16.21
-27.01
-38.71
-49.80
-58.29
-62.38
-61.04
-54.55
-44.39
-32.88
-22.41
-14.82
-11.03
-11.03
-14.19
-19.48
-25.79
-32.06
-37.30
-40.81
-42.18
-41.45
-39.04
-35.64
-32.05
-29.01
-27.09
-26.55
-27.31
-28.92
-30.73
-32.07
-32.49
-31.93
-30.69
-29.36
-28.59
-28.96
-30.75
-33.81
-37.40
-40.03
-39.71
-34.42
-22.75
-4.52
18.96
45.19
71.12
93.95
111.66
123.19
128.37
127.60
121.75
112.02
99.92
87.11
75.20
65.47
58.65
54.83
53.39
53.20
52.88
51.15
47.26
41.20
33.69
25.77
18.38
11.90
6.14
0.45
-5.86
-13.21
-21.66
-30.94
-40.54
-49.65
-57.11
-61.46
-61.20
-55.38
-44.02
-28.47
-11.08
5.37
18.59
27.25
31.17
30.99
27.72
22.33
15.58
8.17
0.81
-5.67
-10.52
-13.25
-13.90
-13.05
-11.73
-11.05
-11.85
-14.42
-18.43
-23.21
-28.00
-32.32
-36.13
-39.66
-43.29
-47.29
-51.86
-57.16
-63.41
-70.67
-78.53
-85.80
-90.49
-90.33
-83.62
-70.09
-51.17
-29.73
-9.16
7.74
19.38
25.57
27.15
25.38
21.49
16.54
11.35
6.73
3.40
1.95
2.61
5.15
8.90
12.93
16.30
18.30
18.58
17.21
14.50
10.88
6.83
2.68
-1.33
-5.11
-8.75
-12.52
-16.91
-22.58
-30.03
-39.32
-49.60
-59.00
-64.94
-64.80
-56.95
-41.38
-20.01
3.90
26.69
45.37
58.28
65.18
66.87
64.59
59.62
53.09
46.00
39.34
33.96
30.49
29.13
29.61
31.27
33.21
34.56
34.64
33.08
29.83
25.16
19.50
13.37
7.17
1.17
-4.63
-10.42
-16.49
-23.22
-30.88
-39.53
-48.76
-57.49
-63.94
-66.01
-61.87
-50.69
-33.18
-11.50
11.26
31.99
48.30
58.99
63.98
63.96
60.03
53.40
45.28
36.86
29.20
23.11
19.04
16.98
16.57
17.20
18.17
18.85
18.68
17.33
14.64
10.76
6.00
0.77
-4.56
-9.83
-15.03
-20.40
-26.25
-32.92
-40.66
-49.41
-58.54
-66.68
-71.83
-71.75
-64.73
-50.28
-29.56
-5.15
19.61
41.62
58.72
69.98
75.55
76.18
72.85
66.56
58.35
49.34
40.74
33.63
28.77
26.35
26.00
26.91
28.09
28.59
27.68
25.02
20.61
14.76
7.97
0.74
-6.55
-13.79
-21.13
-28.96
-37.70
-47.68
-58.85
-70.56
-81.42
-89.35
-92.05
-87.62
-75.35
-56.14
-32.43
-7.62
14.93
32.66
44.40
50.18
50.94
47.96
42.44
35.46
27.93
20.65
14.33
9.58
6.72
5.74
6.27
7.59
8.92
9.48
8.83
6.85
3.75
-0.07
-4.21
-8.42
-12.68
-17.18
-22.33
-28.62
-36.48
-46.05
-56.89
-67.70
-76.37
-80.38
-77.49
-66.65
-48.42
-25.04
0.19
23.87
43.37
57.27
65.35
68.25
66.90
62.34
55.59
47.74
39.99
33.46
28.96
26.75
26.52
27.45
28.54
28.87
27.83
25.15
20.85
15.23
8.73
1.90
-4.74
-10.83
-16.29
-21.44
-26.81
-33.13
-40.94
-50.37
-60.84
-70.90
-78.40
-80.83
-76.19
-63.61
-43.94
-19.64
5.82
28.96
47.13
59.06
64.79
65.24
61.72
55.57
47.96
39.99
32.68
26.90
23.24
21.88
22.47
24.26
26.34
27.85
28.23
27.29
25.16
22.10
18.42
14.32
9.93
5.33
0.55
-4.44
-9.76
-15.75
-22.87
-31.39
-41.10
-50.84
-58.59
-61.82
-58.30
-46.99
-28.58
-5.46
18.95
41.19
58.68
70.19
75.77
76.28
72.87
66.56
58.25
48.79
39.10
30.23
23.15
18.49
16.38
16.34
17.48
18.72
19.14
18.21
15.84
12.29
8.01
3.42
-1.24
-5.88
-10.62
-15.66
-21.31
-27.90
-35.69
-44.64
-54.11
-62.75
-68.57
-69.41
-63.66
-50.94
-32.40
-10.54
11.43
30.56
44.78
53.30
56.36
54.88
49.89
42.39
33.29
23.60
14.49
7.13
2.39
0.52
1.05
2.92
4.93
6.08
5.89
4.36
1.78
-1.45
-5.03
-8.78
-12.64
-16.66
-20.98
-25.87
-31.66
-38.66
-46.82
-55.49
-63.30
-68.33
-68.57
-62.59
-50.22
-32.65
-12.25
8.09
25.80
39.13
47.39
50.68
49.57
44.76
37.10
27.54
17.29
7.75
0.23
-4.37
-5.87
-4.84
-2.44
0.02
1.49
1.51
0.21
-1.92
-4.32
-6.70
-9.10
-11.83
-15.31
-19.98
-26.08
-33.69
-42.50
-51.65
-59.64
-64.48
-64.18
-57.39
-43.94
-25.14
-3.43
18.26
37.24
51.60
60.46
63.78
62.09
56.28
47.45
36.87
25.97
16.14
8.55
3.86
2.09
2.60
4.28
5.92
6.57
5.82
3.84
1.15
-1.66
-4.30
-6.94
-10.09
-14.41
-20.35
-28.02
-36.96
-46.22
-54.34
-59.50
-59.93
-54.31
-42.35
-25.03
-4.56
16.22
34.53
48.39
56.84
59.90
58.25
52.79
44.58
34.74
24.53
15.33
8.31
4.20
3.00
3.95
5.83
7.31
7.40
5.77
2.75
-0.89
-4.38
-7.35
-9.99
-13.07
-17.63
-24.42
-33.55
-44.12
-54.34
-61.84
-64.36
-60.40
-49.71
-33.37
-13.57
7.01
25.82
40.95
51.33
56.61
57.00
53.06
45.70
36.14
25.88
16.56
9.57
5.68
4.85
6.22
8.50
10.39
11.03
10.20
8.25
5.70
3.02
0.28
-2.75
-6.56
-11.65
-18.35
-26.65
-36.03
-45.41
-53.12
-57.20
-55.88
-48.24
-34.57
-16.53
3.34
22.26
37.92
48.99
55.05
56.38
53.60
47.44
38.78
28.71
18.59
9.85
3.64
0.44
-0.06
1.11
2.64
3.46
3.04
1.49
-0.69
-2.98
-5.15
-7.35
-10.00
-13.62
-18.64
-25.30
-33.42
-42.40
-50.98
-57.43
-59.80
-56.57
-47.22
-32.55
-14.58
4.08
20.93
34.23
43.17
47.70
48.18
45.06
38.92
30.49
20.88
11.50
3.76
-1.30
-3.38
-2.96
-1.13
0.85
1.90
1.49
-0.39
-3.34
-6.81
-10.31
-13.58
-16.63
-19.71
-23.29
-27.86
-33.74
-40.75
-47.94
-53.65
-55.77
-52.48
-42.87
-27.48
-8.23
12.06
30.59
45.24
54.98
59.79
60.29
57.27
51.49
43.70
34.77
25.79
17.98
12.40
9.61
9.48
11.19
13.57
15.49
16.21
15.54
13.77
11.40
8.85
6.26
3.48
0.19
-3.90
-8.94
-14.94
-21.82
-29.35
-37.04
-43.96
-48.71
-49.66
-45.46
-35.67
-21.01
-3.43
14.51
30.35
42.26
49.48
52.08
50.75
46.40
39.95
32.25
24.19
16.63
10.37
6.06
3.98
3.96
5.38
7.33
8.94
9.57
9.04
7.49
5.31
2.79
0.08
-2.90
-6.26
-10.12
-14.50
-19.42
-24.96
-31.11
-37.70
-44.04
-48.89
-50.64
-47.79
-39.58
-26.39
-9.79
7.90
24.26
37.42
46.42
51.17
52.15
50.06
45.59
39.40
32.17
24.67
17.68
11.92
7.81
5.38
4.30
3.99
3.77
3.14
1.79
-0.28
-2.85
-5.62
-8.38
-11.07
-13.81
-16.80
-20.24
-24.28
-29.01
-34.42
-40.30
-46.04
-50.57
-52.46
-50.35
-43.45
-32.00
-17.29
-1.37
13.63
25.97
34.70
39.55
40.74
38.71
34.02
27.36
19.66
12.00
5.47
0.83
-1.61
-2.14
-1.41
-0.12
1.13
2.05
2.56
2.67
2.41
1.76
0.65
-0.98
-3.22
-6.21
-10.14
-15.24
-21.61
-29.02
-36.77
-43.67
-48.24
-49.17
-45.76
-38.19
-27.60
-15.74
-4.39
5.04
11.85
15.92
17.49
16.83
14.24
10.01
4.71
-0.86
-5.70
-8.91
-9.99
-8.99
-6.48
-3.39
-0.64
1.06
1.44
0.65
-0.91
-2.77
-4.67
-6.61
-8.85
-11.74
-15.55
-20.44
-26.38
-33.11
-40.03
-46.10
-49.93
-50.04
-45.36
-35.74
-22.13
-6.39
9.25
22.82
33.10
39.64
42.61
42.41
39.51
34.42
27.84
20.70
14.08
8.99
6.05
5.34
6.38
8.33
10.27
11.47
11.52
10.39
8.29
5.55
2.50
-0.69
-4.00
-7.56
-11.58
-16.29
-21.87
-28.44
-35.83
-43.48
-50.26
-54.57
-54.75
-49.64
-39.16
-24.53
-7.93
8.15
21.64
31.34
36.96
38.77
37.29
33.05
26.70
19.11
11.37
4.63
-0.17
-2.60
-2.74
-1.17
1.33
3.90
5.80
6.51
5.76
3.64
0.45
-3.36
-7.42
-11.55
-15.78
-20.27
-25.18
-30.59
-36.54
-42.98
-49.62
-55.79
-60.25
-61.34
-57.46
-47.70
-32.41
-13.24
7.23
26.19
41.39
51.60
56.61
57.03
53.89
48.31
41.41
34.19
27.56
22.30
18.99
17.92
18.99
21.66
25.10
28.26
30.24
30.47
28.89
25.80
21.77
17.27
12.54
7.58
2.30
-3.36
-9.30
-15.40
-21.63
-28.21
-35.34
-42.85
-49.87
-54.75
-55.54
-50.71
-39.88
-24.16
-5.78
12.53
28.39
40.23
47.41
49.94
48.23
42.95
35.03
25.70
16.36
8.32
2.51
-0.75
-1.67
-0.87
0.93
3.07
5.08
6.62
7.44
7.32
6.09
3.77
0.52
-3.28
-7.14
-10.63
-13.50
-15.87
-18.18
-21.07
-25.22
-30.96
-38.06
-45.56
-51.86
-55.11
-53.73
-46.83
-34.68
-18.62
-0.80
16.38
30.79
40.98
46.33
46.98
43.66
37.46
29.64
21.45
13.99
8.03
3.94
1.70
0.99
1.35
2.30
3.41
4.30
4.64
4.11
2.46
-0.44
-4.48
-9.36
-14.64
-19.84
-24.67
-29.14
-33.55
-38.44
-44.39
-51.70
-60.14
-68.72
-75.82
-79.48
-77.99
-70.48
-57.35
-40.19
-21.42
-3.64
11.02
21.27
26.67
27.46
24.32
18.22
10.37
2.14
-5.00
-9.76
-11.38
-9.79
-5.63
-0.10
5.42
9.77
12.23
12.60
11.15
8.37
4.78
0.80
-3.36
-7.62
-12.01
-16.61
-21.68
-27.55
-34.55
-42.65
-51.12
-58.32
-61.95
-59.74
-50.36
-34.02
-12.62
10.78
32.89
51.09
63.93
71.12
73.23
71.19
66.10
59.13
51.53
44.62
39.56
37.14
37.54
40.32
44.60
49.36
53.76
57.27
59.71
61.04
61.25
60.25
57.97
54.46
49.94
44.80
39.43
34.06
28.63
22.80
16.07
8.01
-1.51
-11.98
-22.08
-29.84
-33.10
-30.30
-21.11
-6.83
10.01
26.40
39.75
48.53
52.33
51.60
47.10
39.69
30.24
19.76
9.46
0.60
-5.78
-9.19
-9.76
-8.24
-5.66
-3.16
-1.64
-1.64
-3.27
-6.26
-10.14
-14.42
-18.79
-23.21
-27.86
-33.08
-39.23
-46.65
-55.49
-65.46
-75.66
-84.38
-89.40
-88.55
-80.51
-65.48
-45.30
-22.92
-1.58
16.11
28.62
35.50
37.01
33.88
27.14
18.17
8.80
1.07
-3.28
-3.24
1.08
8.54
17.30
25.40
31.30
34.14
33.81
30.83
26.04
20.35
14.49
8.85
3.51
-1.78
-7.50
-14.18
-22.19
-31.34
-40.54
-47.73
-50.26
-45.65
-32.65
-11.94
13.86
40.87
65.19
83.97
95.98
101.45
101.47
97.31
90.10
80.88
70.82
61.32
53.86
49.57
48.87
51.28
55.49
59.85
62.80
63.32
61.12
56.53
50.27
43.11
35.70
28.32
20.99
13.55
5.75
-2.66
-11.90
-22.12
-33.26
-44.75
-55.40
-63.34
-66.49
-63.28
-53.35
-37.97
-19.83
-2.30
11.63
20.05
22.52
19.79
13.30
4.69
-4.47
-12.80
-19.09
-22.43
-22.34
-18.93
-12.99
-5.75
1.36
7.04
10.42
11.15
9.46
5.98
1.60
-2.80
-6.54
-9.32
-11.20
-12.51
-13.77
-15.44
-17.89
-21.27
-25.40
-29.58
-32.48
-32.39
-27.59
-17.13
-1.35
17.94
37.93
55.61
68.66
75.97
77.63
74.53
67.84
58.67
48.05
36.95
26.45
17.59
11.20
7.60
6.55
7.36
9.06
10.78
11.91
12.13
11.32
9.44
6.38
2.08
-3.42
-9.85
-16.69
-23.31
-29.18
-34.02
-37.96
-41.54
-45.48
-50.47
-56.71
-63.62
-69.75
-73.13
-71.84
-64.73
-52.01
-35.24
-16.89
0.41
14.62
24.63
30.25
31.85
30.09
25.69
19.48
12.39
5.47
-0.27
-4.12
-5.78
-5.46
-3.71
-1.27
1.17
3.04
3.98
3.81
2.53
0.25
-2.82
-6.43
-10.34
-14.34
-18.35
-22.39
-26.70
-31.63
-37.51
-44.39
-51.65
-57.92
-61.33
-60.04
-53.01
-40.50
-24.18
-6.62
9.49
22.13
30.35
34.19
34.27
31.36
26.10
19.05
10.86
2.43
-5.15
-10.78
-13.77
-14.00
-12.08
-9.05
-6.10
-4.17
-3.74
-4.79
-6.94
-9.67
-12.49
-15.10
-17.37
-19.41
-21.49
-24.05
-27.55
-32.34
-38.32
-44.73
-50.13
-52.55
-50.18
-41.98
-28.20
-10.49
8.51
25.96
39.59
48.18
51.61
50.57
46.07
39.20
31.00
22.50
14.75
8.69
4.95
3.66
4.36
6.18
8.07
9.15
8.95
7.51
5.18
2.46
-0.27
-2.94
-5.69
-8.84
-12.69
-17.42
-23.16
-29.94
-37.64
-45.77
-53.27
-58.45
-59.33
-54.23
-42.51
-25.03
-4.07
17.32
36.15
50.30
58.92
62.30
61.39
57.34
51.20
43.85
36.13
28.90
23.02
19.12
17.35
17.34
18.21
18.91
18.55
16.69
13.40
9.13
4.42
-0.36
-5.09
-9.83
-14.66
-19.54
-24.44
-29.41
-34.74
-40.75
-47.43
-54.06
-59.07
-60.42
-56.33
-46.04
-30.40
-11.64
7.34
23.87
36.19
43.70
46.72
45.97
42.17
35.97
28.09
19.43
11.17
4.49
0.28
-1.16
-0.24
2.11
4.72
6.59
7.08
5.96
3.35
-0.34
-4.70
-9.33
-13.98
-18.60
-23.23
-27.99
-33.00
-38.34
-44.11
-50.29
-56.66
-62.55
-66.77
-67.75
-64.07
-54.98
-40.93
-23.59
-5.43
10.96
23.63
31.57
34.80
34.03
30.26
24.57
17.95
11.34
5.60
1.47
-0.60
-0.45
1.66
5.13
9.18
12.97
15.78
17.13
16.81
14.87
11.60
7.41
2.72
-2.09
-6.82
-11.38
-15.85
-20.42
-25.45
-31.31
-38.28
-46.19
-54.18
-60.67
-63.60
-61.10
-52.16
-37.18
-17.97
2.69
21.88
37.24
47.41
52.15
52.04
48.17
41.74
33.98
25.98
18.66
12.74
8.69
6.70
6.65
8.11
10.44
12.89
14.77
15.57
15.03
13.16
10.15
6.26
1.81
-2.95
-7.78
-12.53
-17.12
-21.66
-26.47
-32.00
-38.62
-46.29
-54.27
-61.03
-64.53
-62.80
-54.73
-40.56
-22.00
-1.81
17.08
32.27
42.42
47.33
47.55
44.06
37.92
30.21
22.03
14.47
8.58
5.11
4.32
5.90
9.06
12.75
16.03
18.23
19.10
18.69
17.19
14.77
11.51
7.48
2.79
-2.37
-7.68
-12.95
-18.24
-23.89
-30.37
-37.96
-46.32
-54.34
-60.19
-61.85
-57.79
-47.55
-32.00
-13.12
6.46
24.24
38.28
47.51
51.71
51.29
47.11
40.28
32.08
23.77
16.49
11.04
7.78
6.63
7.15
8.73
10.75
12.66
14.00
14.37
13.54
11.43
8.21
4.20
-0.18
-4.59
-8.78
-12.70
-16.44
-20.28
-24.61
-29.82
-36.14
-43.30
-50.28
-55.43
-56.79
-52.72
-42.58
-27.04
-7.99
11.97
30.26
44.90
54.81
59.79
60.30
57.16
51.39
44.12
36.49
29.53
24.02
20.40
18.67
18.54
19.53
21.05
22.53
23.46
23.43
22.15
19.56
15.80
11.19
6.11
0.94
-4.09
-8.90
-13.57
-18.32
-23.50
-29.49
-36.50
-44.32
-52.10
-58.31
-60.96
-58.25
-49.17
-34.09
-14.72
6.25
25.87
41.75
52.53
57.91
58.47
55.21
49.31
41.92
34.14
27.01
21.40
17.83
16.41
16.79
18.24
19.93
21.10
21.24
20.14
17.75
14.19
9.56
4.06
-2.09
-8.55
-14.96
-21.00
-26.53
-31.68
-36.81
-42.40
-48.75
-55.77
-62.65
-67.90
-69.62
-66.03
-56.12
-40.20
-19.91
2.08
22.79
39.72
51.33
57.23
57.96
54.63
48.55
41.03
33.26
26.23
20.74
17.28
15.95
16.43
18.04
19.95
21.41
21.86
21.13
19.28
16.53
13.09
9.10
4.64
-0.27
-5.52
-10.99
-16.54
-22.09
-27.75
-33.76
-40.45
-47.93
-55.76
-62.69
-66.82
-66.07
-58.99
-45.45
-26.84
-5.81
14.59
31.74
44.02
50.93
52.84
50.63
45.37
38.20
30.31
22.86
16.85
12.98
11.41
11.86
13.65
15.94
17.98
19.22
19.39
18.40
16.26
13.02
8.78
3.76
-1.73
-7.33
-12.73
-17.77
-22.51
-27.20
-32.23
-38.11
-45.14
-53.27
-61.66
-68.71
-72.24
-70.17
-61.29
-45.86
-25.74
-3.79
16.83
33.63
45.20
51.26
52.35
49.43
43.64
36.16
28.25
21.13
15.88
13.16
13.06
15.06
18.22
21.44
23.85
24.98
24.78
23.49
21.39
18.59
15.00
10.49
5.02
-1.15
-7.52
-13.53
-18.74
-23.15
-27.17
-31.56
-37.05
-43.99
-51.91
-59.38
-64.31
-64.46
-58.32
-45.65
-27.72
-6.96
13.73
31.79
45.50
54.12
57.70
56.75
52.07
44.73
36.01
27.42
20.42
16.03
14.56
15.53
17.86
20.34
22.12
22.84
22.71
22.06
21.08
19.64
17.37
13.91
9.19
3.48
-2.69
-8.71
-14.17
-18.91
-23.06
-27.00
-31.25
-36.43
-42.95
-50.72
-58.89
-65.73
-69.01
-66.65
-57.49
-41.91
-21.83
-0.17
20.01
36.35
47.67
53.85
55.45
53.28
48.16
40.93
32.69
24.70
18.30
14.45
13.40
14.58
16.84
18.97
20.17
20.32
19.76
18.92
17.95
16.54
14.11
10.20
4.78
-1.65
-8.29
-14.37
-19.45
-23.58
-27.25
-31.15
-36.00
-42.19
-49.62
-57.41
-63.93
-67.12
-65.09
-56.78
-42.46
-23.84
-3.56
15.55
31.23
42.17
48.10
49.47
47.07
41.84
34.77
26.93
19.48
13.48
9.65
8.20
8.79
10.59
12.70
14.38
15.22
15.10
14.04
12.01
8.91
4.63
-0.80
-7.09
-13.73
-20.13
-25.89
-30.93
-35.61
-40.57
-46.52
-53.93
-62.59
-71.53
-78.95
-82.71
-80.91
-72.58
-58.09
-39.15
-18.31
1.79
18.96
31.92
40.17
43.88
43.51
39.84
33.90
26.99
20.53
15.78
13.45
13.56
15.42
18.07
20.56
22.33
23.21
23.24
22.45
20.70
17.76
13.51
8.13
2.08
-3.98
-9.55
-14.42
-18.79
-23.14
-28.05
-34.01
-41.22
-49.43
-57.71
-64.52
-67.88
-65.89
-57.38
-42.45
-22.68
-0.72
20.40
38.07
50.65
57.67
59.54
57.24
51.98
45.00
37.57
30.80
25.63
22.55
21.62
22.38
24.14
26.18
27.94
29.09
29.48
28.94
27.24
24.18
19.68
13.92
7.31
0.42
-6.25
-12.37
-17.87
-22.88
-27.76
-33.06
-39.29
-46.73
-55.00
-62.81
-68.12
-68.61
-62.59
-49.76
-31.45
-10.35
10.43
28.16
41.22
49.09
52.13
51.08
46.86
40.44
32.98
25.76
20.00
16.62
15.89
17.40
20.27
23.43
26.04
27.66
28.24
27.95
26.88
24.96
21.98
17.77
12.39
6.21
-0.24
-6.37
-11.82
-16.56
-20.85
-25.25
-30.42
-36.88
-44.77
-53.53
-61.76
-67.41
-68.24
-62.61
-50.10
-31.87
-10.41
11.21
30.15
44.45
53.26
56.70
55.52
50.85
43.97
36.30
29.17
23.73
20.69
20.13
21.55
24.06
26.64
28.54
29.39
29.20
28.16
26.41
23.91
20.46
15.85
10.07
3.43
-3.48
-10.06
-15.85
-20.81
-25.28
-29.87
-35.26
-41.94
-49.96
-58.64
-66.55
-71.71
-72.04
-66.08
-53.59
-35.78
-15.02
5.76
23.94
37.70
46.30
49.85
49.01
44.72
38.11
30.40
22.84
16.59
12.42
10.64
10.98
12.78
15.23
17.57
19.30
20.15
20.04
18.92
16.72
13.37
8.90
3.48
-2.46
-8.43
-13.97
-18.84
-23.13
-27.19
-31.59
-36.89
-43.48
-51.28
-59.54
-66.78
-70.99
-70.19
-63.06
-49.58
-31.15
-10.28
10.15
27.66
40.63
48.47
51.32
49.83
44.90
37.66
29.42
21.55
15.27
11.36
10.04
10.93
13.25
16.10
18.70
20.49
21.18
20.67
18.94
16.01
11.93
6.84
0.99
-5.25
-11.44
-17.20
-22.36
-27.05
-31.75
-37.16
-43.89
-52.10
-61.08
-69.15
-74.01
-73.37
-65.84
-51.51
-32.02
-10.11
11.24
29.55
43.26
51.80
55.31
54.37
49.88
43.00
35.10
27.64
21.85
18.48
17.60
18.70
20.95
23.45
25.57
26.94
27.40
26.85
25.12
22.06
17.61
11.94
5.45
-1.26
-7.66
-13.47
-18.72
-23.75
-29.09
-35.32
-42.80
-51.49
-60.62
-68.67
-73.58
-73.29
-66.39
-52.77
-33.81
-12.01
9.66
28.55
42.82
51.66
55.11
53.77
48.68
41.23
32.99
25.54
20.20
17.63
17.80
19.99
23.16
26.24
28.50
29.61
29.55
28.49
26.58
23.85
20.22
15.63
10.08
3.80
-2.85
-9.42
-15.56
-21.13
-26.30
-31.54
-37.48
-44.62
-52.95
-61.67
-69.06
-72.86
-70.85
-61.74
-45.75
-24.76
-1.79
19.89
37.67
50.12
57.00
58.86
56.59
51.10
43.41
34.75
26.54
20.26
16.89
16.69
19.03
22.65
26.20
28.69
29.77
29.61
28.57
26.91
24.59
21.30
16.81
11.10
4.54
-2.25
-8.65
-14.28
-19.10
-23.45
-27.86
-32.91
-39.09
-46.57
-55.05
-63.53
-70.35
-73.45
-70.92
-61.76
-46.28
-26.22
-4.34
16.39
33.53
45.62
52.25
53.86
51.35
45.84
38.56
30.75
23.67
18.35
15.43
14.96
16.47
19.05
21.73
23.78
24.83
24.88
24.02
22.28
19.49
15.39
9.79
2.89
-4.76
-12.35
-19.14
-24.72
-29.19
-33.13
-37.44
-42.94
-50.07
-58.57
-67.28
-74.27
-77.23
-74.15
-64.09
-47.53
-26.47
-3.77
17.54
35.06
47.41
54.20
55.77
52.90
46.69
38.45
29.75
22.15
16.93
14.69
15.21
17.61
20.73
23.51
25.34
26.01
25.60
24.19
21.76
18.25
13.61
7.97
1.63
-4.97
-11.43
-17.43
-22.83
-27.75
-32.54
-37.77
-44.05
-51.63
-60.04
-67.86
-72.88
-72.72
-65.67
-51.46
-31.47
-8.39
14.56
34.56
49.74
59.36
63.53
62.85
58.19
50.66
41.63
32.70
25.38
20.78
19.26
20.37
23.08
26.17
28.59
29.79
29.66
28.41
26.30
23.45
19.74
14.92
8.83
1.58
-6.33
-14.15
-21.09
-26.70
-31.03
-34.65
-38.47
-43.41
-50.02
-58.10
-66.54
-73.35
-76.19
-72.96
-62.64
-45.72
-24.22
-1.11
20.50
38.20
50.64
57.52
59.27
56.70
50.84
42.95
34.48
26.97
21.69
19.29
19.68
22.08
25.30
28.24
30.14
30.74
30.21
28.87
27.00
24.62
21.47
17.21
11.55
4.57
-3.26
-11.14
-18.27
-24.12
-28.71
-32.59
-36.62
-41.70
-48.34
-56.39
-64.79
-71.68
-74.72
-71.83
-61.95
-45.52
-24.53
-1.97
19.09
36.31
48.46
55.37
57.49
55.49
50.20
42.57
33.91
25.75
19.49
16.05
15.57
17.38
20.31
23.17
25.12
25.85
25.53
24.47
22.93
20.88
18.13
14.40
9.61
3.91
-2.36
-8.71
-14.71
-20.09
-24.79
-29.01
-33.18
-37.84
-43.56
-50.59
-58.60
-66.44
-72.24
-73.88
-69.64
-58.90
-42.49
-22.45
-1.46
17.94
33.94
45.59
52.68
55.35
53.94
49.01
41.52
32.94
25.00
19.33
16.91
17.83
21.27
25.98
30.75
34.85
38.09
40.66
42.76
44.38
45.25
45.02
43.51
40.92
37.83
35.06
33.40
33.39
35.20
38.56
42.92
47.58
51.91
55.62
58.88
62.32
66.86
73.28
81.82
91.88
102.05
110.34
114.77
113.84
106.85
93.96
76.02
54.29
30.24
5.38
-18.70
-40.50
-58.75
-72.71
-82.40
-88.60
-92.62
-95.85
-99.22
-102.98
-106.75
-109.82
-111.54
-111.69
-110.42
-108.18
-105.46
-102.58
-99.69
-96.76
-93.71
-90.53
-87.38
-84.53
-82.43
-81.41
-81.60
-82.58
-83.43
-82.75
-79.10
-71.45
-59.58
-44.17
-26.71
-9.02
7.17
20.52
30.26
36.12
38.18
36.90
33.01
27.49
21.53
16.19
12.26
10.02
9.27
9.50
10.15
10.78
11.20
11.36
11.19
10.54
9.12
6.69
3.10
-1.54
-6.89
-12.49
-17.89
-22.81
-27.16
-31.07
-34.87
-38.98
-43.80
-49.50
-55.78
-61.62
-65.43
-65.41
-60.11
-49.12
-33.31
-14.68
4.21
20.95
33.86
42.16
45.91
45.67
42.27
36.72
30.14
23.74
18.62
15.58
14.85
16.03
18.34
20.82
22.80
23.98
24.43
24.31
23.70
22.41
20.13
16.62
11.91
6.30
0.30
-5.60
-11.08
-16.06
-20.68
-25.28
-30.32
-36.24
-43.26
-50.99
-58.24
-63.14
-63.61
-58.14
-46.43
-29.69
-10.34
8.77
25.15
37.21
44.46
47.14
45.92
41.61
35.17
27.65
20.31
14.32
10.57
9.33
10.26
12.56
15.26
17.62
19.20
19.85
19.52
18.11
15.50
11.62
6.60
0.82
-5.15
-10.79
-15.84
-20.38
-24.81
-29.73
-35.73
-43.09
-51.65
-60.45
-67.83
-71.68
-70.03
-61.77
-47.19
-28.01
-6.96
12.97
29.33
40.69
46.71
47.92
45.32
40.02
33.14
25.71
18.71
13.01
9.25
7.76
8.46
10.86
14.13
17.36
19.70
20.53
19.62
17.07
13.21
8.52
3.48
-1.58
-6.52
-11.43
-16.54
-22.16
-28.56
-35.99
-44.39
-53.26
-61.43
-67.07
-68.12
-62.91
-50.88
-33.05
-11.79
9.83
28.98
43.75
53.39
58.12
58.58
55.54
49.79
42.29
34.23
26.99
21.81
19.43
19.87
22.37
25.74
28.71
30.32
30.08
27.97
24.27
19.39
13.69
7.47
0.97
-5.58
-12.00
-18.20
-24.32
-30.74
-38.09
-46.79
-56.63
-66.35
-73.68
-75.89
-70.72
-57.45
-37.33
-13.32
10.87
31.95
47.86
57.99
62.78
63.18
60.17
54.71
47.84
40.80
34.84
30.91
29.38
29.93
31.77
33.94
35.68
36.53
36.28
34.83
32.04
27.83
22.26
15.60
8.33
1.00
-5.95
-12.34
-18.28
-24.15
-30.40
-37.50
-45.63
-54.46
-62.89
-69.10
-70.85
-66.21
-54.32
-35.93
-13.35
10.15
31.29
47.65
58.10
62.67
62.21
57.87
50.93
42.78
34.84
28.50
24.77
24.00
25.74
28.96
32.40
35.08
36.51
36.71
35.89
34.24
31.71
28.10
23.20
17.08
10.07
2.78
-4.19
-10.35
-15.54
-20.01
-24.38
-29.51
-36.11
-44.39
-53.61
-61.96
-66.91
-66.01
-57.76
-42.40
-21.87
0.64
21.78
38.97
50.88
57.39
59.10
56.85
51.55
44.16
35.91
28.24
22.57
19.89
20.32
23.08
26.77
29.92
31.49
31.23
29.59
27.32
25.02
22.80
20.26
16.78
11.88
5.58
-1.61
-8.83
-15.30
-20.60
-24.80
-28.37
-32.01
-36.39
-41.97
-48.78
-56.28
-63.25
-67.90
-68.28
-62.90
-51.34
-34.52
-14.58
5.75
23.95
38.19
47.59
52.00
51.81
47.68
40.62
31.96
23.30
16.20
11.80
10.48
11.82
14.73
17.96
20.53
21.93
22.21
21.70
20.71
19.30
17.17
13.93
9.34
3.58
-2.79
-8.99
-14.39
-18.76
-22.38
-25.80
-29.70
-34.62
-40.80
-48.08
-55.76
-62.53
-66.66
-66.30
-60.11
-47.86
-30.66
-10.75
9.10
26.39
39.37
47.32
50.38
49.25
44.92
38.52
31.25
24.28
18.59
14.76
12.94
12.83
13.84
15.33
16.78
17.91
18.58
18.70
18.08
16.43
13.51
9.19
3.67
-2.58
-8.94
-14.91
-20.19
-24.84
-29.21
-33.85
-39.30
-45.89
-53.51
-61.36
-67.98
-71.44
-69.88
-62.16
-48.38
-29.99
-9.44
10.47
27.39
39.80
47.22
49.93
48.67
44.42
38.18
31.08
24.23
18.67
15.07
13.63
14.01
15.53
17.46
19.19
20.43
21.05
21.01
20.18
18.42
15.59
11.67
6.84
1.44
-4.12
-9.43
-14.23
-18.48
-22.40
-26.44
-31.18
-36.98
-43.69
-50.40
-55.55
-57.25
-53.92
-44.94
-30.87
-13.50
4.77
21.51
34.91
43.99
48.61
49.18
46.39
41.08
34.18
26.72
19.77
14.27
10.80
9.42
9.71
11.00
12.62
14.05
15.08
15.58
15.47
14.55
12.59
9.46
5.21
0.17
-5.23
-10.50
-15.37
-19.79
-23.98
-28.33
-33.28
-39.16
-45.88
-52.78
-58.52
-61.31
-59.49
-52.04
-39.21
-22.51
-4.36
12.64
26.44
35.96
41.07
42.29
40.40
36.16
30.35
23.75
17.27
11.76
7.84
5.76
5.34
6.15
7.65
9.36
10.92
12.04
12.47
12.00
10.47
7.83
4.20
-0.18
-4.94
-9.67
-14.09
-18.08
-21.80
-25.64
-30.13
-35.63
-42.06
-48.67
-54.10
-56.63
-54.72
-47.61
-35.58
-20.07
-3.21
12.74
25.99
35.56
41.22
43.27
42.23
38.71
33.36
26.96
20.39
14.46
9.82
6.77
5.27
5.10
5.95
7.50
9.35
11.05
12.09
12.06
10.73
8.19
4.74
0.75
-3.45
-7.65
-11.78
-15.85
-20.04
-24.60
-29.91
-36.15
-43.11
-49.88
-54.93
-56.46
-53.02
-44.06
-30.35
-13.76
3.29
18.47
30.18
37.77
41.32
41.39
38.72
34.00
27.92
21.24
14.76
9.26
5.35
3.28
2.98
4.02
5.81
7.71
9.11
9.59
8.97
7.25
4.66
1.50
-2.00
-5.72
-9.72
-14.15
-19.17
-24.92
-31.45
-38.70
-46.41
-53.87
-59.89
-62.86
-61.20
-53.90
-41.15
-24.37
-6.00
11.28
25.34
35.04
40.34
41.89
40.57
37.16
32.22
26.32
20.09
14.34
9.83
7.07
6.18
6.83
8.40
10.18
11.52
11.94
11.19
9.25
6.21
2.30
-2.19
-6.99
-11.86
-16.65
-21.33
-26.05
-31.17
-37.14
-44.19
-51.99
-59.38
-64.44
-65.14
-60.01
-48.91
-33.21
-15.32
2.08
16.80
27.61
34.16
36.67
35.61
31.54
25.14
17.36
9.29
2.03
-3.60
-7.19
-8.83
-8.98
-8.32
-7.58
-7.45
-8.40
-10.66
-14.16
-18.63
-23.60
-28.60
-33.17
-36.91
-39.53
-40.95
-41.30
-40.99
-40.57
-40.51
-40.85
-41.00
-39.67
-35.27
-26.44
-12.74
5.01
24.79
43.95
60.00
71.26
77.21
78.32
75.65
70.37
63.50
55.85
48.11
40.98
35.11
31.01
28.83
28.33
28.94
29.90
30.52
30.27
28.89
26.33
22.71
18.22
13.10
7.56
1.84
-3.89
-9.50
-14.93
-20.34
-26.01
-32.30
-39.40
-46.98
-53.95
-58.53
-58.73
-53.09
-41.38
-24.85
-5.94
12.46
27.90
38.86
44.92
46.48
44.37
39.61
33.29
26.50
20.30
15.54
12.74
11.96
12.86
14.86
17.25
19.35
20.63
20.73
19.52
17.10
13.69
9.57
4.98
0.09
-4.99
-10.12
-15.13
-19.89
-24.45
-29.11
-34.33
-40.40
-47.06
-53.23
-57.07
-56.53
-50.17
-37.81
-20.83
-1.79
16.37
31.19
41.35
46.66
47.77
45.67
41.31
35.52
29.12
22.97
17.97
14.81
13.79
14.70
16.85
19.36
21.43
22.48
22.30
20.84
18.22
14.59
10.11
4.99
-0.50
-6.04
-11.34
-16.23
-20.70
-25.00
-29.58
-34.87
-41.12
-48.01
-54.56
-59.11
-59.78
-55.01
-44.27
-28.37
-9.37
10.03
27.21
40.31
48.49
51.87
51.16
47.37
41.60
34.95
28.55
23.34
19.97
18.60
18.94
20.40
22.33
24.23
25.68
26.36
25.97
24.24
21.08
16.68
11.45
5.88
0.41
-4.80
-9.75
-14.54
-19.24
-23.99
-28.99
-34.57
-40.95
-47.92
-54.51
-59.09
-59.69
-54.84
-44.18
-28.72
-10.67
7.31
22.86
34.45
41.55
44.43
43.77
40.42
35.26
29.19
23.17
18.13
14.77
13.43
13.99
15.91
18.46
20.92
22.80
23.78
23.77
22.70
20.53
17.23
12.84
7.56
1.74
-4.16
-9.75
-14.73
-19.13
-23.20
-27.41
-32.30
-38.18
-44.88
-51.55
-56.70
-58.51
-55.44
-46.76
-32.98
-15.81
2.29
18.81
31.82
40.35
44.34
44.37
41.33
36.19
29.95
23.63
18.20
14.40
12.58
12.68
14.16
16.32
18.44
19.99
20.67
20.42
19.28
17.36
14.73
11.39
7.36
2.69
-2.47
-7.83
-13.03
-17.80
-22.08
-26.16
-30.63
-36.05
-42.61
-49.72
-55.94
-59.31
-57.88
-50.58
-37.63
-20.68
-2.28
14.84
28.54
37.71
42.22
42.67
39.93
34.95
28.65
21.96
15.87
11.25
8.69
8.27
9.57
11.79
14.06
15.71
16.41
16.13
14.97
13.02
10.24
6.59
2.07
-3.14
-8.72
-14.23
-19.34
-23.86
-27.89
-31.77
-36.03
-41.12
-47.20
-53.81
-59.78
-63.39
-62.92
-57.17
-46.06
-30.76
-13.39
3.63
18.27
29.28
36.27
39.47
39.40
36.66
31.96
26.16
20.30
15.40
12.24
11.14
11.85
13.76
16.12
18.29
19.84
20.58
20.43
19.37
17.43
14.69
11.30
7.45
3.33
-0.88
-5.09
-9.30
-13.59
-18.15
-23.26
-29.15
-35.86
-42.94
-49.34
-53.53
-53.87
-49.20
-39.33
-25.26
-8.91
7.43
21.76
32.80
40.04
43.58
43.83
41.32
36.71
30.87
24.82
19.59
15.93
14.17
14.10
15.19
16.72
18.13
19.06
19.32
18.83
17.54
15.39
12.37
8.55
4.10
-0.70
-5.58
-10.28
-14.69
-18.84
-22.91
-27.19
-31.98
-37.41
-43.18
-48.53
-52.13
-52.50
-48.46
-39.62
-26.70
-11.38
4.15
17.89
28.45
35.27
38.42
38.31
35.51
30.64
24.50
18.04
12.26
7.98
5.67
5.30
6.46
8.51
10.77
12.65
13.69
13.60
12.27
9.77
6.33
2.28
-2.08
-6.49
-10.80
-14.95
-19.01
-23.17
-27.72
-32.98
-39.06
-45.57
-51.43
-55.01
-54.58
-48.92
-37.90
-22.61
-5.12
12.10
26.85
37.69
43.99
45.88
44.00
39.31
32.94
26.01
19.51
14.16
10.34
8.12
7.38
7.87
9.23
11.01
12.62
13.45
13.00
10.99
7.52
2.96
-2.19
-7.43
-12.53
-17.42
-22.31
-27.49
-33.26
-39.85
-47.18
-54.76
-61.52
-65.90
-66.20
-61.14
-50.41
-34.92
-16.72
1.62
17.71
29.90
37.56
40.94
40.77
37.94
33.30
27.60
21.64
16.21
12.09
9.82
9.57
11.07
13.64
16.46
18.77
20.05
20.07
18.81
16.32
12.74
8.21
3.00
-2.57
-8.18
-13.63
-18.93
-24.33
-30.25
-37.06
-44.77
-52.75
-59.67
-63.61
-62.64
-55.55
-42.34
-24.51
-4.55
14.70
30.94
42.83
50.03
52.87
51.95
47.96
41.71
34.22
26.72
20.44
16.30
14.59
14.99
16.67
18.73
20.46
21.52
21.83
21.40
20.11
17.72
13.98
8.85
2.64
-3.97
-10.19
-15.46
-19.71
-23.39
-27.36
-32.52
-39.38
-47.75
-56.55
-64.02
-68.01
-66.66
-58.97
-45.23
-27.04
-6.94
12.34
28.50
40.17
46.93
49.15
47.62
43.32
37.35
30.81
24.80
20.20
17.59
17.08
18.34
20.74
23.55
26.13
28.00
28.86
28.51
26.79
23.69
19.29
13.88
7.87
1.71
-4.24
-9.83
-15.11
-20.31
-25.77
-31.88
-38.87
-46.64
-54.46
-60.90
-64.03
-62.00
-53.74
-39.49
-20.89
-0.51
18.87
35.02
46.63
53.33
55.38
53.43
48.34
41.15
33.07
25.35
19.14
15.17
13.68
14.34
16.40
18.95
21.14
22.40
22.49
21.41
19.22
15.89
11.33
5.50
-1.34
-8.62
-15.55
-21.50
-26.29
-30.35
-34.59
-40.06
-47.38
-56.33
-65.60
-73.05
-76.22
-73.12
-62.95
-46.44
-25.73
-3.72
16.75
33.55
45.53
52.46
54.65
52.73
47.65
40.67
33.32
27.16
23.36
22.34
23.64
26.17
28.71
30.35
30.76
30.12
28.77
26.96
24.60
21.32
16.72
10.62
3.26
-4.77
-12.73
-19.95
-26.11
-31.33
-36.08
-41.10
-47.09
-54.41
-62.80
-71.14
-77.55
-79.77
-75.87
-64.97
-47.71
-26.19
-3.40
17.63
34.58
46.22
52.38
53.62
50.90
45.34
38.23
30.99
25.01
21.35
20.49
22.09
25.18
28.53
31.05
32.21
32.05
30.95
29.29
27.17
24.29
20.18
14.51
7.35
-0.72
-8.85
-16.20
-22.30
-27.21
-31.46
-35.91
-41.41
-48.49
-57.08
-66.26
-74.31
-78.96
-78.09
-70.39
-55.99
-36.49
-14.56
6.92
25.59
40.01
49.64
54.49
54.88
51.36
44.88
36.88
29.08
23.15
20.11
20.11
22.43
25.82
29.07
31.33
32.37
32.31
31.49
30.09
28.06
25.13
20.97
15.41
8.61
1.08
-6.48
-13.37
-19.12
-23.73
-27.55
-31.27
-35.65
-41.32
-48.54
-56.90
-65.27
-71.80
-74.40
-71.29
-61.67
-46.09
-26.38
-5.18
14.86
31.60
43.78
50.95
53.25
51.18
45.58
37.62
28.74
20.49
14.19
10.54
9.52
10.46
12.36
14.36
15.99
17.17
18.05
18.65
18.69
17.68
15.15
10.93
5.36
-0.88
-7.01
-12.47
-17.18
-21.45
-25.92
-31.29
-38.16
-46.74
-56.65
-66.72
-74.97
-78.96
-76.47
-66.34
-48.97
-26.43
-1.84
21.43
40.66
54.38
62.24
64.82
63.08
58.13
51.11
43.22
35.69
29.62
25.75
24.23
24.63
26.12
27.84
29.17
29.90
30.03
29.59
28.44
26.24
22.66
17.59
11.21
4.04
-3.32
-10.30
-16.57
-22.06
-27.12
-32.34
-38.44
-45.85
-54.27
-62.43
-68.17
-69.09
-63.35
-50.54
-31.96
-10.21
11.54
30.54
45.03
54.37
58.75
58.77
55.18
48.81
40.70
32.13
24.50
18.99
16.18
15.94
17.52
19.89
22.18
23.86
24.73
24.73
23.72
21.47
17.75
12.56
6.24
-0.62
-7.35
-13.45
-18.76
-23.54
-28.37
-33.97
-40.93
-49.34
-58.55
-67.06
-72.72
-73.36
-67.44
-54.67
-36.29
-14.73
7.01
26.08
40.48
49.35
52.80
51.71
47.29
40.83
33.54
26.49
20.58
16.43
14.33
14.12
15.32
17.23
19.15
20.56
21.15
20.78
19.43
17.05
13.61
9.15
3.80
-2.21
-8.52
-14.77
-20.63
-25.91
-30.67
-35.32
-40.44
-46.57
-53.75
-61.13
-66.97
-69.03
-65.35
-55.07
-38.86
-18.85
2.04
20.97
35.91
45.90
50.88
51.40
48.27
42.40
34.86
26.87
19.73
14.53
11.86
11.70
13.43
16.12
18.84
20.96
22.20
22.56
22.10
20.84
18.65
15.39
10.99
5.57
-0.56
-6.95
-13.15
-18.86
-24.05
-29.05
-34.42
-40.73
-48.14
-56.07
-63.08
-67.09
-66.07
-58.78
-45.33
-27.24
-7.06
12.39
28.81
40.83
48.04
50.72
49.52
45.21
38.71
31.06
23.41
16.86
12.17
9.61
8.89
9.40
10.39
11.33
11.91
12.03
11.60
10.42
8.23
4.80
0.15
-5.41
-11.31
-16.90
-21.75
-25.77
-29.35
-33.18
-38.03
-44.31
-51.79
-59.34
-65.12
-67.00
-63.29
-53.36
-38.02
-19.34
-0.05
17.23
30.70
39.60
44.10
44.90
42.79
38.48
32.61
25.95
19.41
14.04
10.69
9.78
11.05
13.72
16.68
18.91
19.75
19.03
16.94
13.86
10.09
5.85
1.24
-3.62
-8.57
-13.50
-18.45
-23.72
-29.80
-37.00
-45.05
-52.74
-58.11
-58.96
-53.74
-42.26
-25.88
-7.16
11.04
26.40
37.56
44.15
46.52
45.26
41.09
34.83
27.42
20.01
13.69
9.30
7.18
7.15
8.50
10.31
11.70
12.03
11.02
8.72
5.41
1.44
-2.89
-7.33
-11.75
-16.11
-20.55
-25.42
-31.21
-38.27
-46.51
-55.03
-62.14
-65.67
-63.64
-55.09
-40.47
-21.63
-1.30
17.74
33.35
44.39
50.67
52.62
50.93
46.40
39.87
32.35
24.94
18.71
14.47
12.51
12.60
14.02
15.82
17.02
16.90
15.12
11.77
7.29
2.28
-2.70
-7.39
-11.78
-16.18
-21.00
-26.63
-33.39
-41.34
-50.17
-58.98
-66.23
-69.85
-67.88
-59.12
-43.80
-23.66
-1.57
19.29
36.38
48.24
54.60
56.03
53.55
48.30
41.45
34.15
27.52
22.44
19.44
18.61
19.50
21.41
23.44
24.81
24.93
23.54
20.64
16.45
11.29
5.49
-0.58
-6.61
-12.36
-17.73
-22.85
-28.06
-33.83
-40.55
-48.17
-55.98
-62.45
-65.55
-63.26
-54.32
-38.84
-18.48
3.93
25.16
42.47
54.22
60.06
60.65
57.16
50.94
43.29
35.42
28.47
23.36
20.67
20.38
21.91
24.28
26.45
27.59
27.31
25.63
22.81
19.18
14.96
10.25
5.10
-0.36
-5.92
-11.31
-16.31
-20.93
-25.41
-30.29
-36.09
-43.14
-51.12
-58.93
-64.70
-66.18
-61.58
-50.19
-32.88
-11.97
9.43
28.35
42.75
51.79
55.70
55.30
51.62
45.66
38.52
31.36
25.41
21.61
20.32
21.20
23.31
25.52
26.96
27.26
26.54
25.19
23.47
21.28
18.25
13.91
8.10
1.11
-6.32
-13.30
-19.16
-23.71
-27.32
-30.72
-34.77
-40.08
-46.81
-54.37
-61.42
-66.08
-66.35
-60.76
-48.98
-32.07
-12.24
7.68
25.13
38.29
46.38
49.41
47.99
43.09
35.95
28.04
20.87
15.69
13.21
13.37
15.45
18.40
21.23
23.33
24.51
24.87
24.58
23.65
21.90
19.07
14.98
9.70
3.57
-2.86
-9.01
-14.52
-19.28
-23.55
-27.79
-32.57
-38.35
-45.27
-52.94
-60.24
-65.43
-66.49
-61.84
-50.87
-34.44
-14.62
5.78
24.07
38.28
47.45
51.56
51.16
47.20
40.79
33.16
25.61
19.30
15.07
13.18
13.37
14.87
16.76
18.30
19.11
19.22
18.85
18.18
17.11
15.32
12.34
7.91
2.17
-4.37
-10.95
-16.91
-21.83
-25.80
-29.32
-33.14
-37.98
-44.13
-51.22
-58.00
-62.63
-63.16
-58.23
-47.60
-32.28
-14.26
4.08
20.54
33.51
42.12
46.16
45.94
42.19
35.98
28.53
21.15
14.84
10.28
7.71
6.95
7.60
9.16
11.13
13.08
14.65
15.50
15.35
14.02
11.46
7.80
3.30
-1.62
-6.62
-11.41
-15.84
-19.91
-23.73
-27.57
-31.78
-36.72
-42.49
-48.65
-54.06
-57.07
-55.90
-49.41
-37.60
-21.80
-4.38
12.05
25.32
34.30
38.89
39.75
37.77
33.71
28.19
21.71
14.97
8.82
4.17
1.60
1.18
2.40
4.33
6.08
7.03
7.00
6.14
4.70
2.85
0.60
-2.14
-5.47
-9.37
-13.70
-18.33
-23.19
-28.35
-33.98
-40.21
-46.81
-53.07
-57.68
-59.11
-56.07
-48.03
-35.48
-19.91
-3.36
12.12
24.90
34.05
39.26
40.75
39.05
34.93
29.26
22.94
16.85
11.74
8.15
6.37
6.33
7.62
9.53
11.22
11.92
11.22
9.10
5.89
2.05
-2.03
-6.17
-10.39
-14.89
-19.91
-25.68
-32.33
-39.77
-47.52
-54.59
-59.55
-60.85
-57.29
-48.49
-35.20
-19.17
-2.66
12.15
23.67
31.13
34.44
34.00
30.39
24.37
16.80
8.72
1.29
-4.53
-8.10
-9.33
-8.64
-6.84
-4.85
-3.47
-3.20
-4.15
-6.20
-9.00
-12.21
-15.53
-18.83
-22.13
-25.59
-29.43
-33.85
-39.00
-44.74
-50.49
-55.21
-57.40
-55.52
-48.47
-36.12
-19.50
-0.63
18.04
34.27
46.62
54.58
58.43
58.89
56.78
52.88
47.97
42.85
38.39
35.38
34.32
35.20
37.52
40.39
42.82
43.99
43.51
41.43
38.15
34.23
30.11
26.06
22.08
18.05
13.76
8.99
3.52
-2.88
-10.28
-18.37
-26.29
-32.60
-35.61
-33.92
-27.00
-15.57
-1.44
13.02
25.63
34.87
40.20
41.84
40.38
36.56
31.21
25.16
19.39
14.81
12.09
11.42
12.51
14.58
16.74
18.14
18.17
16.51
13.14
8.31
2.51
-3.64
-9.52
-14.73
-19.21
-23.26
-27.45
-32.38
-38.48
-45.81
-53.92
-61.80
-67.96
-70.71
-68.57
-60.80
-47.75
-30.89
-12.44
5.14
19.86
30.50
36.68
38.74
37.39
33.54
28.23
22.53
17.52
14.04
12.57
13.06
15.05
17.78
20.46
22.42
23.21
22.56
20.38
16.77
11.96
6.38
0.46
-5.35
-10.80
-15.85
-20.72
-25.80
-31.59
-38.47
-46.46
-54.88
-62.24
-66.50
-65.57
-58.18
-44.42
-25.94
-5.51
13.87
29.72
40.69
46.53
47.79
45.41
40.47
34.09
27.40
21.46
17.02
14.45
13.59
13.92
14.78
15.51
15.63
14.78
12.78
9.49
4.96
-0.62
-6.88
-13.40
-19.76
-25.65
-30.99
-35.88
-40.63
-45.66
-51.42
-58.11
-65.41
-72.24
-76.82
-77.08
-71.31
-58.90
-40.67
-18.84
3.64
23.94
40.00
50.89
56.67
58.03
55.91
51.35
45.45
39.32
34.06
30.47
28.89
29.06
30.27
31.57
32.19
31.71
30.10
27.57
24.30
20.31
15.47
9.66
3.02
-4.07
-11.01
-17.29
-22.73
-27.58
-32.47
-38.19
-45.26
-53.60
-62.26
-69.47
-73.00
-70.86
-62.01
-46.85
-27.21
-5.87
14.29
31.01
43.10
50.37
53.31
52.74
49.66
45.10
40.14
35.76
32.66
31.11
30.88
31.45
32.19
32.64
32.51
31.66
30.00
27.43
23.90
19.37
14.01
8.09
1.97
-4.06
-9.78
-15.14
-20.30
-25.62
-31.59
-38.62
-46.76
-55.35
-62.88
-67.27
-66.44
-59.11
-45.36
-26.77
-6.02
13.93
30.65
42.67
49.61
51.92
50.49
46.44
40.96
35.20
30.16
26.54
24.63
24.29
25.09
26.40
27.66
28.38
28.22
26.97
24.53
20.91
16.22
10.72
4.70
-1.47
-7.45
-12.98
-17.96
-22.50
-26.98
-31.96
-37.99
-45.34
-53.59
-61.47
-66.99
-67.94
-62.68
-50.75
-33.25
-12.54
8.45
27.02
41.33
50.65
55.10
55.39
52.50
47.51
41.61
36.00
31.71
29.40
29.11
30.34
32.16
33.59
33.96
33.08
31.17
28.64
25.81
22.73
19.18
14.84
9.57
3.51
-2.91
-9.17
-14.82
-19.69
-23.93
-28.02
-32.57
-38.14
-44.90
-52.33
-59.17
-63.52
-63.44
-57.61
-45.91
-29.56
-10.78
7.89
24.31
37.07
45.61
49.96
50.51
47.88
42.95
36.91
31.08
26.69
24.48
24.54
26.30
28.77
31.02
32.39
32.68
32.01
30.61
28.62
26.00
22.67
18.55
13.77
8.62
3.44
-1.43
-5.78
-9.57
-12.96
-16.27
-20.01
-24.66
-30.54
-37.48
-44.64
-50.52
-53.32
-51.51
-44.36
-32.32
-16.96
-0.43
15.10
28.04
37.51
43.30
45.60
44.76
41.28
35.87
29.53
23.46
18.80
16.21
15.72
16.75
18.33
19.52
19.83
19.20
17.93
16.36
14.56
12.40
9.53
5.75
1.15
-3.89
-8.87
-13.40
-17.33
-20.83
-24.19
-27.77
-31.86
-36.62
-42.03
-47.70
-52.84
-56.15
-56.21
-51.93
-43.02
-30.29
-15.46
-0.66
12.20
21.92
28.12
31.00
31.05
28.81
24.82
19.73
14.33
9.47
5.90
4.01
3.79
4.88
6.74
8.88
10.96
12.78
14.17
14.93
14.80
13.53
11.01
7.38
2.96
-1.73
-6.20
-10.10
-13.36
-16.21
-19.13
-22.63
-27.12
-32.64
-38.66
-44.17
-47.78
-48.20
-44.60
-36.95
-26.07
-13.37
-0.51
11.04
20.26
26.61
29.92
30.35
28.29
24.40
19.54
14.63
10.49
7.59
6.01
5.53
5.83
6.61
7.69
8.91
10.09
10.98
11.31
10.84
9.43
7.10
4.01
0.36
-3.58
-7.57
-11.46
-15.20
-18.94
-22.93
-27.41
-32.45
-37.73
-42.47
-45.58
-45.94
-42.76
-35.92
-26.11
-14.67
-3.20
6.82
14.42
19.21
21.30
21.07
19.04
15.70
11.57
7.19
3.05
-0.40
-2.85
-4.19
-4.51
-4.12
-3.43
-2.89
-2.82
-3.38
-4.57
-6.22
-8.19
-10.40
-12.89
-15.73
-18.97
-22.61
-26.62
-31.01
-35.85
-41.12
-46.46
-51.08
-53.79
-53.33
-48.83
-40.27
-28.59
-15.47
-2.76
8.00
15.99
21.07
23.55
23.88
22.38
19.32
15.02
10.05
5.16
1.18
-1.28
-2.07
-1.50
-0.22
1.06
1.78
1.68
0.78
-0.77
-2.76
-5.07
-7.62
-10.39
-13.34
-16.47
-19.84
-23.60
-28.00
-33.18
-38.97
-44.69
-49.12
-50.71
-48.15
-40.86
-29.31
-15.04
-0.15
13.30
23.81
30.74
34.18
34.66
32.86
29.45
25.02
20.16
15.50
11.63
9.01
7.85
8.06
9.22
10.75
12.02
12.52
11.96
10.35
7.89
4.94
1.85
-1.14
-3.97
-6.79
-9.87
-13.56
-18.10
-23.55
-29.62
-35.61
-40.46
-42.88
-41.62
-35.91
-25.70
-11.92
3.72
19.09
32.23
41.81
47.34
49.13
47.97
44.81
40.50
35.71
30.98
26.76
23.39
21.08
19.84
19.48
19.65
19.92
19.87
19.15
17.54
14.99
11.61
7.61
3.29
-1.16
-5.61
-10.12
-14.87
-20.10
-25.98
-32.55
-39.50
-46.16
-51.46
-54.08
-52.81
-46.94
-36.59
-22.82
-7.39
7.70
20.73
30.55
36.73
39.38
38.92
35.95
31.16
25.38
19.49
14.29
10.36
7.94
6.93
7.00
7.67
8.48
8.97
8.76
7.59
5.36
2.18
-1.62
-5.67
-9.66
-13.47
-17.25
-21.35
-26.21
-32.15
-39.08
-46.40
-52.85
-56.81
-56.68
-51.44
-41.08
-26.67
-10.08
6.50
21.18
32.65
40.28
44.00
44.09
41.13
35.92
29.46
22.82
17.00
12.72
10.27
9.58
10.16
11.27
12.14
12.06
10.72
8.06
4.41
0.19
-4.25
-8.73
-13.29
-18.06
-23.27
-29.12
-35.78
-43.28
-51.23
-58.66
-63.97
-65.33
-61.21
-51.11
-35.82
-17.35
1.71
18.95
32.70
42.24
47.54
49.01
47.16
42.63
36.19
28.90
21.98
16.55
13.40
12.71
14.07
16.54
19.03
20.54
20.47
18.70
15.53
11.50
7.16
2.87
-1.30
-5.50
-10.07
-15.43
-21.94
-29.77
-38.70
-47.88
-55.80
-60.51
-60.15
-53.54
-40.74
-23.17
-3.24
16.29
33.08
45.61
53.36
56.59
56.01
52.55
47.20
41.03
35.14
30.50
27.77
27.17
28.39
30.64
32.99
34.52
34.65
33.21
30.46
26.90
23.07
19.42
16.20
13.49
11.18
9.01
6.65
3.73
-0.02
-4.53
-9.33
-13.50
-15.89
-15.49
-11.85
-5.21
3.43
12.61
20.76
26.63
29.46
29.06
25.81
20.42
13.82
6.98
0.83
-3.90
-6.66
-7.25
-5.75
-2.52
1.89
6.86
11.81
16.24
19.76
22.04
22.89
22.27
20.35
17.46
14.01
10.38
6.82
3.30
-0.37
-4.48
-9.22
-14.53
-19.98
-24.77
-27.90
-28.44
-25.85
-20.17
-12.14
-2.99
5.90
13.30
18.44
21.02
21.17
19.28
15.90
11.64
7.11
2.93
-0.42
-2.66
-3.74
-3.85
-3.36
-2.65
-2.13
-2.07
-2.70
-4.10
-6.24
-8.95
-11.96
-14.96
-17.76
-20.30
-22.70
-25.14
-27.83
-30.91
-34.39
-38.11
-41.65
-44.31
-45.13
-43.20
-37.94
-29.45
-18.62
-6.96
3.88
12.54
18.35
21.30
21.83
20.53
17.94
14.50
10.64
6.90
3.86
2.00
1.53
2.27
3.68
5.09
5.90
5.86
4.97
3.48
1.66
-0.27
-2.28
-4.42
-6.79
-9.48
-12.46
-15.69
-19.10
-22.69
-26.46
-30.32
-33.89
-36.46
-37.04
-34.67
-28.79
-19.63
-8.22
3.79
14.68
23.07
28.27
30.22
29.36
26.34
21.89
16.69
11.42
6.68
2.94
0.49
-0.61
-0.57
0.23
1.29
2.10
2.21
1.35
-0.55
-3.34
-6.75
-10.45
-14.20
-17.87
-21.41
-24.90
-28.51
-32.46
-37.01
-42.29
-48.10
-53.74
-57.95
-59.20
-56.07
-47.88
-35.05
-19.05
-2.12
13.45
25.89
34.32
38.68
39.46
37.40
33.27
27.86
22.04
16.73
12.71
10.43
9.88
10.61
11.97
13.28
14.07
14.04
13.05
11.08
8.23
4.68
0.71
-3.44
-7.64
-11.93
-16.50
-21.61
-27.44
-34.02
-40.98
-47.51
-52.30
-53.83
-50.79
-42.65
-30.00
-14.52
1.54
15.98
27.28
34.77
38.55
39.05
36.82
32.37
26.37
19.71
13.48
8.74
6.21
5.98
7.50
9.76
11.65
12.32
11.43
9.13
5.93
2.43
-0.92
-4.01
-7.04
-10.40
-14.54
-19.83
-26.43
-34.25
-42.83
-51.24
-58.09
-61.66
-60.35
-53.25
-40.53
-23.65
-4.93
12.98
27.95
38.66
44.79
46.73
45.29
41.39
35.91
29.73
23.68
18.56
14.98
13.28
13.40
14.87
16.86
18.39
18.62
17.08
13.82
9.41
4.63
0.17
-3.68
-7.07
-10.53
-14.66
-19.99
-26.71
-34.67
-43.25
-51.33
-57.33
-59.50
-56.39
-47.37
-33.08
-15.31
3.34
20.25
33.46
42.03
46.03
46.16
43.38
38.61
32.73
26.50
20.75
16.21
13.43
12.62
13.55
15.63
18.01
19.86
20.45
19.43
16.77
12.83
8.17
3.36
-1.22
-5.47
-9.61
-14.05
-19.27
-25.63
-33.20
-41.59
-49.81
-56.32
-59.28
-57.04
-48.73
-34.70
-16.62
2.94
21.13
35.70
45.40
50.07
50.41
47.50
42.46
36.26
29.78
23.82
19.12
16.23
15.39
16.32
18.33
20.47
21.86
21.87
20.30
17.32
13.31
8.71
3.90
-0.90
-5.63
-10.33
-15.19
-20.49
-26.58
-33.74
-41.91
-50.52
-58.27
-63.27
-63.54
-57.72
-45.62
-28.56
-9.03
10.05
26.15
37.78
44.57
47.01
45.97
42.37
37.03
30.78
24.48
19.04
15.21
13.37
13.49
15.11
17.50
19.87
21.49
21.83
20.55
17.62
13.21
7.75
1.72
-4.40
-10.29
-15.90
-21.41
-27.24
-33.87
-41.59
-50.20
-58.74
-65.48
-68.28
-65.24
-55.48
-39.57
-19.56
1.60
20.98
36.32
46.52
51.50
51.86
48.58
42.74
35.49
28.05
21.58
17.00
14.81
14.97
16.91
19.77
22.62
24.66
25.32
24.35
21.78
17.79
12.71
6.88
0.61
-5.83
-12.23
-18.45
-24.52
-30.63
-37.21
-44.66
-52.96
-61.34
-68.12
-71.01
-67.91
-57.73
-40.99
-19.88
2.42
22.73
38.71
49.34
54.70
55.54
52.80
47.42
40.39
32.85
26.00
20.91
18.18
17.75
18.99
20.95
22.73
23.67
23.48
22.11
19.65
16.30
12.28
7.82
3.09
-1.81
-6.87
-12.17
-17.85
-24.10
-31.15
-39.18
-48.02
-56.98
-64.62
-68.96
-68.00
-60.49
-46.50
-27.63
-6.56
13.62
30.31
41.98
48.29
49.79
47.50
42.55
35.97
28.66
21.56
15.58
11.55
10.02
11.00
13.89
17.58
20.71
22.15
21.32
18.32
13.81
8.58
3.30
-1.78
-6.78
-11.99
-17.66
-23.89
-30.75
-38.29
-46.57
-55.33
-63.73
-70.10
-72.21
-68.05
-56.63
-38.65
-16.53
6.36
26.69
42.16
51.87
56.13
55.94
52.38
46.43
39.03
31.21
24.15
18.99
16.47
16.73
19.17
22.65
25.86
27.69
27.49
25.17
21.11
15.88
10.01
3.85
-2.48
-8.97
-15.65
-22.51
-29.67
-37.35
-45.89
-55.41
-65.36
-74.23
-79.69
-79.21
-71.08
-55.26
-33.56
-9.21
14.11
33.39
46.93
54.41
56.55
54.51
49.53
42.81
35.50
28.71
23.43
20.31
19.54
20.79
23.31
26.18
28.52
29.62
29.05
26.64
22.45
16.79
10.09
2.89
-4.29
-11.05
-17.21
-22.84
-28.28
-34.10
-40.97
-49.36
-59.07
-68.90
-76.64
-79.52
-75.14
-62.45
-42.31
-17.43
8.50
31.85
50.04
61.88
67.47
67.70
63.78
57.06
48.93
40.80
33.94
29.30
27.19
27.33
28.92
30.99
32.76
33.68
33.57
32.37
30.05
26.49
21.64
15.52
8.40
0.78
-6.77
-13.77
-20.01
-25.62
-31.07
-37.05
-44.22
-52.90
-62.65
-72.07
-78.86
-80.36
-74.47
-60.53
-39.70
-14.83
10.40
32.61
49.44
59.96
64.38
63.59
58.77
51.23
42.46
34.07
27.58
24.02
23.68
25.93
29.54
33.11
35.61
36.61
36.26
34.95
32.97
30.32
26.73
21.88
15.72
8.55
0.98
-6.31
-12.84
-18.46
-23.37
-28.09
-33.27
-39.54
-47.24
-56.09
-64.94
-71.79
-74.27
-70.34
-59.18
-41.54
-19.72
3.13
23.98
40.61
51.95
57.86
58.81
55.53
49.01
40.51
31.62
23.94
18.76
16.63
17.17
19.37
21.99
24.04
25.12
25.28
24.85
24.00
22.64
20.41
16.92
11.99
5.81
-1.10
-8.04
-14.41
-19.88
-24.55
-28.86
-33.48
-39.09
-46.03
-53.99
-61.89
-67.83
-69.63
-65.43
-54.48
-37.55
-16.79
4.78
24.26
39.47
49.38
53.95
53.80
49.89
43.29
35.24
27.01
19.88
14.83
12.28
12.08
13.51
15.69
17.80
19.26
19.79
19.24
17.55
14.72
10.77
5.86
0.26
-5.69
-11.64
-17.32
-22.58
-27.51
-32.45
-37.88
-44.34
-52.00
-60.33
-67.91
-72.67
-72.39
-65.56
-51.98
-33.02
-11.25
10.31
29.00
43.10
51.96
55.79
55.29
51.42
45.21
37.79
30.35
23.94
19.30
16.71
15.96
16.52
17.74
19.08
20.14
20.59
20.19
18.64
15.80
11.69
6.60
0.97
-4.74
-10.24
-15.46
-20.60
-25.97
-31.97
-38.93
-46.93
-55.56
-63.76
-69.83
-71.76
-67.79
-57.17
-40.53
-19.93
1.69
21.35
36.81
46.94
51.76
52.02
48.81
43.30
36.54
29.54
23.23
18.38
15.44
14.51
15.22
16.94
18.95
20.58
21.36
20.98
19.29
16.27
12.02
6.77
0.84
-5.39
-11.59
-17.48
-22.95
-28.10
-33.28
-38.99
-45.77
-53.73
-62.25
-69.77
-74.08
-72.97
-65.08
-50.56
-31.14
-9.64
10.84
27.79
39.76
46.44
48.35
46.46
41.89
35.73
29.03
22.78
17.76
14.53
13.25
13.67
15.24
17.29
19.17
20.44
20.88
20.39
18.91
16.37
12.74
8.07
2.60
-3.32
-9.27
-14.89
-20.01
-24.73
-29.43
-34.68
-41.02
-48.58
-56.71
-63.85
-67.86
-66.59
-58.72
-44.41
-25.31
-4.17
16.01
32.80
44.78
51.52
53.40
51.20
45.90
38.64
30.69
23.32
17.65
14.31
13.36
14.31
16.34
18.62
20.58
21.85
22.29
21.82
20.33
17.74
14.03
9.33
3.91
-1.92
-7.80
-13.44
-18.66
-23.47
-28.12
-33.15
-39.15
-46.47
-54.72
-62.58
-67.95
-68.50
-62.59
-49.98
-32.00
-11.26
9.24
26.92
40.14
48.34
51.71
50.91
46.82
40.43
32.91
25.47
19.22
14.95
12.92
12.86
14.17
16.05
17.82
19.02
19.48
19.19
18.19
16.45
13.77
9.96
4.92
-1.11
-7.61
-13.91
-19.49
-24.16
-28.31
-32.71
-38.20
-45.28
-53.61
-61.87
-67.98
-69.60
-65.00
-53.75
-36.95
-16.93
3.46
21.69
36.08
45.88
51.05
51.91
48.97
43.08
35.38
27.36
20.50
15.86
13.78
13.89
15.39
17.39
19.26
20.69
21.55
21.71
20.99
19.13
15.95
11.53
6.15
0.25
-5.67
-11.26
-16.33
-20.91
-25.30
-30.04
-35.75
-42.84
-51.11
-59.46
-65.91
-68.09
-64.10
-53.27
-36.56
-16.34
4.37
22.80
37.10
46.53
51.19
51.64
48.61
42.91
35.53
27.70
20.71
15.67
13.15
13.02
14.61
16.99
19.32
21.09
22.14
22.44
21.96
20.51
17.84
13.78
8.42
2.11
-4.63
-11.24
-17.33
-22.75
-27.71
-32.71
-38.42
-45.31
-53.30
-61.41
-67.85
-70.40
-67.20
-57.48
-41.98
-22.77
-2.65
15.74
30.53
40.84
46.61
48.26
46.41
41.84
35.50
28.56
22.26
17.58
15.02
14.44
15.24
16.63
17.98
18.95
19.46
19.44
18.72
17.07
14.18
10.02
4.77
-1.11
-7.08
-12.70
-17.76
-22.35
-26.80
-31.64
-37.35
-44.17
-51.78
-59.11
-64.49
-65.95
-61.96
-51.95
-36.70
-18.21
0.82
17.82
30.87
39.11
42.63
42.17
38.79
33.54
27.43
21.34
16.02
12.03
9.67
8.98
9.68
11.31
13.27
14.98
15.93
15.78
14.41
11.85
8.36
4.14
-0.58
-5.66
-11.00
-16.46
-21.97
-27.57
-33.48
-40.02
-47.35
-55.03
-61.80
-65.76
-64.85
-57.74
-44.41
-26.41
-6.40
12.70
28.50
39.69
46.05
48.10
46.66
42.53
36.50
29.42
22.30
16.18
11.96
10.09
10.49
12.42
14.88
16.82
17.45
16.42
13.80
9.98
5.43
0.56
-4.45
-9.61
-15.03
-20.82
-27.06
-33.83
-41.21
-49.27
-57.73
-65.73
-71.65
-73.39
-69.05
-57.77
-40.31
-19.01
2.91
22.35
37.20
46.66
51.10
51.41
48.66
43.76
37.57
30.95
24.85
20.06
17.11
16.08
16.70
18.36
20.35
21.94
22.50
21.61
19.15
15.29
10.49
5.25
-0.02
-5.11
-10.03
-14.92
-20.04
-25.73
-32.38
-40.23
-49.09
-58.00
-65.25
-68.64
-66.18
-56.84
-41.09
-20.88
0.93
21.33
37.91
49.33
55.31
56.38
53.55
48.08
41.24
34.27
28.23
23.89
21.65
21.45
22.85
25.18
27.69
29.68
30.67
30.32
28.51
25.28
20.83
15.46
9.52
3.39
-2.67
-8.50
-14.14
-19.83
-25.94
-32.87
-40.79
-49.31
-57.31
-62.98
-64.24
-59.47
-48.16
-31.26
-10.97
9.82
28.39
42.79
52.09
56.25
55.88
51.92
45.54
38.01
30.65
24.57
20.50
18.61
18.59
19.80
21.58
23.41
24.93
25.89
26.02
25.01
22.56
18.56
13.16
6.77
0.02
-6.51
-12.38
-17.45
-21.82
-25.90
-30.24
-35.43
-41.85
-49.44
-57.40
-64.19
-67.79
-66.30
-58.60
-44.85
-26.58
-6.26
13.33
29.90
42.05
49.30
51.93
50.63
46.35
40.19
33.37
27.17
22.59
20.18
19.86
21.02
22.79
24.39
25.39
25.69
25.42
24.59
23.08
20.61
16.95
12.13
6.45
0.47
-5.28
-10.43
-14.92
-18.93
-22.85
-27.13
-32.20
-38.42
-45.79
-53.78
-61.10
-65.85
-65.98
-60.02
-47.73
-30.35
-10.35
9.37
26.23
38.62
46.01
48.72
47.57
43.50
37.56
30.76
24.16
18.74
15.16
13.67
14.03
15.64
17.73
19.63
20.89
21.26
20.64
18.97
16.18
12.26
7.36
1.75
-4.17
-10.03
-15.56
-20.68
-25.52
-30.43
-35.86
-42.22
-49.61
-57.42
-64.30
-68.24
-67.21
-59.94
-46.52
-28.62
-8.97
9.43
24.21
34.15
39.19
40.07
37.80
33.32
27.44
20.92
14.57
9.26
5.67
4.19
4.74
6.78
9.48
11.94
13.43
13.50
12.08
9.41
5.79
1.57
-3.07
-8.04
-13.29
-18.75
-24.40
-30.30
-36.71
-43.95
-52.05
-60.34
-67.26
-70.66
-68.45
-59.47
-44.17
-24.49
-3.33
16.34
32.32
43.53
49.87
51.90
50.37
46.08
39.94
32.97
26.28
20.92
17.61
16.59
17.50
19.62
22.05
23.99
24.89
24.49
22.75
19.76
15.64
10.56
4.74
-1.50
-7.83
-14.03
-20.13
-26.52
-33.73
-42.14
-51.52
-60.69
-67.64
-70.02
-66.03
-55.10
-38.33
-18.19
2.23
20.11
33.62
42.12
45.90
45.73
42.53
37.19
30.65
23.94
18.15
14.21
12.64
13.34
15.66
18.56
20.97
22.06
21.40
18.96
15.03
10.02
4.38
-1.54
-7.47
-13.29
-19.01
-24.82
-31.09
-38.25
-46.63
-56.12
-65.90
-74.41
-79.59
-79.49
-72.92
-60.03
-42.32
-22.35
-2.99
13.29
24.88
31.18
32.43
29.45
23.39
15.55
7.26
-0.33
-6.27
-10.12
-11.79
-11.63
-10.18
-8.03
-5.67
-3.43
-1.52
-0.00
1.09
1.81
2.28
2.64
3.02
3.48
3.90
3.96
3.17
0.94
-3.26
-9.59
-17.61
-26.10
-33.12
-36.42
-34.10
-25.27
-10.52
8.17
27.92
45.86
59.77
68.53
72.06
71.03
66.53
59.72
51.74
43.67
36.46
30.85
27.33
25.96
26.42
28.00
29.83
31.11
31.19
29.80
26.93
22.81
17.75
12.00
5.84
-0.50
-6.78
-12.77
-18.43
-23.95
-29.85
-36.73
-44.89
-53.91
-62.33
-67.93
-68.26
-61.64
-47.92
-28.73
-7.07
13.66
30.65
42.37
48.59
50.05
47.77
42.78
35.98
28.32
20.87
14.81
11.08
10.09
11.52
14.42
17.50
19.60
19.97
18.41
15.24
11.02
6.28
1.41
-3.47
-8.40
-13.47
-18.74
-24.35
-30.55
-37.72
-46.08
-55.33
-64.29
-70.89
-72.68
-67.67
-55.23
-36.55
-14.38
7.82
26.98
41.16
49.83
53.44
52.92
49.19
43.03
35.31
27.12
19.83
14.71
12.57
13.38
16.24
19.71
22.33
23.08
21.61
18.15
13.34
7.91
2.43
-2.81
-7.80
-12.81
-18.23
-24.55
-32.19
-41.31
-51.63
-62.13
-71.13
-76.38
-75.73
-67.79
-52.63
-31.94
-8.71
13.67
32.34
45.63
53.17
55.55
53.81
49.03
42.25
34.56
27.15
21.21
17.63
16.73
18.13
20.88
23.74
25.57
25.63
23.66
19.80
14.53
8.41
2.01
-4.25
-10.14
-15.67
-21.10
-26.94
-33.79
-42.10
-51.88
-62.33
-71.77
-77.85
-78.16
-70.99
-56.10
-34.93
-10.38
14.02
35.00
50.38
59.36
62.31
60.40
55.07
47.76
39.80
32.38
26.50
22.84
21.64
22.53
24.72
27.19
29.01
29.55
28.50
25.84
21.68
16.19
9.67
2.50
-4.81
-11.78
-18.08
-23.70
-28.99
-34.60
-41.32
-49.68
-59.66
-70.27
-79.54
-84.81
-83.56
-74.25
-57.09
-34.13
-8.75
15.37
35.21
49.03
56.42
57.93
54.68
48.03
39.52
30.81
23.53
18.93
17.60
19.31
23.06
27.57
31.61
34.41
35.69
35.60
34.43
32.32
29.19
24.85
19.21
12.44
5.06
-2.20
-8.73
-14.22
-18.92
-23.46
-28.69
-35.37
-43.78
-53.42
-62.84
-69.79
-71.70
-66.53
-53.53
-33.70
-9.70
14.97
36.90
53.62
63.98
68.03
66.61
60.99
52.55
42.85
33.47
25.90
21.20
19.75
21.10
24.18
27.64
30.33
31.62
31.48
30.24
28.31
25.81
22.59
18.29
12.71
5.97
-1.43
-8.73
-15.27
-20.70
-25.16
-29.24
-33.76
-39.54
-47.02
-55.93
-65.09
