1553888249.00
64.000000
-0.00
-0.00
-0.00
-0.00
-0.00
-0.00
-0.00
-0.00
-0.00
-0.00
0.00
0.01
0.01
-0.00
-0.03
-0.05
-0.05
0.00
0.13
0.36
0.66
1.01
1.37
1.72
2.06
2.40
2.79
3.24
3.80
4.42
5.06
5.66
6.20
6.68
7.15
7.68
8.31
9.14
10.09
11.04
11.88
12.56
13.14
13.76
14.65
15.96
17.91
20.32
22.90
25.38
27.58
29.57
31.68
34.32
37.81
42.54
48.15
54.10
59.83
64.97
69.58
74.14
79.34
85.71
93.76
103.00
112.62
121.73
129.77
136.75
143.30
150.75
157.77
166.64
177.95
191.79
206.97
220.57
228.25
225.36
208.53
176.87
132.76
80.05
23.07
-34.94
-92.44
-149.16
-205.23
-260.37
-313.74
-363.87
-409.83
-450.91
-486.50
-515.74
-537.23
-549.22
-549.96
-538.37
-514.21
-478.67
-433.88
-382.45
-327.02
-269.84
-212.63
-156.66
-102.95
-52.37
-5.90
35.58
71.43
101.35
125.50
144.38
158.69
169.15
176.37
180.75
182.57
182.07
179.51
175.23
169.65
163.17
156.14
148.80
141.30
133.71
126.05
118.36
110.69
103.10
95.67
88.47
81.54
74.92
68.62
62.63
56.95
51.55
46.42
41.59
37.05
32.85
28.99
25.47
22.25
19.29
16.53
13.95
11.55
9.39
7.51
5.96
4.73
3.73
2.83
1.91
0.90
-0.18
-1.21
-2.03
-2.52
-2.67
-2.63
-2.67
-3.03
-3.84
-5.01
-6.27
-7.27
-7.76
-7.70
-7.34
-7.12
-7.46
-8.55
-10.27
-12.17
-13.74
-14.59
-14.67
-14.25
-13.83
-13.87
-14.71
-16.53
-19.36
-22.90
-26.38
-28.44
-27.47
-22.28
-12.78
-0.37
12.44
22.97
29.45
31.67
30.78
28.51
26.28
24.58
23.13
21.38
19.11
16.58
14.40
13.09
12.75
13.09
13.59
13.84
13.76
13.65
13.92
14.86
16.41
18.14
19.47
19.98
19.59
18.58
17.46
16.67
16.45
16.75
17.34
17.95
18.39
18.56
18.47
18.09
17.38
16.20
14.42
12.01
8.83
4.94
0.58
-3.88
-8.07
-11.71
-14.71
-17.13
-19.14
-20.83
-22.09
-22.65
-22.25
-20.77
-18.45
-15.68
-12.95
-10.62
-8.81
-7.41
-6.27
-5.32
-4.63
-4.35
-4.59
-5.31
-6.32
-7.33
-8.06
-8.38
-8.32
-7.96
-7.45
-6.85
-6.17
-5.35
-4.42
-3.44
-2.62
-2.18
-2.23
-2.76
-3.60
-4.54
-5.42
-6.17
-6.81
-7.44
-8.16
-8.98
-9.77
-10.26
-10.07
-8.87
-6.54
-3.20
0.69
4.46
7.53
9.52
10.46
10.66
10.60
10.39
10.21
10.17
10.25
10.40
10.52
10.55
10.36
9.83
8.84
7.36
5.42
3.20
0.93
-1.16
-2.91
-4.28
-5.41
-6.46
-7.60
-8.85
-10.13
-11.25
-12.05
-12.46
-12.59
-12.60
-12.66
-12.75
-12.73
-12.32
-11.29
-9.52
-7.07
-4.12
-0.87
2.51
5.88
9.03
11.67
13.49
14.26
13.99
12.98
11.65
10.44
9.55
9.01
8.71
8.62
8.81
9.41
10.38
11.39
11.91
11.44
9.78
7.13
4.02
0.96
-1.68
-3.84
-5.67
-7.33
-9.00
-10.76
-12.69
-14.70
-16.55
-17.77
-17.78
-16.15
-12.83
-8.29
-3.33
1.23
4.90
7.70
10.02
12.30
14.76
17.22
19.18
20.06
19.51
17.60
14.89
12.32
10.86
11.17
13.28
16.52
19.79
21.99
22.53
21.57
19.96
18.87
19.32
21.99
26.98
33.42
39.24
41.16
35.44
19.31
-7.38
-41.36
-76.65
-106.60
-126.44
-134.83
-133.70
-126.48
-116.03
-103.25
-87.28
-66.91
-42.15
-15.02
10.91
31.89
45.55
51.66
52.05
49.51
46.56
44.37
42.65
40.31
36.48
31.24
25.70
21.43
19.43
19.62
20.80
21.35
20.08
16.77
12.24
7.85
4.86
3.78
4.18
4.95
4.83
3.00
-0.51
-4.87
-8.83
-11.21
-11.48
-9.80
-6.86
-3.50
-0.27
2.66
5.43
8.20
10.87
13.08
14.28
14.02
12.21
9.15
5.47
1.87
-1.15
-3.40
-4.98
-6.21
-7.38
-8.66
-10.08
-11.57
-13.06
-14.53
-16.10
-17.87
-19.94
-22.31
-24.92
-27.63
-30.36
-32.98
-35.40
-37.48
-39.03
-39.81
-39.54
-37.95
-34.86
-30.20
-24.05
-16.58
-8.08
1.04
10.32
19.18
27.04
33.37
37.82
40.25
40.82
39.89
37.90
35.34
32.58
29.94
27.65
25.89
24.72
24.09
23.76
23.40
22.65
21.32
19.39
17.04
14.55
12.11
9.77
7.44
4.91
2.03
-1.24
-4.77
-8.30
-11.51
-14.03
-15.52
-15.72
-14.53
-12.02
-8.48
-4.36
-0.17
3.63
6.71
8.98
10.53
11.55
12.15
12.39
12.18
11.44
10.24
8.81
7.50
6.67
6.48
6.87
7.52
8.09
8.31
8.13
7.69
7.17
6.73
6.37
5.86
4.94
3.42
1.28
-1.23
-3.80
-6.15
-8.24
-10.19
-12.18
-14.21
-16.03
-17.16
-17.07
-15.44
-12.29
-8.08
-3.47
0.84
4.35
6.84
8.37
9.15
9.36
9.17
8.64
7.82
6.85
5.88
5.06
4.40
3.74
2.80
1.33
-0.68
-3.01
-5.25
-7.00
-8.02
-8.32
-8.12
-7.74
-7.51
-7.69
-8.43
-9.72
-11.37
-13.00
-14.16
-14.46
-13.74
-12.04
-9.60
-6.66
-3.37
0.17
3.82
7.35
10.36
12.46
13.41
13.24
12.24
10.82
9.37
8.09
7.04
6.12
5.25
4.40
3.61
2.97
2.51
2.19
1.90
1.52
0.93
0.09
-0.95
-2.13
-3.37
-4.65
-6.03
-7.62
-9.48
-11.61
-13.81
-15.73
-16.96
-17.17
-16.21
-14.17
-11.31
-7.91
-4.25
-0.47
3.28
6.80
9.87
12.21
13.62
14.06
13.58
12.35
10.58
8.56
6.58
4.96
3.90
3.47
3.57
3.93
4.27
4.37
4.18
3.69
2.95
1.96
0.71
-0.84
-2.66
-4.65
-6.68
-8.66
-10.50
-12.15
-13.54
-14.60
-15.17
-15.14
-14.41
-12.97
-10.86
-8.16
-5.00
-1.52
2.05
5.46
8.38
10.54
11.72
11.87
11.08
9.61
7.79
5.99
4.54
3.59
3.19
3.19
3.36
3.48
3.37
2.95
2.23
1.27
0.16
-1.02
-2.16
-3.18
-3.99
-4.55
-4.91
-5.27
-5.84
-6.88
-8.46
-10.50
-12.65
-14.42
-15.35
-15.10
-13.58
-10.95
-7.46
-3.40
0.95
5.33
9.42
12.84
15.23
16.34
16.16
14.90
12.95
10.74
8.65
6.90
5.59
4.73
4.33
4.34
4.68
5.17
5.55
5.51
4.77
3.21
0.92
-1.79
-4.49
-6.80
-8.51
-9.67
-10.54
-11.40
-12.46
-13.66
-14.78
-15.49
-15.55
-14.92
-13.69
-12.02
-9.98
-7.50
-4.52
-1.06
2.63
6.12
8.96
10.84
11.71
11.77
11.23
10.32
9.16
7.83
6.42
5.12
4.11
3.53
3.40
3.63
4.05
4.48
4.76
4.71
4.20
3.17
1.64
-0.20
-2.17
-4.06
-5.75
-7.25
-8.60
-9.89
-11.16
-12.41
-13.57
-14.50
-15.03
-14.97
-14.16
-12.52
-10.07
-6.93
-3.30
0.55
4.32
7.70
10.41
12.27
13.22
13.30
12.63
11.33
9.54
7.41
5.18
3.11
1.47
0.38
-0.16
-0.30
-0.23
-0.08
0.08
0.16
0.05
-0.42
-1.33
-2.66
-4.22
-5.80
-7.22
-8.55
-9.92
-11.50
-13.29
-15.12
-16.67
-17.70
-18.08
-17.81
-16.93
-15.38
-13.03
-9.83
-5.89
-1.65
2.28
5.31
7.03
7.38
6.57
4.96
2.90
0.69
-1.47
-3.41
-5.01
-6.24
-7.16
-7.94
-8.76
-9.74
-10.84
-11.93
-12.91
-13.77
-14.69
-15.93
-17.75
-20.29
-23.49
-27.09
-30.78
-34.19
-37.03
-39.09
-40.18
-40.10
-38.62
-35.55
-30.75
-24.30
-16.46
-7.67
1.54
10.65
19.12
26.51
32.44
36.62
38.97
39.57
38.75
36.95
34.61
32.12
29.76
27.73
26.13
25.00
24.28
23.78
23.21
22.26
20.72
18.51
15.75
12.64
9.45
6.40
3.64
1.26
-0.76
-2.49
-4.10
-5.74
-7.51
-9.37
-11.04
-12.11
-12.09
-10.61
-7.61
-3.36
1.58
6.54
10.93
14.37
16.73
18.08
18.52
18.17
17.14
15.55
13.61
11.61
9.85
8.62
7.99
7.88
8.04
8.18
8.07
7.55
6.62
5.36
3.88
2.30
0.69
-0.98
-2.76
-4.71
-6.87
-9.17
-11.48
-13.56
-15.11
-15.78
-15.20
-13.15
-9.61
-4.82
0.73
6.37
11.44
15.38
17.91
19.00
18.85
17.83
16.29
14.58
12.92
11.47
10.25
9.22
8.34
7.56
6.87
6.29
5.87
5.58
5.37
5.13
4.69
3.91
2.69
1.05
-0.95
-3.21
-5.67
-8.31
-11.11
-13.97
-16.62
-18.65
-19.58
-19.01
-16.70
-12.77
-7.56
-1.66
4.24
9.47
13.51
16.06
17.06
16.65
15.12
12.85
10.23
7.63
5.42
3.86
3.12
3.12
3.64
4.30
4.75
4.77
4.31
3.44
2.26
0.80
-0.98
-3.09
-5.45
-7.89
-10.17
-12.15
-13.81
-15.30
-16.78
-18.24
-19.47
-20.04
-19.49
-17.47
-13.90
-9.07
-3.48
2.23
7.44
11.69
14.66
16.27
16.61
15.92
14.54
12.85
11.19
9.79
8.78
8.16
7.84
7.68
7.51
7.22
6.69
5.87
4.76
3.38
1.83
0.17
-1.51
-3.15
-4.72
-6.23
-7.69
-9.16
-10.68
-12.25
-13.84
-15.33
-16.53
-17.22
-17.15
-16.12
-13.97
-10.69
-6.41
-1.44
3.75
8.61
12.65
15.47
16.88
16.89
15.69
13.61
11.03
8.40
6.13
4.52
3.76
3.82
4.45
5.31
6.07
6.48
6.46
6.03
5.30
4.35
3.20
1.83
0.21
-1.60
-3.54
-5.49
-7.37
-9.15
-10.81
-12.36
-13.75
-14.96
-15.91
-16.49
-16.50
-15.62
-13.57
-10.16
-5.53
-0.13
5.37
10.25
13.98
16.34
17.33
17.09
15.82
13.76
11.24
8.64
6.37
4.75
3.93
3.86
4.30
4.96
5.51
5.69
5.36
4.49
3.24
1.84
0.57
-0.44
-1.25
-2.11
-3.30
-5.03
-7.28
-9.81
-12.31
-14.46
-16.03
-16.83
-16.70
-15.49
-13.11
-9.68
-5.54
-1.25
2.66
5.83
8.28
10.27
12.11
13.89
15.40
16.19
15.93
14.58
12.50
10.29
8.50
7.49
7.22
7.40
7.65
7.69
7.41
6.82
5.98
4.85
3.29
1.21
-1.38
-4.24
-6.95
-9.15
-10.69
-11.73
-12.70
-13.96
-15.64
-17.51
-19.07
-19.92
-19.92
-19.24
-18.21
-17.07
-15.75
-13.93
-11.22
-7.43
-2.75
2.27
6.92
10.53
12.66
13.21
12.44
10.84
9.03
7.54
6.76
6.74
7.32
8.17
9.01
9.59
9.81
9.60
8.91
7.67
5.85
3.51
0.80
-2.07
-4.91
-7.61
-10.10
-12.32
-14.21
-15.78
-17.07
-18.24
-19.46
-20.82
-22.24
-23.54
-24.44
-24.72
-24.27
-23.08
-21.19
-18.70
-15.70
-12.35
-8.92
-5.78
-3.33
-1.89
-1.62
-2.45
-4.05
-5.87
-7.25
-7.56
-6.39
-3.64
0.37
4.93
9.08
11.88
12.66
11.25
8.11
4.08
0.12
-3.03
-5.10
-6.30
-7.17
-8.26
-9.90
-12.02
-14.24
-16.03
-16.98
-16.89
-15.77
-13.74
-10.90
-7.30
-3.04
1.60
6.17
10.08
12.83
14.17
14.14
13.03
11.32
9.53
8.12
7.42
7.40
7.70
7.68
6.71
4.55
1.51
-1.65
-3.99
-4.82
-3.90
-1.52
1.67
4.84
7.20
8.20
7.63
5.71
2.99
0.03
-2.79
-5.41
-7.93
-10.34
-12.31
-13.25
-12.57
-10.11
-6.28
-1.90
2.22
5.66
8.42
10.72
12.72
14.31
15.13
14.93
13.84
12.47
11.69
12.23
14.29
17.43
20.76
23.41
24.88
25.13
24.51
23.35
21.82
19.91
17.58
15.02
12.69
11.09
10.59
11.12
12.25
13.32
13.72
12.98
10.85
7.23
2.24
-3.71
-9.79
-14.82
-17.50
-16.89
-12.77
-5.86
2.41
10.28
16.28
19.55
20.01
18.22
14.98
11.13
7.26
3.78
1.00
-0.79
-1.34
-0.63
1.04
2.99
4.37
4.50
3.12
0.53
-2.58
-5.50
-7.76
-9.25
-10.14
-10.66
-11.02
-11.30
-11.62
-12.17
-13.26
-15.12
-17.85
-21.22
-24.73
-27.65
-29.23
-28.87
-26.28
-21.60
-15.37
-8.43
-1.71
3.88
7.69
9.35
8.86
6.59
3.22
-0.39
-3.33
-4.88
-4.66
-2.80
0.17
3.41
6.10
7.67
8.00
7.36
6.31
5.39
4.92
4.97
5.35
5.85
6.23
6.38
6.22
5.67
4.62
2.95
0.55
-2.54
-6.17
-10.04
-13.77
-16.94
-19.12
-19.96
-19.19
-16.79
-12.95
-8.15
-3.04
1.72
5.59
8.23
9.61
9.93
9.56
8.89
8.27
7.92
7.91
8.24
8.83
9.58
10.36
10.95
11.10
10.58
9.30
7.32
4.91
2.38
-0.09
-2.55
-5.26
-8.49
-12.26
-16.16
-19.45
-21.32
-21.21
-19.14
-15.64
-11.53
-7.56
-4.12
-1.28
1.06
2.98
4.31
4.83
4.44
3.32
1.93
0.84
0.44
0.85
1.88
3.17
4.39
5.33
5.90
6.11
6.03
5.77
5.47
5.29
5.29
5.44
5.50
5.16
4.07
2.06
-0.83
-4.32
-7.93
-11.15
-13.49
-14.59
-14.28
-12.63
-10.01
-7.04
-4.45
-2.82
-2.37
-2.92
-3.92
-4.74
-4.96
-4.45
-3.39
-2.06
-0.63
0.84
2.41
4.06
5.65
6.89
7.45
7.12
5.91
4.11
2.19
0.67
-0.10
-0.07
0.46
1.00
1.09
0.42
-1.03
-3.11
-5.60
-8.28
-10.96
-13.38
-15.16
-15.82
-14.97
-12.44
-8.45
-3.50
1.77
6.76
11.12
14.73
17.63
19.94
21.78
23.23
24.43
25.55
26.80
28.33
30.13
31.99
33.55
34.42
34.33
33.20
31.16
28.49
25.45
22.24
18.92
15.38
11.45
6.91
1.56
-4.65
-11.53
-18.62
-25.19
-30.47
-33.80
-34.88
-33.85
-31.25
-27.80
-24.20
-21.00
-18.55
-17.00
-16.34
-16.36
-16.68
-16.77
-16.09
-14.30
-11.37
-7.64
-3.63
0.17
3.49
6.37
9.09
11.93
15.08
18.44
21.77
24.64
26.64
27.45
26.85
24.78
21.36
16.83
11.55
5.90
0.24
-5.11
-9.83
-13.65
-16.36
-17.78
-17.90
-16.80
-14.69
-11.88
-8.71
-5.59
-2.98
-1.25
-0.63
-1.10
-2.34
-3.89
-5.31
-6.32
-6.92
-7.25
-7.47
-7.56
-7.27
-6.16
-3.78
0.12
5.39
11.47
17.51
22.69
26.48
28.77
29.87
30.21
30.11
29.66
28.78
27.46
25.82
24.20
22.93
22.13
21.58
20.77
19.13
16.24
12.02
6.70
0.69
-5.64
-12.07
-18.52
-24.91
-31.00
-36.34
-40.27
-42.17
-41.68
-38.88
-34.26
-28.62
-22.83
-17.65
-13.62
-11.05
-10.01
-10.39
-11.96
-14.39
-17.34
-20.50
-23.63
-26.57
-29.16
-31.26
-32.75
-33.51
-33.55
-33.01
-32.10
-30.95
-29.52
-27.52
-24.49
-20.03
-14.05
-6.86
0.87
8.32
14.82
20.01
23.88
26.69
28.77
30.36
31.49
31.98
31.48
29.58
25.91
20.30
12.87
4.09
-5.25
-14.15
-21.62
-26.82
-29.27
-28.95
-26.32
-22.21
-17.63
-13.54
-10.59
-9.06
-8.76
-9.12
-9.45
-9.11
-7.75
-5.40
-2.38
0.88
4.03
6.90
9.48
11.75
13.67
15.09
15.96
16.36
16.58
16.93
17.58
18.35
18.72
18.08
16.01
12.56
8.31
4.12
0.82
-1.16
-1.89
-1.84
-1.54
-1.33
-1.23
-1.02
-0.51
0.24
0.93
1.04
0.18
-1.82
-4.71
-8.00
-11.06
-13.28
-14.22
-13.63
-11.42
-7.65
-2.51
3.70
10.51
17.37
23.71
28.98
32.77
34.86
35.28
34.30
32.38
30.12
28.13
26.79
26.22
26.18
26.29
26.23
25.99
25.85
26.24
27.47
29.54
32.07
34.45
36.03
36.28
34.81
31.41
26.10
19.14
11.07
2.54
-5.83
-13.67
-20.86
-27.40
-33.10
-37.56
-40.17
-40.46
-38.41
-34.51
-29.68
-24.91
-21.03
-18.56
-17.73
-18.44
-20.34
-22.75
-24.78
-25.54
-24.45
-21.55
-17.40
-12.87
-8.68
-5.11
-1.97
1.11
4.40
7.82
11.00
13.58
15.40
16.60
17.45
18.03
18.05
16.91
13.97
8.93
2.05
-5.80
-13.42
-19.68
-23.80
-25.50
-24.91
-22.35
-18.25
-13.02
-7.10
-1.04
4.54
9.00
11.80
12.62
11.49
8.74
4.99
0.98
-2.62
-5.33
-7.03
-7.89
-8.32
-8.71
-9.35
-10.30
-11.44
-12.55
-13.31
-13.44
-12.71
-11.02
-8.52
-5.63
-3.03
-1.48
-1.55
-3.39
-6.64
-10.55
-14.17
-16.62
-17.30
-15.91
-12.55
-7.63
-1.87
3.81
8.53
11.67
12.97
12.66
11.24
9.29
7.24
5.34
3.69
2.33
1.30
0.58
0.06
-0.46
-1.19
-2.27
-3.69
-5.28
-6.85
-8.17
-9.07
-9.43
-9.23
-8.53
-7.52
-6.51
-5.85
-5.76
-6.21
-6.82
-6.97
-6.02
-3.57
0.44
5.57
11.12
16.34
20.60
23.61
25.28
25.74
25.17
23.78
21.76
19.34
16.80
14.45
12.58
11.38
10.94
11.15
11.74
12.33
12.55
12.22
11.34
10.16
9.04
8.22
7.71
7.28
6.59
5.31
3.28
0.59
-2.45
-5.46
-8.02
-9.82
-10.69
-10.63
-9.79
-8.43
-6.91
-5.57
-4.65
-4.25
-4.30
-4.58
-4.85
-4.92
-4.72
-4.27
-3.72
-3.24
-3.02
-3.20
-3.82
-4.79
-5.91
-6.92
-7.66
-8.07
-8.27
-8.44
-8.77
-9.35
-10.22
-11.43
-13.11
-15.47
-18.77
-23.16
-28.64
-34.92
-41.37
-47.02
-50.72
-51.36
-48.13
-40.80
-29.75
-15.98
-0.95
13.63
26.08
35.14
40.25
41.83
41.24
40.38
40.96
43.89
48.93
54.87
60.27
64.22
66.91
69.49
73.36
79.19
86.22
92.32
94.69
90.87
79.51
60.64
35.49
6.12
-24.88
-54.51
-79.60
-97.46
-106.64
-107.61
-102.59
-94.70
-86.66
-79.82
-74.14
-68.87
-63.47
-58.05
-53.17
-49.31
-46.54
-44.57
-43.20
-42.47
-42.46
-42.84
-42.76
-41.06
-37.09
-31.14
-24.44
-18.63
-14.91
-13.75
-14.86
-17.74
-22.13
-28.03
-35.59
-44.68
-54.74
-64.79
-73.49
-79.38
-80.92
-76.69
-65.55
-46.89
-20.80
11.83
49.38
89.76
130.80
170.56
207.46
240.28
267.98
289.77
305.22
314.52
318.53
318.35
314.73
307.37
294.88
275.30
247.18
210.57
167.17
119.88
71.75
25.29
-17.71
-55.91
-88.09
-113.27
-131.29
-143.28
-151.58
-158.94
-167.22
-176.45
-184.75
-189.36
-188.04
-180.24
-167.36
-152.07
-137.22
-124.80
-115.65
-109.49
-105.39
-102.16
-98.62
-93.76
-86.85
-77.68
-66.70
-54.97
-43.91
-34.77
-28.21
-24.16
-21.91
-20.52
-19.28
-17.83
-16.26
-14.78
-13.58
-12.69
-12.08
-11.73
-11.61
-11.66
-11.60
-11.01
-9.49
-6.93
-3.70
-0.55
1.78
2.81
2.64
1.75
0.71
-0.14
-0.85
-1.78
-3.35
-5.82
-9.12
-12.83
-16.34
-19.00
-20.34
-20.27
-19.21
-17.93
-17.35
-18.28
-21.09
-25.74
-31.86
-38.88
-46.24
-53.51
-60.54
-67.52
-74.63
-81.42
-86.02
-84.90
-73.65
-48.68
-8.99
42.82
101.12
159.05
210.55
251.61
280.35
296.25
299.26
289.61
268.25
237.31
200.04
160.04
119.81
79.73
37.97
-7.98
-58.92
-111.89
-160.04
-194.88
-210.09
-204.74
-183.86
-155.84
-128.17
-104.27
-83.29
-62.85
-42.61
-25.76
-17.49
-21.46
-36.79
-57.92
-77.36
-89.66
-93.88
-93.09
-91.63
-91.94
-93.09
-91.85
-85.49
-73.97
-60.43
-49.21
-43.01
-40.95
-38.53
-29.57
-8.71
26.68
75.92
135.42
199.56
261.58
314.37
351.81
370.28
369.86
354.46
330.56
304.92
282.47
265.18
252.39
241.89
231.42
219.43
205.67
191.07
177.21
165.60
156.70
149.37
141.04
128.62
109.59
83.23
50.77
15.15
-19.81
-50.11
-72.18
-83.57
-83.74
-74.79
-61.52
-50.37
-47.22
-54.93
-72.11
-93.79
-113.99
-128.64
-137.32
-142.67
-148.15
-155.64
-164.42
-172.12
-176.65
-177.83
-177.47
-177.98
-180.43
-183.67
-184.90
-181.64
-173.52
-162.76
-153.00
-146.98
-144.74
-143.24
-137.89
-125.14
-104.40
-78.50
-52.18
-29.77
-13.18
-1.50
8.01
18.11
30.28
44.27
58.64
71.69
82.01
88.78
91.75
91.09
87.42
81.78
75.59
70.45
67.87
69.02
74.52
84.12
96.49
109.22
119.28
123.85
121.35
111.99
97.50
80.01
60.85
39.73
15.23
-13.93
-47.40
-82.52
-114.93
-140.17
-155.41
-160.34
-156.71
-146.99
-132.91
-114.91
-92.68
-66.52
-38.43
-12.35
6.90
15.38
11.61
-2.83
-24.02
-47.35
-69.20
-88.13
-104.69
-120.45
-136.59
-152.89
-167.69
-178.87
-185.16
-187.17
-187.31
-188.57
-192.84
-199.82
-207.20
-212.05
-212.55
-208.98
-203.31
-197.77
-193.37
-189.34
-183.85
-175.29
-163.43
-149.48
-135.35
-122.61
-111.73
-102.02
-92.10
-80.73
-67.34
-52.27
-36.55
-21.45
-7.91
3.76
13.95
23.29
32.50
42.03
52.06
62.49
73.00
83.05
91.89
98.79
103.30
105.38
105.10
102.29
96.48
87.26
75.07
62.01
51.62
47.75
53.11
68.17
91.34
120.27
153.12
188.90
226.96
265.77
302.35
332.92
354.38
365.73
368.43
365.13
357.73
345.91
326.91
296.63
251.61
190.96
117.47
37.62
-39.50
-104.08
-147.80
-166.10
-159.55
-133.92
-98.98
-65.79
-43.71
-38.00
-48.73
-71.32
-98.53
-122.93
-139.02
-144.36
-139.27
-125.74
-106.04
-81.93
-54.63
-25.49
3.61
30.35
52.61
69.24
80.52
87.80
92.82
96.84
100.13
102.19
102.36
100.43
97.04
93.57
91.47
91.55
93.38
95.37
95.36
91.54
83.11
70.36
54.26
35.98
16.66
-2.35
-19.19
-31.50
-37.07
-34.84
-25.56
-11.72
3.29
16.26
25.06
28.80
27.50
21.59
11.79
-0.96
-15.27
-29.38
-41.49
-50.19
-54.77
-55.31
-52.69
-48.37
-44.28
-42.43
-44.40
-50.80
-60.81
-72.23
-82.11
-87.75
-87.60
-81.66
-71.39
-59.03
-46.84
-36.43
-28.35
-21.99
-15.66
-7.00
6.61
27.31
55.92
91.09
129.08
164.63
192.78
210.85
219.43
221.76
221.73
221.57
220.74
216.49
205.89
187.85
164.01
137.79
112.39
89.11
66.88
43.22
15.81
-16.21
-52.10
-90.24
-129.20
-168.52
-208.96
-251.72
-297.17
-343.76
-387.82
-424.15
-447.54
-454.34
-443.37
-415.50
-372.77
-317.76
-254.07
-187.35
-125.65
-77.86
-50.34
-43.41
-50.20
-59.15
-59.10
-44.57
-17.57
14.30
42.70
62.52
73.08
76.53
75.48
71.83
67.31
64.31
65.27
71.05
79.41
85.57
84.64
74.94
59.35
43.83
33.87
31.40
34.30
38.54
41.24
42.56
45.04
51.27
61.78
74.40
85.48
91.70
91.63
86.11
77.72
69.62
64.62
64.63
70.43
81.48
95.82
110.38
121.55
126.09
122.00
109.28
90.30
69.57
52.60
44.19
46.51
57.85
72.72
83.66
83.98
70.33
43.66
8.16
-31.36
-72.00
-113.79
-158.44
-206.70
-256.25
-301.61
-335.91
-353.72
-352.94
-334.66
-301.70
-256.82
-202.55
-142.67
-83.83
-35.12
-5.27
1.64
-11.16
-34.07
-55.37
-66.42
-64.64
-52.85
-35.77
-16.60
4.42
28.71
56.82
86.84
114.74
136.46
149.81
155.02
153.65
147.29
136.96
123.70
109.49
97.58
91.38
92.51
99.13
105.64
104.38
88.37
54.20
3.69
-56.45
-116.61
-167.25
-201.86
-218.50
-219.81
-210.92
-197.09
-181.93
-167.35
-154.98
-147.49
-148.13
-158.32
-175.31
-191.90
-199.20
-191.05
-167.26
-133.23
-96.23
-60.59
-25.43
13.97
62.37
120.36
182.80
240.09
281.90
301.21
297.32
276.42
249.48
228.20
220.33
226.53
240.64
253.25
256.76
249.07
233.76
217.16
204.37
197.03
193.67
192.23
192.21
194.51
199.72
206.19
209.29
202.91
182.32
146.79
100.43
50.95
7.15
-23.97
-39.00
-38.78
-27.42
-10.55
6.80
21.94
34.83
47.34
61.28
76.59
90.58
98.65
96.34
81.37
54.44
18.42
-23.46
-68.84
-116.24
-163.88
-208.39
-245.01
-269.23
-278.77
-275.01
-262.37
-246.45
-231.71
-220.40
-212.89
-209.05
-209.40
-215.03
-226.48
-242.33
-258.67
-270.04
-271.40
-260.37
-238.16
-209.17
-178.82
-151.26
-127.65
-106.17
-83.40
-56.28
-23.26
15.65
59.80
108.47
160.42
213.07
261.65
299.72
320.94
321.24
300.13
260.39
206.69
144.22
78.51
15.85
-36.60
-71.79
-85.45
-78.61
-58.51
-36.75
-25.59
-33.64
-63.14
-109.68
-163.76
-214.08
-250.58
-267.15
-262.88
-241.77
-210.81
-177.06
-144.89
-114.63
-83.72
-49.36
-11.12
27.80
61.83
85.87
97.87
100.12
98.64
101.12
114.34
141.85
182.34
229.81
274.96
308.00
321.60
312.97
283.86
238.56
181.53
116.00
44.48
-29.15
-97.86
-152.05
-182.54
-184.57
-160.14
-117.22
-66.60
-17.77
23.40
54.60
75.68
86.84
88.16
80.14
64.56
44.38
23.01
3.32
-12.70
-23.70
-28.72
-27.58
-21.81
-15.26
-13.74
-23.12
-47.06
-85.92
-137.43
-198.24
-265.38
-336.18
-406.92
-471.65
-522.50
-551.93
-555.88
-535.49
-496.81
-447.99
-396.08
-344.92
-295.25
-246.17
-197.18
-149.01
-103.16
-60.77
-21.67
15.63
53.33
93.35
136.53
182.04
227.11
267.64
299.16
318.25
323.85
317.85
304.39
288.26
272.84
258.91
244.66
227.02
203.47
173.26
137.64
99.26
61.21
26.48
-2.17
-22.06
-30.63
-25.90
-6.85
25.78
69.12
118.24
167.21
210.43
243.88
265.60
275.25
273.44
261.03
239.19
209.82
175.72
140.42
107.30
78.60
54.96
35.74
19.82
6.57
-3.86
-10.79
-13.61
-12.12
-6.39
3.55
17.82
36.45
59.11
84.86
112.10
138.83
162.95
182.71
196.97
205.42
208.34
206.26
199.63
188.76
174.02
156.22
136.69
117.14
99.15
83.69
70.80
59.67
49.06
37.98
26.12
14.08
3.08
-5.71
-11.91
-16.36
-20.97
-28.07
-39.23
-54.48
-72.10
-89.23
-103.16
-112.33
-116.76
-117.66
-116.60
-114.72
-112.46
-109.89
-107.17
-104.88
-103.85
-104.69
-107.32
-110.79
-113.72
-114.78
-113.36
-109.70
-104.66
-99.24
-94.12
-89.50
-85.25
-81.26
-77.67
-74.87
-73.34
-73.33
-74.67
-76.86
-79.32
-81.66
-83.94
-86.64
-90.27
-95.09
-100.72
-106.06
-109.58
-109.72
-105.41
-96.34
-83.02
-66.61
-48.60
-30.60
-14.14
-0.56
9.20
14.67
16.09
14.34
10.78
6.89
4.00
2.97
4.12
7.23
11.69
16.65
21.19
24.56
26.35
26.65
25.92
24.77
23.64
22.53
21.07
18.72
15.10
10.21
4.29
-2.32
-9.49
-17.22
-25.38
-33.35
-39.96
-43.65
-43.08
-37.68
-27.92
-15.17
-1.26
12.03
23.45
32.27
38.29
41.61
42.48
41.24
38.35
34.41
30.12
26.24
23.52
22.51
23.51
26.43
30.76
35.59
39.75
42.18
42.20
39.80
35.66
30.86
26.45
22.98
20.29
17.54
13.69
7.99
0.52
-7.72
-14.98
-19.31
-19.20
-14.14
-4.83
7.02
19.13
29.23
35.70
38.04
37.28
35.94
37.47
44.92
59.35
78.80
98.34
111.72
113.79
102.67
80.43
52.07
23.25
-1.79
-21.20
-35.19
-44.83
-50.96
-53.89
-53.82
-51.43
-48.06
-45.44
-45.01
-47.27
-51.56
-56.27
-59.43
-59.43
-55.45
-47.73
-37.35
-25.81
-14.40
-3.92
5.52
14.14
22.18
29.56
35.79
40.21
42.32
42.07
39.91
36.61
33.00
29.65
26.78
24.31
22.03
19.73
17.37
15.03
12.82
10.82
8.95
6.99
4.59
1.34
-3.13
-9.02
-16.21
-24.10
-31.61
-37.36
-39.95
-38.40
-32.47
-22.82
-10.82
1.80
13.37
22.63
28.93
32.18
32.75
31.31
28.64
25.54
22.63
20.30
18.72
17.85
17.61
17.91
18.62
19.55
20.41
20.84
20.51
19.28
17.21
14.53
11.51
8.29
4.84
1.02
-3.28
-7.99
-12.74
-16.89
-19.63
-20.23
-18.27
-13.87
-7.63
-0.48
6.58
12.82
17.82
21.44
23.63
24.33
23.46
21.04
17.37
13.07
8.95
5.79
4.04
3.74
4.60
6.14
7.89
9.45
10.49
10.76
10.02
8.15
5.18
1.27
-3.29
-8.23
-13.36
-18.51
-23.50
-27.99
-31.42
-33.07
-32.29
-28.68
-22.31
-13.81
-4.27
5.07
13.08
18.98
22.52
23.79
23.16
21.08
18.01
14.43
10.86
7.85
5.82
5.04
5.40
6.56
7.96
9.04
9.41
8.89
7.58
5.75
3.73
1.80
0.04
-1.68
-3.68
-6.35
-10.04
-14.84
-20.53
-26.60
-32.30
-36.78
-39.27
-39.25
-36.52
-31.36
-24.46
-16.87
-9.67
-3.80
0.26
2.39
2.83
1.96
0.09
-2.42
-5.16
-7.56
-9.01
-9.02
-7.51
-4.87
-1.78
1.08
3.35
5.14
6.93
9.21
12.30
16.07
20.14
23.93
26.89
28.67
29.09
28.29
26.61
24.59
22.84
21.86
21.94
23.13
25.18
27.65
30.02
31.68
32.18
31.20
28.72
24.95
20.28
15.06
9.63
4.17
-1.05
-5.68
-9.20
-11.11
-11.15
-9.44
-6.52
-3.27
-0.48
1.29
1.88
1.43
0.19
-1.59
-3.82
-6.49
-9.61
-13.13
-16.91
-20.73
-24.36
-27.55
-30.01
-31.44
-31.51
-29.94
-26.61
-21.63
-15.37
-8.44
-1.56
4.49
9.09
11.88
12.90
12.62
11.77
11.18
11.45
12.78
14.92
17.30
19.22
20.15
19.80
18.18
15.55
12.29
8.77
5.26
1.90
-1.36
-4.70
-8.37
-12.53
-17.18
-22.08
-26.79
-30.75
-33.40
-34.31
-33.25
-30.21
-25.48
-19.56
-13.12
-6.87
-1.37
3.01
6.23
8.44
9.90
10.88
11.54
11.98
12.27
12.45
12.56
12.65
12.73
12.85
13.06
13.45
14.12
15.09
16.31
17.57
18.63
19.18
18.94
17.76
15.70
13.09
10.45
8.42
7.43
7.58
8.49
9.43
9.61
8.51
6.11
2.86
-0.46
-3.14
-4.73
-5.15
-4.65
-3.61
-2.46
-1.49
-0.91
-0.79
-1.09
-1.71
-2.49
-3.21
-3.73
-4.05
-4.38
-5.21
-7.21
-11.13
-17.57
-26.80
-38.54
-51.93
-65.60
-77.77
-86.70
-90.96
-89.79
-83.27
-72.32
-58.47
-43.46
-28.91
-15.99
-5.38
2.72
8.45
12.13
14.25
15.31
15.81
16.16
16.62
17.27
18.08
19.01
20.14
21.68
23.89
26.95
30.74
34.78
38.34
40.58
40.85
38.84
34.61
28.61
21.49
14.03
7.05
1.26
-2.80
-4.92
-5.26
-4.27
-2.58
-0.78
0.69
1.67
2.18
2.26
1.95
1.20
0.03
-1.52
-3.18
-4.60
-5.36
-5.16
-3.84
-1.48
1.62
5.00
8.10
10.35
11.19
10.22
7.21
2.34
-3.85
-10.43
-16.31
-20.44
-22.13
-21.14
-17.73
-12.58
-6.53
-0.45
4.87
8.91
11.39
12.34
12.10
11.20
10.14
9.22
8.47
7.62
6.34
4.32
1.53
-1.90
-5.74
-9.75
-13.71
-17.42
-20.59
-22.87
-23.92
-23.56
-21.83
-19.04
-15.58
-11.80
-7.92
-4.03
-0.29
3.02
5.40
6.42
5.93
4.38
2.88
2.88
5.69
11.82
20.73
30.83
39.93
45.93
47.35
43.60
34.98
22.46
7.32
-8.99
-25.05
-39.52
-51.29
-59.66
-64.36
-65.68
-64.27
-61.02
-56.83
-52.43
-48.27
-44.49
-40.95
-37.37
-33.41
-28.80
-23.44
-17.37
-10.93
-4.67
0.77
4.78
6.97
7.32
6.19
4.21
2.09
0.49
-0.12
0.51
2.43
5.46
9.21
12.99
15.92
17.08
15.76
11.70
5.19
-2.88
-11.23
-18.33
-22.75
-23.32
-19.37
-10.91
1.27
15.67
30.34
43.31
53.00
58.57
60.03
58.02
53.52
47.58
41.11
34.87
29.43
25.19
22.28
20.54
19.58
18.89
18.13
17.13
15.93
14.68
13.46
12.34
11.36
10.62
10.33
10.67
11.69
13.20
14.80
16.01
16.47
16.08
15.06
13.76
12.53
11.54
10.74
9.92
8.88
7.56
6.10
4.76
3.69
2.90
2.22
1.39
0.22
-1.33
-3.16
-5.09
-6.87
-8.30
-9.11
-9.07
-7.96
-5.70
-2.37
1.77
6.35
10.98
15.31
19.08
22.09
24.15
25.15
25.02
23.84
21.80
19.22
16.40
13.57
10.73
7.71
4.14
-0.32
-5.84
-12.33
-19.45
-26.70
-33.65
-39.91
-45.24
-49.46
-52.52
-54.52
-55.65
-56.15
-56.20
-55.79
-54.74
-52.84
-50.04
-46.55
-42.83
-39.38
-36.60
-34.58
-33.18
-32.03
-30.72
-28.86
-26.08
-22.16
-17.00
-10.69
-3.54
3.95
11.16
17.43
22.12
24.71
24.85
22.43
17.63
10.95
3.24
-4.44
-11.04
-15.69
-18.00
-18.09
-16.53
-14.12
-11.57
-9.36
-7.59
-6.11
-4.57
-2.59
0.06
3.41
7.27
11.24
14.94
18.09
20.61
22.62
24.32
25.91
27.48
29.11
30.82
32.70
34.80
37.10
39.42
41.38
42.49
42.34
40.73
37.83
34.11
30.16
26.45
23.02
19.50
15.35
10.17
4.01
-2.51
-8.52
-13.18
-16.04
-17.11
-16.68
-15.16
-12.84
-10.01
-7.09
-4.66
-3.40
-3.75
-5.67
-8.48
-11.12
-12.55
-12.22
-10.27
-7.47
-4.84
-3.29
-3.25
-4.63
-6.90
-9.29
-11.01
-11.49
-10.45
-7.96
-4.41
-0.41
3.37
6.29
7.88
7.83
6.15
3.11
-0.66
-4.36
-7.09
-8.16
-7.23
-4.45
-0.31
4.48
9.22
13.34
16.44
18.34
18.96
18.38
16.72
14.22
11.18
7.99
5.06
2.69
1.00
-0.08
-0.84
-1.66
-2.86
-4.63
-6.94
-9.59
-12.32
-14.92
-17.35
-19.75
-22.46
-25.78
-29.86
-34.48
-39.08
-42.83
-45.04
-45.41
-44.31
-42.61
-41.32
-41.08
-41.95
-43.44
-45.06
-46.75
-48.83
-51.42
-53.63
-53.03
-45.98
-28.72
1.33
44.92
101.08
167.58
241.15
317.09
388.86
448.36
487.65
501.35
488.78
454.40
406.10
352.27
299.18
249.87
204.86
163.83
126.96
95.42
70.70
53.68
44.02
40.16
39.85
40.83
41.44
40.87
39.13
36.69
34.07
31.49
28.90
26.17
23.34
20.56
17.79
14.35
8.74
-1.01
-16.70
-39.17
-68.11
-102.30
-140.41
-181.40
-224.47
-268.37
-310.75
-348.13
-376.70
-393.68
-398.38
-392.49
-379.18
-361.80
-342.67
-322.61
-301.43
-278.78
-254.84
-230.55
-207.18
-185.75
-166.63
-149.50
-133.68
-118.63
-104.20
-90.70
-78.67
-68.42
-59.81
-52.22
-44.81
-36.90
-28.31
-19.40
-10.92
-3.68
1.80
5.38
7.31
8.12
8.43
8.77
9.44
10.46
11.56
12.32
12.35
11.47
9.84
7.89
6.28
5.61
6.24
8.18
11.09
14.45
17.74
20.56
22.74
24.21
25.05
25.32
25.08
24.44
23.56
22.70
22.13
22.03
22.46
23.34
24.37
25.16
25.30
24.54
22.87
20.55
18.02
15.76
14.02
12.84
12.04
11.41
10.79
10.14
9.44
8.64
7.58
6.13
4.31
2.40
0.95
0.56
1.65
4.23
7.91
11.97
15.66
18.38
19.81
19.95
19.06
17.53
15.76
14.18
13.11
12.75
13.12
13.98
14.98
15.69
15.81
15.28
14.26
13.05
11.90
10.88
9.85
8.64
7.11
5.30
3.34
1.48
-0.11
-1.38
-2.38
-3.25
-4.10
-4.92
-5.61
-5.94
-5.64
-4.53
-2.64
-0.16
2.52
5.07
7.24
8.96
10.22
11.03
11.38
11.26
10.73
9.98
9.23
8.62
8.15
7.74
7.33
6.96
6.81
7.03
7.68
8.56
9.36
9.74
9.52
8.75
7.62
6.38
5.19
4.10
3.01
1.80
0.43
-1.01
-2.23
-2.78
-2.24
-0.37
2.76
6.73
10.95
14.79
17.84
19.95
21.25
21.96
22.24
22.11
21.48
20.30
18.68
16.88
15.24
13.99
13.13
12.40
11.56
10.52
9.45
8.71
8.60
9.18
10.20
11.22
11.86
11.89
11.27
10.11
8.54
6.76
5.00
3.60
2.96
3.35
4.82
7.12
9.80
12.34
14.33
15.51
15.74
14.89
12.82
9.46
4.92
-0.48
-6.16
-11.49
-15.96
-19.29
-21.44
-22.55
-22.79
-22.29
-21.22
-19.77
-18.31
-17.22
-16.83
-17.26
-18.42
-19.95
-21.41
-22.38
-22.50
-21.59
-19.64
-16.79
-13.29
-9.39
-5.25
-0.96
3.51
8.14
12.82
17.33
21.29
24.39
26.37
27.14
26.78
25.47
23.47
21.08
18.64
16.51
15.03
14.43
14.79
15.96
17.59
19.22
20.37
20.73
20.20
18.91
17.10
14.97
12.66
10.15
7.43
4.52
1.54
-1.33
-3.89
-6.00
-7.58
-8.54
-8.75
-8.06
-6.33
-3.62
-0.17
3.54
6.94
9.49
10.85
10.91
9.86
8.04
5.87
3.74
1.97
0.69
-0.09
-0.47
-0.66
-0.85
-1.24
-1.96
-3.08
-4.53
-6.15
-7.61
-8.59
-8.82
-8.27
-7.22
-6.21
-5.86
-6.61
-8.55
-11.38
-14.41
-16.87
-18.05
-17.56
-15.38
-11.83
-7.52
-3.19
0.47
3.06
4.47
4.93
4.78
4.33
3.72
2.94
1.97
0.86
-0.17
-0.83
-0.94
-0.51
0.30
1.15
1.77
2.01
1.89
1.52
1.04
0.51
-0.14
-1.14
-2.74
-5.08
-8.08
-11.38
-14.43
-16.63
-17.54
-17.02
-15.13
-12.07
-8.07
-3.39
1.67
6.71
11.19
14.61
16.63
17.19
16.48
14.92
12.97
11.03
9.39
8.21
7.53
7.33
7.54
8.06
8.78
9.56
10.30
10.83
10.98
10.60
9.57
7.83
5.35
2.15
-1.73
-6.18
-10.91
-15.42
-19.05
-21.18
-21.35
-19.47
-15.78
-10.82
-5.26
0.26
5.22
9.23
12.03
13.45
13.43
11.97
9.24
5.58
1.48
-2.45
-5.64
-7.64
-8.31
-7.75
-6.30
-4.42
-2.49
-0.88
0.20
0.67
0.54
-0.06
-1.05
-2.35
-3.95
-5.82
-7.87
-9.85
-11.41
-12.10
-11.55
-9.61
-6.36
-2.15
2.51
7.05
10.98
13.92
15.62
15.98
14.98
12.81
9.81
6.50
3.44
1.02
-0.63
-1.67
-2.40
-3.09
-3.80
-4.41
-4.70
-4.54
-3.95
-3.13
-2.40
-2.14
-2.75
-4.50
-7.48
-11.46
-15.87
-19.86
-22.58
-23.31
-21.73
-17.90
-12.23
-5.40
1.75
8.31
13.42
16.49
17.33
16.20
13.78
10.95
8.52
7.02
6.58
6.96
7.74
8.47
8.84
8.77
8.38
7.86
7.43
7.19
7.06
6.86
6.28
5.03
2.88
-0.26
-4.20
-8.51
-12.49
-15.33
-16.29
-14.92
-11.21
-5.61
0.99
7.60
13.24
17.16
19.03
18.90
17.20
14.60
11.86
9.66
8.46
8.42
9.41
11.07
12.95
14.61
15.69
15.96
15.24
13.52
10.90
7.72
4.49
1.72
-0.24
-1.38
-2.10
-2.98
-4.60
-7.19
-10.59
-14.27
-17.52
-19.65
-20.19
-18.94
-16.03
-11.86
-7.09
-2.49
1.22
3.54
4.28
3.62
1.96
-0.16
-2.28
-4.00
-5.11
-5.49
-5.21
-4.42
-3.40
-2.47
-1.93
-1.98
-2.64
-3.71
-4.80
-5.48
-5.44
-4.60
-3.17
-1.61
-0.48
-0.25
-1.17
-3.19
-5.99
-9.02
-11.62
-13.12
-13.03
-11.11
-7.52
-2.75
2.48
7.40
11.36
14.03
15.43
15.90
15.90
15.88
16.11
16.63
17.25
17.68
17.68
17.10
15.90
14.13
11.90
9.35
6.70
4.20
2.14
0.74
0.08
0.04
0.32
0.51
0.24
-0.70
-2.31
-4.42
-6.74
-9.00
-10.97
-12.45
-13.26
-13.17
-11.92
-9.35
-5.51
-0.75
4.27
8.76
12.05
13.76
13.92
12.92
11.29
9.51
7.88
6.47
5.21
4.07
3.10
2.46
2.25
2.44
2.77
2.85
2.39
1.28
-0.26
-1.87
-3.27
-4.38
-5.40
-6.67
-8.42
-10.67
-13.17
-15.54
-17.42
-18.61
-19.02
-18.67
-17.53
-15.53
-12.61
-8.78
-4.25
0.60
5.27
9.24
12.16
13.91
14.55
14.23
13.14
11.43
9.27
6.87
4.52
2.53
1.06
0.13
-0.42
-0.74
-0.94
-1.02
-0.95
-0.75
-0.58
-0.65
-1.20
-2.31
-3.99
-6.19
-8.82
-11.81
-14.98
-18.00
-20.39
-21.66
-21.47
-19.75
-16.78
-12.99
-8.90
-4.96
-1.50
1.24
3.16
4.21
4.44
3.97
3.01
1.79
0.54
-0.55
-1.36
-1.82
-1.94
-1.72
-1.29
-0.75
-0.29
-0.04
-0.11
-0.47
-1.05
-1.76
-2.49
-3.26
-4.08
-5.04
-6.18
-7.53
-9.09
-10.81
-12.55
-13.99
-14.71
-14.23
-12.23
-8.67
-3.90
1.44
6.61
10.95
14.01
15.61
15.80
14.79
12.95
10.65
8.30
6.16
4.39
2.96
1.80
0.84
0.09
-0.41
-0.65
-0.68
-0.67
-0.80
-1.17
-1.77
-2.49
-3.21
-3.89
-4.63
-5.54
-6.75
-8.19
-9.68
-10.87
-11.45
-11.22
-10.16
-8.45
-6.29
-3.90
-1.38
1.25
3.93
6.54
8.91
10.77
11.98
12.48
12.38
11.80
10.89
9.71
8.26
6.55
4.67
2.88
1.44
0.59
0.37
0.64
1.11
1.48
1.58
1.37
0.91
0.23
-0.65
-1.80
-3.24
-4.89
-6.54
-7.95
-8.82
-8.94
-8.16
-6.38
-3.63
-0.04
4.13
8.40
12.29
15.27
16.97
17.23
16.14
14.03
11.35
8.50
5.78
3.30
1.11
-0.69
-1.91
-2.32
-1.77
-0.40
1.38
3.05
4.15
4.54
4.31
3.65
2.63
1.12
-1.10
-4.08
-7.56
-10.94
-13.49
-14.66
-14.21
-12.34
-9.47
-6.08
-2.54
0.97
4.36
7.57
10.54
13.12
15.12
16.37
16.74
16.21
14.94
13.19
11.31
9.63
8.33
7.41
6.65
5.74
4.35
2.29
-0.45
-3.68
-7.09
-10.36
-13.22
-15.51
-17.23
-18.49
-19.57
-20.73
-22.15
-23.81
-25.43
-26.55
-26.68
-25.49
-22.84
-18.84
-13.79
-8.13
-2.39
2.80
6.85
9.32
10.06
9.30
7.56
5.49
3.64
2.33
1.64
1.46
1.53
1.51
1.05
-0.10
-2.03
-4.55
-7.23
-9.58
-11.22
-11.97
-11.98
-11.55
-11.08
-10.89
-11.14
-11.84
-12.80
-13.74
-14.35
-14.40
-13.74
-12.34
-10.16
-7.18
-3.39
1.07
5.85
10.36
13.93
16.03
16.47
15.44
13.46
11.12
8.94
7.20
5.99
5.25
4.85
4.67
4.63
4.61
4.50
4.17
3.48
2.43
1.18
0.04
-0.63
-0.60
0.01
0.83
1.28
0.89
-0.52
-2.76
-5.31
-7.53
-8.80
-8.68
-6.95
-3.66
0.83
5.91
10.87
15.03
17.95
19.48
19.79
19.20
18.03
16.52
14.80
12.93
10.99
9.10
7.42
6.05
4.99
4.09
3.12
1.88
0.33
-1.34
-2.78
-3.65
-3.79
-3.33
-2.66
-2.30
-2.68
-4.00
-6.18
-8.95
-11.88
-14.56
-16.58
-17.60
-17.37
-15.76
-12.85
-8.98
-4.63
-0.40
3.22
5.98
7.91
9.23
10.19
10.97
11.55
11.79
11.53
10.69
9.35
7.70
6.02
4.56
3.51
3.00
3.03
3.49
4.11
4.55
4.47
3.66
2.12
0.04
-2.25
-4.49
-6.58
-8.61
-10.77
-13.13
-15.54
-17.55
-18.58
-18.16
-16.10
-12.65
-8.34
-3.81
0.34
3.75
6.29
8.00
9.04
9.54
9.63
9.40
8.89
8.17
7.34
6.53
5.86
5.40
5.09
4.80
4.39
3.83
3.20
2.63
2.28
2.17
2.19
2.19
2.01
1.57
0.81
-0.29
-1.82
-3.79
-6.11
-8.50
-10.45
-11.45
-11.09
-9.26
-6.14
-2.16
2.15
6.24
9.68
12.15
13.51
13.71
12.85
11.11
8.78
6.23
3.87
2.08
1.14
1.12
1.88
3.08
4.31
5.23
5.68
5.65
5.25
4.59
3.72
2.73
1.66
0.62
-0.35
-1.27
-2.32
-3.70
-5.57
-7.91
-10.44
-12.73
-14.26
-14.67
-13.81
-11.77
-8.86
-5.52
-2.21
0.61
2.50
3.11
2.24
-0.14
-3.78
-8.18
-12.71
-16.74
-19.85
-21.92
-23.07
-23.54
-23.49
-22.94
-21.85
-20.17
-18.03
-15.66
-13.39
-11.41
-9.72
-8.15
-6.54
-4.82
-3.10
-1.60
-0.53
0.06
0.32
0.51
0.91
1.75
3.12
5.03
7.46
10.34
13.58
16.93
20.05
22.53
24.04
24.44
23.83
22.45
20.58
18.41
16.08
13.73
11.54
9.77
8.59
8.00
7.79
7.60
7.12
6.21
4.99
3.71
2.61
1.76
1.04
0.18
-1.01
-2.65
-4.66
-6.92
-9.28
-11.62
-13.81
-15.61
-16.71
-16.82
-15.77
-13.65
-10.87
-7.91
-5.23
-3.14
-1.74
-1.05
-1.11
-1.96
-3.64
-6.00
-8.72
-11.32
-13.32
-14.38
-14.35
-13.29
-11.34
-8.68
-5.49
-1.96
1.66
5.11
8.13
10.57
12.39
13.62
14.32
14.47
14.00
12.81
10.87
8.36
5.60
3.07
1.26
0.53
0.98
2.46
4.60
6.93
8.97
10.41
11.08
11.00
10.30
9.19
7.90
6.63
5.54
4.73
4.21
3.91
3.71
3.48
3.13
2.57
1.73
0.58
-0.86
-2.56
-4.42
-6.39
-8.41
-10.52
-12.80
-15.32
-18.10
-21.06
-23.98
-26.50
-28.20
-28.65
-27.58
-24.95
-20.98
-16.12
-10.90
-5.77
-0.99
3.26
6.84
9.56
11.17
11.56
10.89
9.62
8.40
7.82
8.09
9.08
10.31
11.27
11.67
11.47
10.91
10.29
9.74
9.22
8.56
7.57
6.20
4.54
2.74
0.86
-1.19
-3.55
-6.25
-8.96
-11.08
-11.89
-10.89
-8.05
-3.91
0.63
4.66
7.56
9.17
9.75
9.66
9.26
8.70
7.96
6.97
5.75
4.46
3.35
2.64
2.44
2.66
3.08
3.48
3.72
3.78
3.74
3.67
3.55
3.33
2.87
2.09
0.96
-0.46
-2.05
-3.69
-5.28
-6.72
-7.90
-8.68
-8.89
-8.35
-6.96
-4.77
-2.01
0.94
3.62
5.61
6.63
6.63
5.74
4.27
2.61
1.10
0.01
-0.55
-0.59
-0.15
0.75
2.22
4.39
7.35
11.08
15.34
19.69
23.57
26.43
27.87
27.72
26.05
23.14
19.35
15.08
10.63
6.22
2.00
-1.91
-5.39
-8.28
-10.43
-11.73
-12.15
-11.73
-10.65
-9.28
-8.09
-7.67
-8.46
-10.62
-13.93
-17.88
-21.86
-25.36
-28.12
-30.07
-31.30
-31.88
-31.84
-31.14
-29.72
-27.47
-24.26
-20.05
-14.90
-9.18
-3.45
1.57
5.23
7.23
7.67
6.95
5.63
4.16
2.77
1.48
0.24
-0.99
-2.05
-2.68
-2.61
-1.63
0.21
2.72
5.55
8.43
11.17
13.67
15.81
17.38
18.11
17.74
16.20
13.67
10.60
7.54
4.94
3.09
2.03
1.68
1.90
2.49
3.26
3.95
4.30
4.15
3.43
2.20
0.66
-0.99
-2.58
-4.05
-5.49
-7.10
-9.09
-11.55
-14.30
-16.84
-18.48
-18.53
-16.61
-12.78
-7.55
-1.68
4.11
9.24
13.41
16.49
18.48
19.42
19.41
18.54
16.93
14.73
12.13
9.37
6.68
4.32
2.45
1.22
0.68
0.81
1.52
2.64
3.81
4.61
4.59
3.45
1.15
-2.12
-6.00
-10.19
-14.45
-18.58
-22.34
-25.27
-26.75
-26.16
-23.19
-18.06
-11.57
-4.93
0.74
4.73
6.99
7.98
8.39
8.68
8.94
8.94
8.40
7.28
5.88
4.72
4.24
4.56
5.38
6.21
6.57
6.24
5.33
4.16
3.08
2.32
1.90
1.68
1.40
0.79
-0.41
-2.41
-5.35
-9.25
-13.90
-18.82
-23.33
-26.64
-28.05
-27.09
-23.74
-18.35
-11.66
-4.60
1.89
7.03
10.37
11.82
11.56
10.01
7.68
5.07
2.68
0.88
-0.02
0.13
1.26
3.14
5.32
7.33
8.77
9.39
9.11
7.98
6.13
3.65
0.70
-2.53
-5.78
-8.72
-11.06
-12.66
-13.59
-14.05
-14.33
-14.60
-14.81
-14.68
-13.84
-12.01
-9.13
-5.38
-1.15
3.11
7.01
10.24
12.58
13.84
13.95
13.01
11.38
9.64
8.41
8.14
8.88
10.28
11.75
12.72
12.91
12.38
11.41
10.31
9.28
8.28
7.16
5.77
4.01
1.89
-0.52
-3.15
-5.90
-8.66
-11.29
-13.51
-14.96
-15.33
-14.41
-12.20
-8.95
-5.07
-0.99
2.93
6.46
9.46
11.78
13.30
13.91
13.58
12.40
10.60
8.52
6.50
4.86
3.88
3.70
4.34
5.65
7.30
8.88
9.95
10.22
9.56
8.06
5.94
3.51
1.05
-1.23
-3.24
-4.99
-6.54
-7.98
-9.32
-10.42
-11.03
-10.88
-9.65
-7.20
-3.59
0.95
5.97
10.95
15.31
18.55
20.26
20.24
18.56
15.66
12.25
9.18
7.18
6.57
7.14
8.26
9.15
9.21
8.24
6.49
4.40
2.42
0.79
-0.46
-1.46
-2.41
-3.50
-4.94
-6.89
-9.38
-12.22
-14.91
-16.78
-17.17
-15.71
-12.45
-7.88
-2.68
2.47
7.08
10.85
13.62
15.25
15.64
14.76
12.81
10.21
7.54
5.39
4.12
3.80
4.19
4.92
5.55
5.78
5.48
4.70
3.60
2.36
1.15
-0.01
-1.15
-2.47
-4.14
-6.32
-9.05
-12.27
-15.81
-19.36
-22.53
-24.79
-25.61
-24.57
-21.48
-16.58
-10.49
-4.10
1.76
6.47
9.81
11.89
12.96
13.24
12.88
11.99
10.75
9.47
8.53
8.22
8.58
9.37
10.15
10.51
10.22
9.36
8.17
6.96
5.89
4.90
3.79
2.34
0.43
-1.88
-4.40
-6.93
-9.34
-11.66
-13.96
-16.22
-18.21
-19.49
-19.53
-17.97
-14.75
-10.26
-5.14
-0.15
4.15
7.42
9.60
10.76
10.99
10.36
8.97
7.05
4.92
2.99
1.60
0.92
0.90
1.29
1.77
2.06
2.04
1.73
1.30
0.86
0.49
0.12
-0.37
-1.10
-2.05
-3.10
-4.07
-4.83
-5.43
-6.13
-7.21
-8.86
-10.92
-12.91
-14.19
-14.18
-12.63
-9.66
-5.72
-1.41
2.78
6.52
9.62
12.01
13.63
14.45
14.50
13.87
12.69
11.16
9.41
7.59
5.89
4.52
3.76
3.77
4.52
5.71
6.88
7.52
7.29
6.20
4.50
2.62
0.95
-0.36
-1.36
-2.30
-3.45
-4.98
-6.90
-9.03
-11.06
-12.61
-13.31
-12.92
-11.36
-8.74
-5.27
-1.29
2.85
6.75
9.98
12.19
13.18
13.01
12.04
10.72
9.49
8.53
7.77
7.01
6.10
5.06
4.10
3.48
3.31
3.51
3.82
3.93
3.64
2.92
1.83
0.47
-1.10
-2.90
-4.95
-7.21
-9.60
-11.95
-14.14
-16.06
-17.66
-18.82
-19.34
-18.96
-17.46
-14.76
-11.02
-6.65
-2.17
1.87
5.08
7.24
8.30
8.34
7.53
6.09
4.28
2.36
0.60
-0.76
-1.57
-1.79
-1.54
-1.04
-0.56
-0.27
-0.25
-0.41
-0.64
-0.82
-0.99
-1.27
-1.87
-2.91
-4.45
-6.40
-8.63
-10.97
-13.25
-15.32
-16.92
-17.82
-17.75
-16.55
-14.21
-10.95
-7.12
-3.16
0.49
3.52
5.74
7.10
7.64
7.45
6.64
5.36
3.75
2.03
0.43
-0.81
-1.48
-1.53
-0.99
-0.07
1.00
1.97
2.67
3.04
3.09
2.89
2.46
1.80
0.85
-0.48
-2.25
-4.49
-7.10
-9.84
-12.35
-14.19
-14.99
-14.48
-12.60
-9.47
-5.39
-0.79
3.85
8.07
11.48
13.80
14.91
14.85
13.90
12.45
10.92
9.67
8.82
8.27
7.81
7.18
6.29
5.26
4.31
3.72
3.59
3.88
4.41
5.01
5.51
5.80
5.73
5.12
3.77
1.59
-1.30
-4.55
-7.64
-10.08
-11.54
-11.96
-11.46
-10.23
-8.42
-6.11
-3.35
-0.30
2.72
5.31
7.05
7.74
7.45
6.48
5.23
4.03
3.04
2.26
1.57
0.89
0.21
-0.43
-0.99
-1.50
-2.03
-2.69
-3.53
-4.55
-5.64
-6.74
-7.84
-9.05
-10.51
-12.27
-14.27
-16.27
-17.94
-18.96
-19.11
-18.22
-16.25
-13.19
-9.15
-4.34
0.83
5.79
9.86
12.49
13.38
12.60
10.62
8.13
5.84
4.27
3.56
3.52
3.78
3.97
3.93
3.74
3.60
3.69
4.00
4.30
4.33
3.89
2.97
1.72
0.28
-1.38
-3.42
-6.09
-9.42
-13.14
-16.65
-19.26
-20.36
-19.60
-17.03
-12.97
-7.93
-2.49
2.76
7.25
10.55
12.36
12.63
11.53
9.45
6.94
4.52
2.62
1.45
0.99
1.04
1.36
1.73
2.07
2.39
2.73
3.09
3.40
3.53
3.33
2.69
1.59
0.05
-1.87
-4.11
-6.59
-9.16
-11.56
-13.48
-14.58
-14.63
-13.53
-11.32
-8.18
-4.35
-0.13
4.12
8.02
11.18
13.34
14.35
14.28
13.36
11.90
10.18
8.47
6.94
5.74
4.92
4.50
4.44
4.59
4.78
4.83
4.61
4.08
3.25
2.21
1.01
-0.32
-1.82
-3.57
-5.64
-8.10
-10.89
-13.83
-16.58
-18.77
-20.02
-20.12
-19.06
-16.98
-14.17
-10.89
-7.36
-3.74
-0.24
2.89
5.32
6.78
7.10
6.36
4.84
2.95
1.07
-0.59
-1.93
-2.94
-3.60
-3.82
-3.54
-2.76
-1.63
-0.40
0.64
1.30
1.60
1.73
1.90
2.27
2.81
3.24
3.19
2.31
0.46
-2.15
-5.00
-7.40
-8.67
-8.34
-6.30
-2.77
1.77
6.72
11.44
15.39
18.20
19.70
19.99
19.35
18.18
16.81
15.44
14.02
12.41
10.50
8.33
6.18
4.42
3.42
3.25
3.75
4.48
4.98
4.85
3.97
2.43
0.51
-1.52
-3.47
-5.26
-6.96
-8.65
-10.39
-12.13
-13.65
-14.63
-14.64
-13.33
-10.52
-6.30
-1.04
4.66
10.10
14.61
17.66
19.00
18.68
17.04
14.62
12.01
9.69
7.89
6.61
5.70
5.03
4.57
4.39
4.58
5.06
5.56
5.70
5.13
3.77
1.81
-0.42
-2.65
-4.82
-7.09
-9.69
-12.67
-15.82
-18.65
-20.61
-21.31
-20.59
-18.55
-15.45
-11.61
-7.36
-3.06
0.89
4.10
6.26
7.25
7.12
6.08
4.43
2.45
0.42
-1.42
-2.85
-3.71
-3.89
-3.43
-2.43
-1.08
0.36
1.70
2.78
3.50
3.84
3.77
3.28
2.32
0.82
-1.28
-3.95
-7.08
-10.37
-13.41
-15.74
-16.90
-16.55
-14.56
-11.02
-6.32
-1.05
4.12
8.62
12.07
14.34
15.53
15.85
15.49
14.57
13.18
11.42
9.47
7.60
6.08
5.16
4.92
5.25
5.88
6.49
6.78
6.57
5.84
4.68
3.21
1.51
-0.41
-2.58
-5.06
-7.81
-10.74
-13.63
-16.25
-18.37
-19.74
-20.12
-19.30
-17.09
-13.43
-8.49
-2.69
3.32
8.79
13.07
15.74
16.71
16.18
14.53
12.22
9.63
7.11
4.91
3.24
2.26
2.06
2.59
3.66
4.98
6.27
7.23
7.68
7.46
6.54
5.01
3.06
1.00
-0.88
-2.49
-3.93
-5.45
-7.31
-9.55
-11.92
-13.90
-14.91
-14.57
-12.79
-9.76
-5.84
-1.44
3.06
7.33
11.00
13.71
15.15
15.15
13.82
11.53
8.81
6.24
4.21
2.90
2.26
2.19
2.54
3.26
4.22
5.23
5.97
6.12
5.46
4.00
2.03
-0.09
-1.99
-3.55
-4.85
-6.14
-7.64
-9.49
-11.60
-13.71
-15.38
-16.19
-15.78
-14.03
-11.06
-7.19
-2.89
1.39
5.24
8.36
10.54
11.63
11.59
10.50
8.65
6.46
4.40
2.86
2.04
1.89
2.18
2.61
2.95
3.08
3.04
2.91
2.75
2.51
2.12
1.50
0.59
-0.56
-1.94
-3.57
-5.54
-7.95
-10.80
-13.86
-16.65
-18.58
-19.13
-18.04
-15.38
-11.51
-6.89
-1.98
2.86
7.32
11.12
13.93
15.44
15.48
14.13
11.69
8.72
5.81
3.48
2.07
1.65
2.11
3.12
4.30
5.33
5.93
6.00
5.53
4.60
3.26
1.60
-0.28
-2.28
-4.28
-6.22
-8.10
-10.04
-12.13
-14.37
-16.60
-18.52
-19.72
-19.84
-18.65
-16.09
-12.30
-7.54
-2.23
3.10
7.87
11.58
13.88
14.68
14.15
12.67
10.70
8.67
6.88
5.46
4.46
3.89
3.72
3.94
4.50
5.23
5.87
6.14
5.87
5.02
3.78
2.44
1.24
0.28
-0.60
-1.66
-3.20
-5.37
-8.13
-11.28
-14.54
-17.53
-19.92
-21.38
-21.63
-20.48
-17.90
-13.99
-9.09
-3.68
1.62
6.23
9.67
11.70
12.32
11.75
10.37
8.63
6.94
5.61
4.85
4.73
5.24
6.24
7.55
8.94
10.21
11.21
11.82
11.96
11.55
10.56
9.00
7.02
4.90
2.92
1.29
0.03
-1.08
-2.40
-4.21
-6.62
-9.40
-12.13
-14.31
-15.50
-15.46
-14.14
-11.69
-8.44
-4.81
-1.26
1.78
4.04
5.41
5.97
5.87
5.32
4.50
3.57
2.74
2.16
1.98
2.24
2.84
3.61
4.37
5.04
5.57
6.02
6.36
6.50
6.29
5.61
4.47
3.06
1.67
0.57
-0.13
-0.55
-0.98
-1.76
-3.08
-4.91
-7.06
-9.25
-11.22
-12.72
-13.53
-13.40
-12.11
-9.56
-5.93
-1.68
2.53
6.07
8.49
9.68
9.76
9.01
7.67
5.96
4.00
1.98
0.10
-1.35
-2.19
-2.32
-1.79
-0.80
0.42
1.64
2.68
3.41
3.74
3.64
3.13
2.30
1.28
0.22
-0.81
-1.80
-2.82
-3.98
-5.40
-7.14
-9.14
-11.25
-13.14
-14.40
-14.57
-13.36
-10.67
-6.79
-2.33
1.91
5.13
6.81
6.77
5.29
2.91
0.38
-1.56
-2.31
-1.59
0.55
3.67
7.06
9.96
11.74
12.10
11.13
9.21
6.89
4.62
2.76
1.53
1.07
1.43
2.55
4.17
5.85
6.95
6.86
5.18
1.89
-2.64
-7.67
-12.42
-16.18
-18.55
-19.42
-18.84
-16.92
-13.76
-9.49
-4.38
1.09
6.22
10.30
12.82
13.64
13.04
11.50
9.59
7.71
6.04
4.62
3.44
2.54
2.02
1.99
2.47
3.36
4.40
5.31
5.86
5.92
5.51
4.72
3.61
2.22
0.52
-1.50
-3.80
-6.24
-8.56
-10.48
-11.67
-11.88
-10.91
-8.76
-5.61
-1.83
2.05
5.54
8.23
9.92
10.58
10.31
9.25
7.58
5.53
3.32
1.20
-0.59
-1.90
-2.68
-2.97
-2.95
-2.80
-2.68
-2.73
-2.97
-3.37
-3.91
-4.60
-5.57
-6.96
-8.90
-11.38
-14.20
-16.97
-19.21
-20.43
-20.30
-18.73
-15.85
-11.96
-7.42
-2.60
2.16
6.55
10.23
12.91
14.39
14.63
13.83
12.35
10.55
8.71
6.99
5.44
4.16
3.24
2.80
2.82
3.14
3.46
3.50
3.07
2.20
1.06
-0.18
-1.41
-2.71
-4.25
-6.26
-8.84
-11.97
-15.38
-18.67
-21.35
-22.91
-23.01
-21.50
-18.49
-14.30
-9.41
-4.36
0.35
4.37
7.45
9.49
10.50
10.59
9.93
8.75
7.35
6.04
5.05
4.51
4.40
4.56
4.76
4.83
4.69
4.39
4.04
3.74
3.50
3.23
2.80
2.09
1.02
-0.46
-2.34
-4.57
-7.02
-9.44
-11.45
-12.66
-12.74
-11.58
-9.31
-6.27
-2.89
0.47
3.59
6.38
8.80
10.78
12.22
13.01
13.08
12.48
11.37
10.03
8.76
7.85
7.44
7.52
7.93
8.42
8.76
8.82
8.60
8.16
7.54
6.69
5.51
3.87
1.83
-0.43
-2.65
-4.63
-6.39
-8.08
-9.87
-11.72
-13.36
-14.31
-14.13
-12.55
-9.61
-5.58
-0.90
3.96
8.55
12.42
15.18
16.58
16.54
15.20
12.89
10.13
7.46
5.38
4.18
3.95
4.50
5.46
6.41
6.98
6.99
6.44
5.41
4.04
2.42
0.63
-1.31
-3.33
-5.39
-7.45
-9.54
-11.70
-14.03
-16.58
-19.20
-21.52
-22.97
-22.91
-20.93
-17.00
-11.58
-5.52
0.30
5.14
8.65
10.80
11.77
11.81
11.19
10.12
8.83
7.57
6.55
5.91
5.74
5.98
6.52
7.13
7.55
7.54
6.97
5.83
4.28
2.51
0.74
-0.91
-2.39
-3.71
-4.90
-6.07
-7.39
-9.10
-11.40
-14.26
-17.33
-19.95
-21.35
-20.92
-18.44
-14.14
-8.56
-2.40
3.65
8.94
12.96
15.26
15.60
14.02
10.91
6.99
3.09
-0.05
-1.98
-2.61
-2.15
-0.99
0.49
2.01
3.43
4.68
5.69
6.35
6.54
6.20
5.35
4.17
2.91
1.78
0.90
0.25
-0.30
-0.96
-1.91
-3.30
-5.12
-7.21
-9.21
-10.65
-11.07
-10.09
-7.58
-3.64
1.36
6.89
12.27
16.85
20.06
21.57
21.35
19.65
17.03
14.14
11.69
10.16
9.83
10.63
12.18
13.90
15.22
15.68
15.10
13.56
11.33
8.75
6.16
3.78
1.75
0.10
-1.21
-2.27
-3.22
-4.23
-5.40
-6.85
-8.57
-10.50
-12.48
-14.29
-15.69
-16.46
-16.39
-15.37
-13.35
-10.38
-6.59
-2.22
2.40
6.86
10.72
13.60
15.22
15.47
14.44
12.43
9.81
7.02
4.39
2.16
0.37
-0.98
-1.93
-2.45
-2.46
-1.89
-0.80
0.53
1.69
2.23
1.88
0.60
-1.39
-3.76
-6.19
-8.47
-10.54
-12.39
-14.07
-15.62
-17.08
-18.46
-19.69
-20.58
-20.83
-20.06
-17.99
-14.58
-10.03
-4.80
0.57
5.63
10.00
13.43
15.73
16.77
16.48
14.93
12.38
9.27
6.11
3.33
1.21
-0.18
-0.93
-1.22
-1.23
-1.08
-0.87
-0.65
-0.54
-0.67
-1.16
-2.12
-3.57
-5.40
-7.50
-9.69
-11.81
-13.77
-15.50
-17.05
-18.46
-19.79
-20.95
-21.75
-21.77
-20.61
-17.93
-13.67
-8.11
-1.80
4.58
10.38
15.15
18.58
20.53
20.96
20.01
17.98
15.34
12.63
10.25
8.36
6.91
5.70
4.64
3.78
3.34
3.49
4.18
5.10
5.75
5.77
5.03
3.70
2.13
0.57
-0.91
-2.48
-4.38
-6.73
-9.45
-12.20
-14.50
-15.91
-16.13
-15.08
-12.90
-9.78
-5.98
-1.71
2.78
7.14
10.97
13.73
15.05
14.78
13.17
10.73
8.07
5.65
3.72
2.25
1.15
0.33
-0.22
-0.50
-0.51
-0.38
-0.22
-0.18
-0.32
-0.67
-1.26
-2.18
-3.47
-5.17
-7.20
-9.39
-11.51
-13.37
-14.76
-15.49
-15.34
-14.04
-11.34
-7.11
-1.50
5.11
12.07
18.64
24.11
27.93
29.79
29.65
27.75
24.45
20.24
15.54
10.71
6.06
1.83
-1.78
-4.66
-6.83
-8.44
-9.76
-11.03
-12.36
-13.67
-14.76
-15.44
-15.67
-15.62
-15.62
-16.01
-17.04
-18.71
-20.84
-23.07
-24.94
-25.96
-25.63
-23.59
-19.72
-14.23
-7.72
-1.01
5.06
9.85
13.07
14.78
15.22
14.72
13.53
11.86
9.91
7.93
6.15
4.79
3.93
3.50
3.35
3.31
3.29
3.24
3.12
2.86
2.35
1.51
0.33
-1.10
-2.67
-4.31
-6.08
-8.13
-10.54
-13.24
-15.91
-18.05
-19.11
-18.69
-16.68
-13.22
-8.72
-3.63
1.50
6.21
10.07
12.78
14.19
14.36
13.55
12.11
10.40
8.64
6.95
5.37
3.94
2.76
2.00
1.78
2.11
2.84
3.68
4.33
4.59
4.39
3.76
2.82
1.66
0.35
-1.08
-2.65
-4.34
-6.15
-7.92
-9.41
-10.25
-10.08
-8.63
-5.86
-1.99
2.55
7.30
11.84
15.87
19.15
21.47
22.65
22.62
21.46
19.42
16.85
14.14
11.57
9.34
7.49
5.99
4.70
3.42
1.90
-0.09
-2.67
-5.81
-9.30
-12.82
-15.99
-18.48
-20.08
-20.75
-20.57
-19.71
-18.30
-16.42
-14.04
-11.11
-7.61
-3.66
0.54
4.69
8.53
11.85
14.54
16.52
17.74
18.12
17.58
16.09
13.72
10.70
7.30
3.87
0.65
-2.19
-4.56
-6.38
-7.59
-8.10
-7.90
-7.10
-5.96
-4.81
-3.91
-3.42
-3.31
-3.55
-4.08
-4.94
-6.20
-7.86
-9.77
-11.57
-12.80
-13.01
-11.90
-9.46
-5.96
-1.87
2.29
6.03
9.02
11.07
12.08
12.05
11.02
9.07
6.40
3.29
0.12
-2.69
-4.82
-6.07
-6.48
-6.27
-5.80
-5.40
-5.30
-5.52
-5.89
-6.18
-6.24
-6.04
-5.70
-5.40
-5.33
-5.54
-6.06
-6.82
-7.74
-8.66
-9.36
-9.47
-8.58
-6.36
-2.72
2.11
7.58
12.96
17.52
20.68
22.17
22.01
20.47
18.01
15.09
12.13
9.46
7.29
5.72
4.70
4.07
3.59
2.97
2.03
0.76
-0.61
-1.72
-2.23
-2.04
-1.34
-0.55
-0.16
-0.47
-1.56
-3.25
-5.27
-7.40
-9.44
-11.24
-12.59
-13.21
-12.81
-11.22
-8.45
-4.81
-0.68
3.49
7.39
10.77
13.48
15.35
16.23
16.07
14.94
13.08
10.86
8.63
6.66
5.10
4.02
3.44
3.36
3.69
4.26
4.77
4.90
4.39
3.17
1.35
-0.79
-2.93
-4.81
-6.33
-7.58
-8.75
-10.12
-11.82
-13.78
-15.73
-17.19
-17.67
-16.80
-14.45
-10.74
-5.99
-0.70
4.62
9.43
13.31
15.91
17.10
16.90
15.48
13.14
10.22
7.12
4.22
1.88
0.33
-0.32
-0.18
0.50
1.35
2.04
2.31
2.06
1.34
0.25
-1.06
-2.50
-4.06
-5.79
-7.80
-10.12
-12.67
-15.21
-17.33
-18.58
-18.61
-17.23
-14.59
-10.98
-6.87
-2.71
1.12
4.35
6.80
8.35
8.98
8.72
7.71
6.18
4.45
2.88
1.74
1.21
1.28
1.84
2.62
3.37
3.88
4.06
3.95
3.64
3.24
2.77
2.17
1.29
0.02
-1.70
-3.84
-6.27
-8.84
-11.32
-13.51
-15.16
-16.02
-15.86
-14.55
-12.09
-8.66
-4.56
-0.18
4.11
7.95
11.04
13.15
14.12
13.93
12.72
10.77
8.46
6.14
4.10
2.51
1.45
0.97
1.03
1.60
2.54
3.65
4.60
5.05
4.72
3.48
1.43
-1.11
-3.67
-5.79
-7.15
-7.73
-7.81
-7.84
-8.20
-9.01
-10.05
-10.79
-10.67
-9.29
-6.55
-2.66
2.01
7.08
12.17
16.94
21.02
23.96
25.37
25.05
23.09
19.93
16.24
12.69
9.80
7.74
6.45
5.65
5.11
4.75
4.61
4.78
5.30
6.02
6.61
6.73
6.11
4.71
2.72
0.49
-1.63
-3.47
-5.08
-6.68
-8.48
-10.54
-12.69
-14.52
-15.62
-15.67
-14.58
-12.45
-9.47
-5.85
-1.77
2.57
6.86
10.68
13.55
15.08
15.11
13.77
11.43
8.57
5.70
3.17
1.23
-0.07
-0.78
-1.02
-0.97
-0.76
-0.48
-0.19
0.03
0.07
-0.15
-0.69
-1.51
-2.49
-3.52
-4.57
-5.70
-7.04
-8.70
-10.70
-12.95
-15.25
-17.35
-18.96
-19.79
-19.58
-18.18
-15.63
-12.21
-8.34
-4.47
-0.97
1.96
4.23
5.86
6.84
7.15
6.81
5.90
4.58
3.10
1.68
0.52
-0.26
-0.59
-0.45
0.21
1.37
2.99
4.92
6.92
8.68
9.95
10.54
10.39
9.59
8.25
6.50
4.40
1.98
-0.68
-3.40
-5.91
-7.86
-8.99
-9.16
-8.39
-6.81
-4.53
-1.65
1.69
5.28
8.76
11.70
13.74
14.64
14.38
13.15
11.21
8.89
6.49
4.24
2.36
0.96
0.09
-0.33
-0.39
-0.20
0.16
0.61
0.98
1.07
0.65
-0.42
-2.10
-4.22
-6.47
-8.58
-10.33
-11.62
-12.35
-12.45
-11.81
-10.35
-8.10
-5.21
-1.97
1.29
4.23
6.62
8.30
9.18
9.27
8.67
7.48
5.86
3.92
1.73
-0.63
-3.12
-5.66
-8.15
-10.42
-12.34
-13.76
-14.56
-14.68
-14.16
-13.17
-11.94
-10.78
-9.93
-9.59
-9.85
-10.72
-12.09
-13.75
-15.39
-16.63
-17.08
-16.50
-14.82
-12.10
-8.49
-4.20
0.57
5.50
10.14
13.96
16.46
17.36
16.69
14.73
11.96
8.88
5.91
3.34
1.34
-0.02
-0.77
-1.01
-0.93
-0.77
-0.68
-0.75
-1.00
-1.34
-1.75
-2.26
-2.98
-4.07
-5.69
-7.91
-10.61
-13.50
-16.10
-17.97
-18.69
-18.02
-15.91
-12.47
-7.95
-2.73
2.63
7.53
11.35
13.63
14.20
13.21
11.14
8.57
6.04
3.90
2.31
1.26
0.70
0.58
0.88
1.53
2.41
3.31
3.99
4.30
4.15
3.59
2.67
1.41
-0.25
-2.38
-5.02
-8.06
-11.23
-14.15
-16.34
-17.40
-17.00
-14.97
-11.36
-6.45
-0.75
5.10
10.44
14.62
17.24
18.11
17.37
15.43
12.91
10.44
8.51
7.31
6.74
6.55
6.52
6.57
6.75
7.17
7.84
8.58
9.10
9.14
8.62
7.60
6.27
4.76
3.06
0.97
-1.74
-5.12
-8.94
-12.64
-15.50
-16.87
-16.37
-14.02
-10.22
-5.56
-0.69
3.86
7.66
10.40
11.90
12.11
11.16
9.35
7.08
4.75
2.71
1.21
0.41
0.39
1.13
2.43
3.95
5.27
6.01
6.03
5.43
4.50
3.52
2.62
1.66
0.36
-1.65
-4.58
-8.37
-12.68
-16.91
-20.33
-22.29
-22.36
-20.41
-16.69
-11.65
-5.90
-0.02
5.46
10.12
13.57
15.58
16.09
15.27
13.51
11.30
9.10
7.17
5.61
4.40
3.47
2.86
2.63
2.86
3.51
4.42
5.34
5.94
5.98
5.33
3.98
2.09
-0.19
-2.71
-5.43
-8.36
-11.52
-14.85
-18.15
-21.04
-23.11
-23.94
-23.21
-20.82
-16.88
-11.73
-5.91
-0.08
5.08
8.97
11.24
11.81
10.92
9.03
6.68
4.39
2.56
1.41
1.03
1.32
2.09
3.08
4.02
4.67
4.86
4.57
3.88
2.96
2.04
1.26
0.70
0.30
-0.06
-0.56
-1.39
-2.67
-4.42
-6.52
-8.71
-10.62
-11.83
-12.00
-10.88
-8.47
-4.94
-0.60
4.10
8.68
12.66
15.67
17.43
17.89
17.21
15.65
13.56
11.23
8.90
6.73
4.92
3.67
3.19
3.60
4.81
6.51
8.25
9.53
9.96
9.40
7.93
5.87
3.51
1.11
-1.24
-3.54
-5.79
-7.95
-9.94
-11.70
-13.25
-14.67
-15.98
-17.01
-17.40
-16.65
-14.39
-10.58
-5.61
-0.22
4.78
8.75
11.39
12.74
13.01
12.47
11.29
9.58
7.45
5.08
2.83
1.09
0.20
0.32
1.29
2.71
4.09
5.08
5.52
5.50
5.19
4.73
4.09
3.18
1.91
0.32
-1.48
-3.38
-5.34
-7.42
-9.72
-12.18
-14.57
-16.48
-17.44
-17.11
-15.34
-12.20
-8.01
-3.17
1.83
6.53
10.57
13.72
15.86
16.95
17.00
16.08
14.36
12.11
9.71
7.55
5.99
5.23
5.32
6.08
7.21
8.31
9.02
9.06
8.31
6.82
4.79
2.49
0.20
-1.90
-3.77
-5.50
-7.26
-9.20
-11.40
-13.79
-16.19
-18.31
-19.87
-20.57
-20.19
-18.55
-15.57
-11.40
-6.34
-0.89
4.37
8.96
12.52
14.89
16.09
16.23
15.51
14.15
12.41
10.55
8.77
7.27
6.17
5.58
5.52
5.96
6.77
7.72
8.53
8.96
8.84
8.06
6.59
4.43
1.68
-1.48
-4.80
-7.93
-10.60
-12.66
-14.18
-15.36
-16.45
-17.52
-18.40
-18.68
-17.91
-15.81
-12.45
-8.21
-3.67
0.63
4.34
7.32
9.55
11.02
11.64
11.28
9.92
7.73
5.11
2.56
0.53
-0.74
-1.24
-1.14
-0.66
0.04
0.91
1.92
2.98
3.93
4.51
4.53
3.91
2.78
1.39
0.02
-1.12
-2.04
-2.90
-3.94
-5.34
-7.10
-8.99
-10.59
-11.49
-11.38
-10.15
-7.96
-5.06
-1.81
1.53
4.76
7.70
10.24
12.19
13.43
13.82
13.30
11.88
9.72
7.05
4.18
1.43
-0.95
-2.80
-4.08
-4.76
-4.88
-4.49
-3.67
-2.53
-1.26
-0.06
0.81
1.10
0.65
-0.58
-2.48
-4.77
-7.09
-9.08
-10.53
-11.40
-11.75
-11.73
-11.48
-11.08
-10.55
-9.92
-9.14
-8.11
-6.63
-4.52
-1.66
1.83
5.64
9.29
12.31
14.42
15.54
15.85
15.59
14.96
14.09
13.00
11.78
10.55
9.57
9.08
9.22
9.92
10.89
11.77
12.21
12.04
11.35
10.33
9.26
8.32
7.55
6.86
6.11
5.22
4.19
3.13
2.14
1.37
0.92
0.89
1.37
2.41
3.93
5.72
7.40
8.53
8.79
8.09
6.62
4.76
2.92
1.33
-0.01
-1.28
-2.65
-4.13
-5.56
-6.70
-7.37
-7.67
-7.88
-8.34
-9.21
-10.33
-11.29
-11.54
-10.74
-8.85
-6.17
-3.24
-0.60
1.33
2.35
2.41
1.58
0.01
-2.05
-4.21
-5.93
-6.63
-5.84
-3.33
0.71
5.74
11.01
15.75
19.38
21.56
22.13
21.09
18.53
14.69
10.03
5.21
0.94
-2.18
-3.95
-4.58
-4.66
-4.80
-5.44
-6.67
-8.26
-9.89
-11.32
-12.55
-13.71
-14.97
-16.41
-17.94
-19.41
-20.68
-21.81
-22.93
-24.27
-26.01
-28.06
-30.15
-31.78
-32.37
-31.48
-28.89
-24.71
-19.34
-13.30
-7.19
-1.47
3.47
7.37
10.04
11.36
11.33
10.06
7.84
5.10
2.31
-0.10
-1.86
-2.89
-3.32
-3.40
-3.46
-3.78
-4.55
-5.82
-7.44
-9.21
-10.93
-12.48
-13.94
-15.56
-17.65
-20.55
-24.37
-28.97
-33.93
-38.59
-42.18
-43.95
-43.31
-39.91
-33.74
-25.13
-14.70
-3.29
8.17
18.74
27.59
34.16
38.21
39.93
39.78
38.44
36.55
34.61
32.87
31.33
29.84
28.22
26.31
24.04
21.48
18.80
16.26
14.11
12.51
11.43
10.67
9.94
8.94
7.51
5.61
3.35
0.86
-1.74
-4.39
-7.10
-9.85
-12.48
-14.74
-16.27
-16.77
-16.03
-14.06
-11.05
-7.29
-3.18
0.90
4.55
7.37
9.08
9.50
8.64
6.75
4.18
1.37
-1.30
-3.53
-5.14
-6.06
-6.31
-5.92
-4.99
-3.59
-1.87
-0.07
1.45
2.25
1.98
0.51
-1.96
-4.98
-8.00
-10.63
-12.76
-14.52
-16.08
-17.48
-18.52
-18.87
-18.20
-16.29
-13.14
-8.83
-3.64
2.04
7.68
12.66
16.45
18.81
19.80
19.80
19.32
18.76
18.30
17.91
17.49
16.95
16.32
15.67
15.09
14.60
14.23
14.00
13.96
14.07
14.20
14.10
13.54
12.41
10.84
9.09
7.41
5.90
4.43
2.82
1.06
-0.56
-1.50
-1.21
0.56
3.65
7.44
11.15
14.09
15.83
16.24
15.38
13.38
10.38
6.52
2.05
-2.62
-6.92
-10.24
-12.18
-12.69
-12.20
-11.45
-11.22
-12.01
-13.86
-16.38
-18.99
-21.14
-22.55
-23.27
-23.53
-23.68
-24.00
-24.62
-25.49
-26.32
-26.66
-26.02
-23.97
-20.34
-15.22
-8.98
-2.17
4.60
10.75
15.74
19.21
21.00
21.17
20.03
18.12
15.99
14.17
12.95
12.43
12.47
12.80
13.11
13.12
12.68
11.76
10.46
8.96
7.42
5.92
4.46
2.96
1.27
-0.73
-3.12
-5.91
-9.01
-12.13
-14.84
-16.57
-16.82
-15.26
-11.95
-7.29
-1.92
3.45
8.25
12.07
14.66
15.93
15.88
14.63
12.48
9.83
7.14
4.81
3.10
2.14
1.92
2.31
3.11
4.03
4.80
5.15
5.00
4.38
3.45
2.34
1.07
-0.47
-2.45
-4.91
-7.74
-10.62
-13.17
-15.01
-15.87
-15.57
-14.00
-11.10
-6.94
-1.80
3.81
9.19
13.66
16.68
18.00
17.71
16.13
13.72
10.96
8.25
5.89
4.04
2.79
2.10
1.89
2.01
2.30
2.58
2.72
2.59
2.12
1.28
0.02
-1.66
-3.75
-6.18
-8.81
-11.48
-14.03
-16.33
-18.26
-19.72
-20.50
-20.38
-19.15
-16.68
-13.05
-8.55
-3.61
1.30
5.71
9.24
11.66
12.80
12.71
11.58
9.76
7.75
6.01
4.86
4.35
4.34
4.55
4.75
4.84
4.88
5.00
5.26
5.53
5.58
5.09
3.90
2.08
-0.16
-2.49
-4.72
-6.83
-8.91
-11.02
-13.03
-14.60
-15.29
-14.66
-12.52
-8.94
-4.31
0.85
6.00
10.62
14.36
16.96
18.29
18.36
17.25
15.18
12.44
9.35
6.26
3.45
1.15
-0.54
-1.61
-2.17
-2.38
-2.48
-2.73
-3.36
-4.52
-6.12
-7.91
-9.56
-10.77
-11.42
-11.62
-11.64
-11.70
-11.89
-12.08
-11.92
-11.01
-9.07
-5.99
-1.91
2.80
7.64
12.04
15.54
17.83
18.80
18.55
17.30
15.33
12.87
10.15
7.36
4.69
2.33
0.43
-0.91
-1.72
-2.07
-2.06
-1.79
-1.27
-0.54
0.33
1.14
1.60
1.33
0.11
-2.05
-4.87
-7.85
-10.48
-12.35
-13.17
-12.82
-11.19
-8.21
-3.96
1.25
6.80
11.94
15.96
18.48
19.43
19.01
17.51
15.18
12.21
8.87
5.52
2.69
0.84
0.22
0.71
1.85
2.99
3.55
3.25
2.17
0.62
-0.98
-2.34
-3.36
-4.20
-5.10
-6.31
-7.92
-9.89
-11.99
-13.88
-15.18
-15.53
-14.63
-12.30
-8.55
-3.67
1.82
7.22
11.81
14.98
16.38
15.96
13.97
10.82
7.02
3.08
-0.58
-3.59
-5.70
-6.82
-6.99
-6.45
-5.51
-4.47
-3.56
-2.93
-2.60
-2.58
-2.84
-3.37
-4.17
-5.24
-6.59
-8.23
-10.15
-12.30
-14.48
-16.39
-17.64
-17.89
-16.88
-14.58
-11.16
-6.94
-2.37
2.09
6.04
9.14
11.25
12.35
12.58
12.18
11.39
10.42
9.46
8.65
8.12
8.01
8.41
9.31
10.59
12.00
13.28
14.18
14.58
14.46
13.90
13.00
11.87
10.53
8.91
6.88
4.29
1.04
-2.84
-7.09
-11.26
-14.79
-17.18
-18.05
-17.27
-14.91
-11.36
-7.16
-3.03
0.31
2.33
2.78
1.78
-0.22
-2.64
-4.95
-6.81
-8.06
-8.68
-8.67
-8.01
-6.71
-4.83
-2.52
-0.04
2.33
4.35
5.86
6.79
7.12
6.82
5.88
4.35
2.36
0.17
-1.97
-3.94
-5.81
-7.78
-10.08
-12.76
-15.53
-17.88
-19.22
-19.12
-17.44
-14.43
-10.53
-6.27
-2.07
1.77
5.13
7.99
10.34
12.13
13.24
13.51
12.93
11.62
9.97
8.42
7.36
6.95
7.11
7.59
8.18
8.75
9.27
9.70
9.93
9.82
9.31
8.57
7.90
7.56
7.53
7.33
6.24
3.60
-0.79
-6.46
-12.40
-17.47
-20.81
-22.14
-21.77
-20.37
-18.69
-17.40
-16.94
-17.66
-19.72
-23.13
-27.70
-33.00
-38.40
-43.24
-46.93
-49.10
-49.58
-48.41
-45.81
-42.09
-37.67
-32.92
-28.13
-23.33
-18.38
-12.96
-6.83
0.01
7.24
14.25
20.36
25.10
28.41
30.71
32.81
35.59
39.80
45.71
53.11
61.38
69.71
77.35
83.63
88.06
90.18
89.68
86.51
81.00
73.93
66.35
59.23
53.17
48.22
43.99
39.97
35.80
31.48
27.33
23.74
20.99
19.04
17.58
16.17
14.41
12.06
9.04
5.36
1.02
-3.91
-9.23
-14.50
-19.02
-22.03
-22.99
-21.76
-18.63
-14.27
-9.49
-5.16
-2.04
-0.79
-1.88
-5.42
-11.07
-18.05
-25.29
-31.70
-36.48
-39.29
-40.20
-39.49
-37.38
-33.91
-29.03
-22.80
-15.64
-8.44
-2.37
1.44
2.32
0.26
-4.15
-10.04
-16.59
-23.25
-29.77
-36.03
-41.80
-46.75
-50.49
-52.69
-53.23
-52.23
-49.92
-46.55
-42.31
-37.37
-31.99
-26.43
-21.02
-16.06
-11.81
-8.47
-6.23
-5.25
-5.59
-7.13
-9.50
-12.15
-14.42
-15.74
-15.78
-14.54
-12.38
-9.91
-7.79
-6.62
-6.73
-8.14
-10.56
-13.54
-16.59
-19.34
-21.54
-23.05
-23.76
-23.61
-22.54
-20.61
-18.00
-15.00
-11.91
-8.98
-6.33
-3.96
-1.83
0.10
1.74
2.94
3.55
3.59
3.30
3.13
3.57
4.98
7.42
10.52
13.65
16.02
17.01
16.29
13.90
10.14
5.44
0.14
-5.47
-11.20
-16.78
-21.86
-26.02
-28.92
-30.39
-30.46
-29.27
-26.95
-23.55
-19.09
-13.65
-7.45
-0.91
5.45
11.12
15.74
19.12
21.30
22.47
22.87
22.74
22.24
21.42
20.32
19.06
17.87
17.07
16.89
17.33
18.10
18.75
18.89
18.35
17.24
15.82
14.34
12.93
11.65
10.50
9.53
8.72
7.98
7.10
5.88
4.26
2.49
1.06
0.57
1.49
3.97
7.75
12.29
16.87
20.81
23.63
25.05
25.01
23.65
21.21
17.99
14.29
10.42
6.72
3.53
1.15
-0.19
-0.46
0.18
1.37
2.65
3.58
3.90
3.57
2.69
1.42
-0.10
-1.87
-3.90
-6.23
-8.79
-11.46
-14.08
-16.46
-18.47
-19.92
-20.58
-20.18
-18.53
-15.58
-11.56
-6.87
-2.04
2.40
6.08
8.74
10.30
10.74
10.21
8.94
7.26
5.51
4.00
2.88
2.15
1.68
1.32
0.97
0.66
0.47
0.53
0.89
1.50
2.13
2.47
2.23
1.20
-0.64
-3.11
-5.93
-8.70
-11.09
-12.77
-13.42
-12.73
-10.48
-6.62
-1.39
4.63
10.64
15.76
19.35
21.07
20.98
19.40
16.84
13.78
10.65
7.77
5.32
3.41
2.06
1.22
0.82
0.78
1.04
1.49
1.96
2.27
2.25
1.75
0.72
-0.83
-2.92
-5.53
-8.59
-11.89
-14.97
-17.27
-18.16
-17.20
-14.28
-9.61
-3.70
2.73
8.90
14.07
17.62
19.21
18.85
16.86
13.79
10.22
6.67
3.52
1.04
-0.62
-1.36
-1.28
-0.62
0.26
0.97
1.23
0.93
0.14
-1.03
-2.49
-4.27
-6.51
-9.34
-12.79
-16.64
-20.42
-23.41
-24.89
-24.29
-21.47
-16.67
-10.52
-3.79
2.82
8.80
13.81
17.61
19.99
20.79
19.97
17.79
14.79
11.66
9.07
7.39
6.62
6.46
6.53
6.59
6.57
6.60
6.77
7.04
7.20
6.91
5.86
3.88
0.98
-2.66
-6.70
-10.74
-14.26
-16.75
-17.74
-16.85
-13.95
-9.14
-2.84
4.25
11.28
17.37
21.87
24.40
24.93
23.70
21.09
17.54
13.51
9.49
5.96
3.36
1.97
1.77
2.48
3.58
4.50
4.80
4.29
3.02
1.21
-0.87
-3.05
-5.34
-7.92
-10.94
-14.41
-18.05
-21.29
-23.48
-24.05
-22.69
-19.43
-14.56
-8.51
-1.81
4.96
11.10
15.91
18.80
19.50
18.15
15.27
11.62
7.93
4.78
2.46
1.04
0.43
0.49
1.03
1.86
2.81
3.68
4.28
4.49
4.23
3.51
2.42
1.03
-0.57
-2.47
-4.79
-7.63
-10.91
-14.23
-16.92
-18.18
-17.37
-14.23
-9.03
-2.46
4.61
11.37
17.23
21.85
25.02
26.53
26.26
24.23
20.77
16.52
12.26
8.72
6.36
5.23
5.10
5.58
6.28
6.93
7.32
7.34
6.90
5.98
4.56
2.67
0.32
-2.46
-5.61
-9.00
-12.44
-15.67
-18.42
-20.38
-21.21
-20.59
-18.28
-14.24
-8.76
-2.41
4.02
9.73
14.11
16.83
17.84
17.30
15.48
12.71
9.34
5.75
2.33
-0.52
-2.47
-3.31
-3.01
-1.78
-0.05
1.65
2.82
3.12
2.46
0.96
-1.13
-3.57
-6.14
-8.71
-11.21
-13.62
-15.93
-18.08
-19.92
-21.14
-21.28
-19.93
-16.85
-12.09
-6.08
0.55
7.10
12.93
17.58
20.76
22.27
22.06
20.27
17.22
13.47
9.68
6.47
4.25
3.14
2.95
3.36
3.98
4.51
4.76
4.70
4.33
3.68
2.75
1.55
0.03
-1.85
-4.12
-6.79
-9.75
-12.75
-15.42
-17.27
-17.90
-17.02
-14.54
-10.58
-5.42
0.52
6.72
12.54
17.35
20.55
21.79
21.02
18.51
14.81
10.60
6.51
3.05
0.50
-1.04
-1.68
-1.61
-1.08
-0.36
0.33
0.80
0.91
0.56
-0.31
-1.74
-3.74
-6.30
-9.36
-12.77
-16.24
-19.28
-21.34
-21.90
-20.65
-17.56
-12.92
-7.24
-1.12
4.81
10.02
14.06
16.58
17.43
16.62
14.40
11.22
7.61
4.12
1.19
-0.91
-2.14
-2.64
-2.68
-2.61
-2.71
-3.18
-4.12
-5.48
-7.15
-8.99
-10.86
-12.66
-14.42
-16.23
-18.20
-20.39
-22.61
-24.50
-25.51
-25.14
-23.03
-19.13
-13.68
-7.21
-0.41
6.00
11.36
15.14
17.01
16.88
14.93
11.62
7.58
3.55
0.20
-2.00
-2.87
-2.54
-1.35
0.25
1.86
3.20
4.12
4.56
4.52
4.00
3.01
1.60
-0.19
-2.32
-4.71
-7.28
-9.85
-12.14
-13.71
-14.12
-12.92
-9.91
-5.17
0.86
7.45
13.69
18.71
21.86
22.81
21.62
18.69
14.64
10.17
5.98
2.61
0.42
-0.43
-0.01
1.43
3.44
5.48
7.00
7.58
7.04
5.48
3.26
0.84
-1.34
-3.07
-4.37
-5.49
-6.76
-8.44
-10.57
-12.92
-15.06
-16.47
-16.70
-15.48
-12.81
-8.94
-4.26
0.74
5.60
9.84
13.04
14.84
15.04
13.69
11.17
8.09
5.13
2.79
1.30
0.61
0.50
0.73
1.17
1.76
2.39
2.94
3.23
3.12
2.59
1.73
0.62
-0.72
-2.39
-4.53
-7.22
-10.32
-13.47
-16.09
-17.57
-17.48
-15.66
-12.28
-7.79
-2.82
2.06
6.36
9.74
12.01
13.08
12.91
11.56
9.26
6.37
3.37
0.75
-1.15
-2.20
-2.53
-2.40
-2.13
-1.95
-1.97
-2.17
-2.50
-2.94
-3.52
-4.34
-5.50
-7.12
-9.26
-11.91
-14.95
-18.10
-20.92
-22.88
-23.45
-22.25
-19.21
-14.55
-8.79
-2.59
3.36
8.49
12.39
14.80
15.70
15.16
13.45
10.92
8.02
5.21
2.89
1.36
0.70
0.79
1.34
2.01
2.48
2.52
2.08
1.21
0.04
-1.30
-2.71
-4.17
-5.67
-7.29
-9.11
-11.30
-13.94
-16.95
-19.95
-22.32
-23.34
-22.44
-19.39
-14.42
-8.12
-1.20
5.65
11.83
16.88
20.41
22.18
22.16
20.64
18.21
15.67
13.77
13.01
13.49
14.88
16.62
18.09
18.87
18.79
17.99
16.72
15.21
13.57
11.82
9.91
7.89
5.86
3.96
2.23
0.61
-1.02
-2.77
-4.64
-6.49
-8.07
-9.10
-9.37
-8.76
-7.31
-5.17
-2.64
-0.06
2.26
4.08
5.33
6.02
6.25
6.09
5.65
4.99
4.19
3.37
2.64
2.19
2.14
2.65
3.72
5.32
7.28
9.37
11.34
12.93
13.98
14.39
14.17
13.39
12.10
10.34
8.06
5.21
1.76
-2.21
-6.42
-10.39
-13.53
-15.37
-15.61
-14.27
-11.64
-8.19
-4.44
-0.85
2.17
4.32
5.34
5.13
3.73
1.44
-1.25
-3.77
-5.62
-6.53
-6.52
-5.86
-4.89
-3.85
-2.84
-1.83
-0.73
0.39
1.39
2.06
2.27
2.05
1.56
1.00
0.41
-0.33
-1.47
-3.22
-5.58
-8.31
-10.95
-13.00
-14.09
-14.05
-12.92
-10.82
-7.91
-4.39
-0.56
3.16
6.20
8.05
8.42
7.32
5.12
2.31
-0.60
-3.31
-5.63
-7.48
-8.73
-9.26
-9.05
-8.20
-6.98
-5.72
-4.65
-3.87
-3.37
-3.11
-3.07
-3.29
-3.77
-4.52
-5.44
-6.44
-7.42
-8.32
-9.07
-9.54
-9.59
-9.05
-7.80
-5.83
-3.20
-0.10
3.21
6.39
9.12
11.13
12.32
12.71
12.43
11.64
10.44
8.87
6.94
4.79
2.58
0.63
-0.83
-1.66
-1.90
-1.76
-1.48
-1.28
-1.21
-1.21
-1.18
-1.12
-1.19
-1.70
-2.96
-5.12
-8.03
-11.24
-14.13
-16.08
-16.58
-15.32
-12.25
-7.53
-1.62
4.73
10.60
15.08
17.62
18.12
17.00
14.92
12.58
10.37
8.43
6.68
4.98
3.33
1.77
0.40
-0.71
-1.53
-2.03
-2.21
-2.03
-1.58
-1.00
-0.56
-0.53
-1.14
-2.52
-4.62
-7.23
-10.02
-12.52
-14.22
-14.67
-13.62
-11.10
-7.46
-3.29
0.83
4.37
7.04
8.70
9.36
9.09
8.00
6.22
4.01
1.68
-0.44
-2.01
-2.87
-3.02
-2.66
-2.06
-1.52
-1.24
-1.28
-1.57
-2.00
-2.48
-3.08
-3.94
-5.29
-7.22
-9.68
-12.31
-14.59
-15.97
-16.00
-14.55
-11.77
-8.04
-3.84
0.38
4.31
7.68
10.28
11.90
12.38
11.68
9.95
7.54
4.93
2.55
0.70
-0.55
-1.28
-1.66
-1.81
-1.78
-1.56
-1.16
-0.72
-0.46
-0.66
-1.49
-3.01
-5.04
-7.36
-9.70
-11.84
-13.58
-14.73
-15.06
-14.34
-12.45
-9.45
-5.57
-1.24
3.10
7.04
10.23
12.39
13.32
12.94
11.35
8.82
5.82
2.86
0.37
-1.37
-2.28
-2.43
-2.02
-1.23
-0.24
0.81
1.79
2.52
2.87
2.71
1.99
0.76
-0.89
-2.81
-4.91
-7.07
-9.15
-10.89
-11.97
-12.07
-10.93
-8.51
-4.96
-0.65
3.89
8.12
11.54
13.79
14.71
14.35
12.93
10.79
8.31
5.85
3.72
2.19
1.38
1.28
1.72
2.45
3.19
3.77
4.10
4.18
4.03
3.59
2.78
1.53
-0.19
-2.31
-4.66
-7.01
-9.05
-10.41
-10.72
-9.66
-7.13
-3.29
1.41
6.33
10.81
14.32
16.54
17.34
16.80
15.14
12.70
9.94
7.32
5.22
3.86
3.22
3.08
3.17
3.22
3.09
2.79
2.38
1.94
1.49
0.91
0.03
-1.38
-3.43
-6.12
-9.26
-12.48
-15.25
-17.03
-17.34
-15.90
-12.73
-8.14
-2.73
2.82
7.83
11.74
14.26
15.26
14.83
13.21
10.74
7.82
4.88
2.32
0.44
-0.63
-0.92
-0.64
-0.07
0.51
0.90
1.01
0.90
0.60
0.11
-0.67
-1.94
-3.89
-6.60
-9.91
-13.38
-16.42
-18.42
-18.92
-17.74
-14.97
-10.93
-6.06
-0.85
4.20
8.60
11.91
13.75
14.00
12.77
10.49
7.73
5.09
3.01
1.69
1.10
1.08
1.42
1.97
2.60
3.17
3.50
3.43
2.86
1.82
0.46
-1.02
-2.53
-4.14
-6.04
-8.39
-11.14
-13.92
-16.11
-17.05
-16.29
-13.77
-9.82
-5.07
-0.16
4.40
8.26
11.28
13.33
14.32
14.16
12.89
10.73
8.10
5.52
3.47
2.19
1.70
1.80
2.19
2.65
3.03
3.28
3.37
3.27
2.91
2.26
1.28
-0.01
-1.56
-3.32
-5.24
-7.29
-9.37
-11.35
-13.02
-14.10
-14.30
-13.38
-11.23
-7.92
-3.73
0.88
5.37
9.21
12.01
13.58
13.93
13.20
11.67
9.67
7.54
5.59
4.06
3.13
2.87
3.24
4.10
5.25
6.39
7.23
7.50
7.10
6.12
4.77
3.35
2.01
0.76
-0.62
-2.34
-4.51
-6.99
-9.45
-11.39
-12.35
-12.01
-10.23
-7.15
-3.11
1.36
5.61
9.07
11.39
12.49
12.54
11.87
10.76
9.37
7.71
5.80
3.76
1.86
0.45
-0.22
-0.06
0.73
1.80
2.79
3.43
3.61
3.35
2.68
1.64
0.19
-1.70
-4.07
-6.81
-9.68
-12.30
-14.22
-15.05
-14.59
-12.87
-10.10
-6.53
-2.43
1.94
6.26
10.10
12.94
14.34
14.12
12.48
9.98
7.28
4.95
3.29
2.32
1.90
1.79
1.82
1.86
1.81
1.61
1.26
0.76
0.12
-0.66
-1.70
-3.09
-4.93
-7.19
-9.73
-12.27
-14.52
-16.22
-17.17
-17.24
-16.34
-14.44
-11.60
-8.01
-3.96
0.16
3.95
7.09
9.37
10.71
11.14
10.72
9.59
7.86
5.69
3.28
0.94
-1.03
-2.32
-2.79
-2.47
-1.61
-0.55
0.34
0.83
0.83
0.40
-0.37
-1.40
-2.66
-4.18
-5.98
-8.08
-10.40
-12.73
-14.73
-16.02
-16.23
-15.17
-12.87
-9.62
-5.82
-1.88
1.88
5.25
8.05
10.06
11.07
10.92
9.59
7.29
4.42
1.45
-1.23
-3.38
-4.95
-6.03
-6.73
-7.17
-7.43
-7.60
-7.83
-8.30
-9.16
-10.51
-12.33
-14.55
-17.06
-19.84
-22.85
-26.05
-29.23
-32.05
-34.11
-35.01
-34.48
-32.38
-28.67
-23.44
-16.83
-9.09
-0.60
8.14
16.57
24.09
30.24
34.67
37.28
38.15
37.51
35.75
33.29
30.55
27.90
25.64
23.93
22.81
22.19
21.87
21.60
21.16
20.33
18.97
17.01
14.45
11.40
8.09
4.73
1.52
-1.47
-4.24
-6.78
-8.91
-10.30
-10.54
-9.28
-6.50
-2.50
2.14
6.72
10.62
13.44
15.03
15.45
14.85
13.47
11.58
9.46
7.41
5.66
4.40
3.69
3.49
3.66
3.97
4.23
4.26
3.95
3.27
2.27
0.97
-0.58
-2.39
-4.47
-6.79
-9.34
-12.02
-14.70
-17.17
-19.14
-20.27
-20.17
-18.58
-15.44
-10.97
-5.69
-0.28
4.59
8.37
10.74
11.65
11.20
9.67
7.40
4.77
2.17
-0.05
-1.66
-2.56
-2.80
-2.49
-1.79
-0.85
0.19
1.15
1.86
2.13
1.83
0.93
-0.51
-2.33
-4.35
-6.45
-8.58
-10.74
-12.91
-14.90
-16.40
-16.95
-16.17
-13.83
-10.04
-5.18
0.18
5.44
10.07
13.66
15.92
16.66
15.84
13.59
10.29
6.52
2.91
-0.04
-2.03
-3.02
-3.16
-2.70
-1.91
-1.08
-0.42
-0.08
-0.10
-0.45
-1.03
-1.79
-2.72
-3.94
-5.55
-7.64
-10.18
-12.97
-15.67
-17.85
-19.06
-18.99
-17.47
-14.54
-10.43
-5.46
-0.03
5.40
10.32
14.18
16.48
16.98
15.76
13.26
10.10
6.88
4.01
1.68
-0.09
-1.31
-1.91
-1.86
-1.18
-0.03
1.31
2.55
3.43
3.80
3.55
2.67
1.17
-0.86
-3.28
-5.89
-8.49
-10.91
-12.97
-14.45
-15.05
-14.42
-12.28
-8.53
-3.44
2.39
8.18
13.14
16.67
18.51
18.65
17.31
14.84
11.65
8.18
4.89
2.19
0.35
-0.54
-0.65
-0.25
0.33
0.82
1.07
0.99
0.59
-0.12
-1.11
-2.33
-3.75
-5.37
-7.27
-9.54
-12.22
-15.17
-18.02
-20.19
-21.05
-20.11
-17.21
-12.56
-6.71
-0.41
5.57
10.50
13.84
15.21
14.52
11.98
8.12
3.72
-0.39
-3.54
-5.35
-5.82
-5.20
-3.91
-2.36
-0.89
0.30
1.13
1.59
1.69
1.44
0.77
-0.37
-2.04
-4.20
-6.78
-9.57
-12.35
-14.78
-16.47
-16.95
-15.76
-12.61
-7.54
-1.05
6.01
12.59
17.76
20.89
21.74
20.46
17.48
13.39
8.82
4.42
0.74
-1.83
-3.15
-3.35
-2.74
-1.75
-0.77
-0.05
0.29
0.23
-0.16
-0.84
-1.79
-3.04
-4.66
-6.76
-9.38
-12.46
-15.73
-18.70
-20.72
-21.17
-19.58
-15.82
-10.17
-3.18
4.37
11.67
17.95
22.58
25.07
25.22
23.16
19.40
14.76
10.12
6.19
3.36
1.64
0.82
0.63
0.89
1.49
2.32
3.16
3.72
3.71
2.97
1.52
-0.48
-2.79
-5.32
-8.04
-10.98
-14.07
-17.00
-19.25
-20.18
-19.24
-16.23
-11.34
-5.12
1.66
8.24
13.93
18.24
20.86
21.60
20.46
17.67
13.70
9.29
5.16
1.96
0.01
-0.71
-0.49
0.28
1.26
2.26
3.15
3.84
4.20
4.01
3.13
1.51
-0.74
-3.42
-6.36
-9.44
-12.53
-15.45
-17.82
-19.13
-18.84
-16.58
-12.32
-6.41
0.53
7.68
14.20
19.37
22.66
23.82
22.90
20.26
16.49
12.30
8.33
5.03
2.65
1.22
0.66
0.81
1.51
2.56
3.68
4.58
4.97
4.67
3.63
1.98
-0.12
-2.52
-5.17
-8.10
-11.30
-14.63
-17.70
-19.96
-20.75
-19.56
-16.20
-10.93
-4.37
2.62
9.15
14.54
18.36
20.44
20.76
19.43
16.65
12.82
8.50
4.40
1.18
-0.73
-1.24
-0.62
0.64
2.03
3.11
3.67
3.58
2.87
1.59
-0.12
-2.11
-4.22
-6.33
-8.43
-10.54
-12.68
-14.79
-16.67
-17.92
-18.10
-16.77
-13.70
-8.94
-2.89
3.77
10.23
15.69
19.55
21.45
21.33
19.38
16.03
11.87
7.61
3.87
1.11
-0.42
-0.77
-0.14
1.12
2.63
3.98
4.81
4.86
3.98
2.22
-0.20
-2.97
-5.81
-8.51
-11.01
-13.31
-15.39
-17.13
-18.29
-18.53
-17.49
-14.99
-11.05
-6.00
-0.42
5.05
9.78
13.28
15.28
15.71
14.68
12.46
9.45
6.11
2.97
0.48
-1.06
-1.59
-1.25
-0.38
0.64
1.49
1.97
2.06
1.81
1.29
0.54
-0.45
-1.76
-3.46
-5.53
-7.89
-10.37
-12.68
-14.49
-15.39
-14.99
-13.01
-9.38
-4.33
1.63
7.79
13.38
17.75
20.47
21.36
20.54
18.30
15.13
11.57
8.16
5.35
3.43
2.42
2.21
2.56
3.19
3.85
4.36
4.55
4.29
3.53
2.26
0.55
-1.49
-3.77
-6.25
-8.88
-11.51
-13.85
-15.44
-15.80
-14.57
-11.70
-7.42
-2.22
3.30
8.58
13.13
16.56
18.57
19.01
17.86
15.39
12.07
8.53
5.41
3.12
1.85
1.47
1.71
2.25
2.80
3.17
3.23
2.92
2.23
1.18
-0.21
-1.90
-3.93
-6.34
-9.09
-12.04
-14.86
-17.11
-18.32
-18.12
-16.36
-13.10
-8.62
-3.34
2.16
7.28
11.43
14.19
15.33
14.93
13.25
10.74
7.88
5.14
2.86
1.30
0.52
0.41
0.71
1.11
1.31
1.20
0.80
0.22
-0.44
-1.17
-2.09
-3.39
-5.20
-7.53
-10.21
-12.95
-15.40
-17.18
-18.02
-17.67
-16.00
-13.00
-8.82
-3.82
1.47
6.41
10.37
12.93
13.93
13.52
12.03
9.89
7.47
5.06
2.82
0.92
-0.55
-1.49
-1.88
-1.77
-1.30
-0.69
-0.23
-0.17
-0.67
-1.77
-3.34
-5.15
-7.01
-8.82
-10.64
-12.58
-14.65
-16.69
-18.33
-19.10
-18.61
-16.68
-13.42
-9.14
-4.30
0.63
5.21
9.02
11.71
13.02
12.88
11.44
9.09
6.41
3.97
2.21
1.34
1.30
1.83
2.62
3.37
3.87
4.04
3.86
3.35
2.61
1.75
0.85
-0.04
-0.96
-2.00
-3.29
-4.89
-6.73
-8.59
-10.13
-10.98
-10.85
-9.61
-7.28
-4.03
-0.14
4.05
8.19
11.92
14.85
16.68
17.17
16.32
14.33
11.64
8.80
6.32
4.55
3.56
3.21
3.25
3.41
3.52
3.51
3.36
3.05
2.50
1.62
0.31
-1.42
-3.48
-5.66
-7.73
-9.56
-11.10
-12.35
-13.27
-13.70
-13.36
-11.99
-9.47
-5.92
-1.70
2.68
6.73
10.07
12.46
13.78
13.94
12.96
10.94
8.16
5.06
2.18
-0.01
-1.20
-1.35
-0.68
0.41
1.52
2.34
2.73
2.66
2.17
1.31
0.08
-1.60
-3.78
-6.47
-9.55
-12.76
-15.73
-18.02
-19.26
-19.16
-17.59
-14.60
-10.33
-5.11
0.61
6.22
11.03
14.41
15.94
15.59
13.69
10.81
7.63
4.69
2.36
0.80
0.06
0.08
0.74
1.83
3.07
4.15
4.82
4.95
4.55
3.72
2.59
1.20
-0.46
-2.49
-4.91
-7.67
-10.55
-13.19
-15.17
-16.12
-15.83
-14.22
-11.33
-7.31
-2.43
2.90
8.13
12.58
15.62
16.84
16.23
14.12
11.13
7.92
5.01
2.67
1.02
0.05
-0.25
0.08
0.91
2.01
3.04
3.66
3.64
2.92
1.67
0.18
-1.34
-2.78
-4.25
-5.96
-8.05
-10.49
-12.97
-15.04
-16.20
-16.07
-14.46
-11.46
-7.31
-2.42
2.77
7.73
11.96
15.00
16.53
16.45
14.90
12.21
8.83
5.29
2.05
-0.47
-1.97
-2.33
-1.66
-0.31
1.27
2.59
3.30
3.28
2.63
1.58
0.37
-0.89
-2.24
-3.77
-5.60
-7.79
-10.26
-12.84
-15.25
-17.16
-18.18
-17.99
-16.35
-13.20
-8.75
-3.45
2.03
6.93
10.57
12.47
12.53
10.99
8.33
5.21
2.27
-0.04
-1.45
-1.88
-1.45
-0.34
1.18
2.83
4.29
5.31
5.69
5.40
4.50
3.10
1.38
-0.55
-2.63
-4.88
-7.37
-10.20
-13.29
-16.38
-19.02
-20.58
-20.53
-18.56
-14.68
-9.25
-2.84
3.89
10.23
15.52
19.19
20.86
20.41
18.11
14.50
10.29
6.15
2.63
0.07
-1.41
-1.84
-1.44
-0.57
0.36
0.95
0.95
0.30
-0.91
-2.56
-4.50
-6.67
-9.01
-11.47
-13.95
-16.35
-18.54
-20.36
-21.58
-21.89
-20.92
-18.38
-14.18
-8.53
-1.93
4.86
11.00
15.77
18.65
19.47
18.39
15.87
12.53
9.06
6.03
3.84
2.65
2.41
2.90
3.78
4.67
5.25
5.24
4.52
3.08
1.08
-1.21
-3.46
-5.38
-6.84
-7.86
-8.60
-9.23
-9.81
-10.17
-10.01
-8.97
-6.87
-3.76
0.08
4.21
8.18
11.64
14.32
16.07
16.75
16.33
14.83
12.43
9.47
6.35
3.51
1.31
-0.09
-0.72
-0.78
-0.56
-0.30
-0.19
-0.37
-0.90
-1.85
-3.27
-5.15
-7.43
-9.96
-12.54
-14.90
-16.76
-17.83
-17.78
-16.35
-13.44
-9.15
-3.84
1.88
7.29
11.72
14.63
15.81
15.30
13.41
10.54
7.15
3.62
0.24
-2.83
-5.48
-7.65
-9.36
-10.61
-11.45
-11.89
-11.93
-11.58
-10.86
-9.82
-8.63
-7.58
-7.00
-7.19
-8.33
-10.28
-12.59
-14.53
-15.27
-14.17
-10.92
-5.72
0.86
8.02
14.94
20.90
25.29
27.66
27.78
25.71
21.91
17.14
12.33
8.27
5.44
3.89
3.37
3.48
3.81
4.07
4.06
3.73
3.08
2.15
0.99
-0.39
-2.03
-4.01
-6.35
-9.00
-11.78
-14.37
-16.38
-17.33
-16.81
-14.57
-10.63
-5.38
0.52
6.21
10.97
14.33
16.12
16.47
15.65
13.98
11.80
9.46
7.39
5.98
5.51
6.00
7.18
8.52
9.46
9.58
8.85
7.52
6.06
4.85
4.01
3.35
2.49
1.08
-1.07
-3.83
-6.90
-9.83
-12.15
-13.43
-13.30
-11.52
-8.04
-3.15
2.55
8.23
13.07
16.46
18.12
18.13
16.79
14.58
11.95
9.35
7.15
5.65
5.02
5.27
6.23
7.57
8.87
9.74
9.87
9.22
7.90
6.21
4.46
2.85
1.36
-0.16
-1.92
-4.04
-6.49
-9.06
-11.46
-13.41
-14.67
-15.06
-14.43
-12.76
-10.10
-6.71
-3.01
0.45
3.15
4.68
4.90
3.92
2.06
-0.23
-2.48
-4.33
-5.55
-6.09
-6.02
-5.53
-4.83
-4.11
-3.47
-2.93
-2.47
-2.06
-1.72
-1.52
-1.57
-1.97
-2.81
-4.14
-5.98
-8.25
-10.70
-12.91
-14.36
-14.53
-13.12
-10.14
-5.95
-1.07
3.92
8.57
12.56
15.68
17.75
18.64
18.29
16.81
14.52
11.88
9.40
7.53
6.54
6.50
7.24
8.46
9.75
10.78
11.34
11.36
10.92
10.08
8.85
7.15
4.95
2.32
-0.56
-3.41
-5.94
-7.94
-9.28
-9.85
-9.54
-8.29
-6.15
-3.32
-0.17
2.89
5.42
7.15
7.92
7.78
6.86
5.40
3.66
1.85
0.11
-1.55
-3.10
-4.50
-5.61
-6.29
-6.41
-6.04
-5.35
-4.64
-4.16
-4.05
-4.40
-5.24
-6.58
-8.40
-10.62
-13.02
-15.27
-16.98
-17.84
-17.65
-16.37
-14.11
-11.06
-7.45
-3.58
0.15
3.28
5.35
6.11
5.59
4.18
2.51
1.14
0.42
0.31
0.47
0.50
0.11
-0.74
-1.84
-2.89
-3.59
-3.81
-3.50
-2.73
-1.67
-0.55
0.32
0.60
0.01
-1.55
-3.93
-6.67
-9.14
-10.67
-10.75
-9.19
-6.15
-2.04
2.53
6.94
10.68
13.32
14.56
14.30
12.65
10.00
6.88
3.92
1.61
0.19
-0.41
-0.43
-0.14
0.25
0.69
1.13
1.51
1.68
1.50
0.80
-0.42
-2.12
-4.11
-6.18
-8.08
-9.58
-10.47
-10.57
-9.82
-8.21
-5.82
-2.85
0.42
3.62
6.32
8.14
8.85
8.38
6.90
4.71
2.14
-0.51
-2.98
-5.06
-6.57
-7.43
-7.66
-7.48
-7.22
-7.18
-7.55
-8.28
-9.18
-10.00
-10.58
-10.96
-11.32
-11.85
-12.62
-13.46
-14.01
-13.85
-12.67
-10.34
-6.98
-2.89
1.54
5.85
9.60
12.35
13.79
13.73
12.26
9.72
6.66
3.70
1.35
-0.12
-0.72
-0.69
-0.35
0.01
0.21
0.16
-0.11
-0.56
-1.18
-1.95
-2.87
-3.93
-5.12
-6.42
-7.77
-9.06
-10.12
-10.70
-10.57
-9.52
-7.46
-4.49
-0.84
3.06
6.70
9.61
11.45
12.10
11.74
10.69
9.37
8.05
6.85
5.74
4.59
3.35
2.04
0.82
-0.14
-0.68
-0.78
-0.56
-0.22
-0.07
-0.35
-1.18
-2.45
-3.90
-5.15
-5.85
-5.78
-4.89
-3.27
-1.13
1.28
3.66
5.67
7.03
7.54
7.20
6.20
4.88
3.62
2.74
2.38
2.52
2.99
3.52
3.85
3.76
3.19
2.16
0.84
-0.60
-1.99
-3.30
-4.57
-5.88
-7.26
-8.61
-9.72
-10.30
-10.07
-8.87
-6.70
-3.71
-0.16
3.58
7.11
10.00
11.93
12.66
12.20
10.76
8.73
6.58
4.70
3.31
2.44
1.90
1.46
0.90
0.17
-0.65
-1.40
-1.96
-2.38
-2.86
-3.69
-5.09
-7.07
-9.40
-11.66
-13.43
-14.33
-14.15
-12.78
-10.23
-6.65
-2.37
2.13
6.19
9.24
10.86
10.97
9.85
8.07
6.25
4.91
4.36
4.60
5.44
6.58
7.74
8.72
9.37
9.58
9.23
8.28
6.73
4.71
2.39
0.02
-2.23
-4.25
-5.98
-7.31
-8.12
-8.23
-7.43
-5.65
-2.99
0.26
3.69
6.80
9.21
10.67
11.14
10.74
9.70
8.29
6.78
5.44
4.51
4.17
4.51
5.38
6.46
7.31
7.53
6.89
5.47
3.55
1.57
-0.18
-1.55
-2.65
-3.74
-5.07
-6.83
-9.00
-11.38
-13.64
-15.39
-16.24
-15.86
-14.11
-11.01
-6.85
-2.17
2.37
6.09
8.50
9.44
9.08
7.82
6.16
4.49
3.06
1.96
1.21
0.82
0.85
1.31
2.17
3.22
4.19
4.73
4.61
3.75
2.24
0.26
-1.99
-4.38
-6.88
-9.55
-12.48
-15.71
-19.17
-22.63
-25.70
-27.84
-28.53
-27.42
-24.42
-19.81
-14.05
-7.77
-1.52
4.18
8.89
12.19
13.79
13.57
11.75
8.90
5.81
3.28
1.89
1.85
3.01
4.98
7.31
9.56
11.40
12.60
13.01
12.57
11.32
9.39
6.95
4.18
1.27
-1.69
-4.59
-7.39
-10.03
-12.46
-14.63
-16.41
-17.60
-17.93
-17.10
-14.95
-11.50
-7.07
-2.22
2.38
6.12
8.63
9.84
9.95
9.30
8.28
7.19
6.27
5.66
5.48
5.83
6.71
8.04
9.62
11.16
12.37
13.02
12.98
12.25
10.92
9.20
7.37
5.75
4.62
4.15
4.37
5.14
6.19
7.21
7.95
8.31
8.35
8.30
8.46
9.11
10.43
12.40
14.81
17.32
19.55
21.19
22.05
22.05
21.24
19.71
17.65
15.27
12.79
10.43
8.35
6.58
5.06
3.61
2.02
0.16
-2.00
-4.34
-6.61
-8.54
-10.02
-11.09
-12.01
-13.11
-14.62
-16.55
-18.68
-20.72
-22.35
-23.37
-23.66
-23.10
-21.56
-18.89
-15.08
-10.36
-5.22
-0.32
3.73
6.54
8.01
8.38
8.01
7.31
6.66
6.34
6.54
7.33
8.60
10.03
11.18
11.51
10.66
8.60
5.67
2.54
-0.08
-1.72
-2.30
-2.23
-2.11
-2.48
-3.59
-5.30
-7.25
-9.03
-10.36
-11.17
-11.54
-11.52
-11.11
-10.24
-8.87
-7.09
-5.18
-3.53
-2.55
-2.49
-3.38
-4.97
-6.87
-8.63
-9.89
-10.51
-10.54
-10.17
-9.67
-9.21
-8.87
-8.67
-8.56
-8.54
-8.61
-8.81
-9.11
-9.52
-10.03
-10.74
-11.75
-13.21
-15.11
-17.28
-19.29
-20.64
-20.81
-19.45
-16.51
-12.16
-6.80
-0.98
4.70
9.58
13.12
14.95
15.06
13.77
11.67
9.42
7.54
6.28
5.60
5.39
5.47
5.78
6.28
6.88
7.44
7.73
7.59
6.93
5.85
4.53
3.12
1.74
0.39
-0.96
-2.31
-3.55
-4.46
-4.81
-4.43
-3.27
-1.39
1.04
3.84
6.80
9.71
12.27
14.16
15.09
14.92
13.75
11.85
9.64
7.49
5.64
4.19
3.14
2.48
2.20
2.33
2.81
3.54
4.36
5.08
5.50
5.47
4.86
3.59
1.66
-0.85
-3.74
-6.71
-9.40
-11.46
-12.54
-12.43
-11.08
-8.58
-5.21
-1.29
2.75
6.52
9.63
11.83
12.98
13.08
12.30
10.89
9.13
7.30
5.61
4.21
3.16
2.47
2.09
1.92
1.86
1.80
1.69
1.52
1.25
0.86
0.31
-0.47
-1.51
-2.89
-4.62
-6.64
-8.81
-10.80
-12.24
-12.74
-12.01
-9.97
-6.81
-2.86
1.40
5.50
9.00
11.57
13.02
13.30
12.45
10.66
8.18
5.36
2.61
0.34
-1.17
-1.83
-1.72
-1.08
-0.18
0.78
1.67
2.43
3.00
3.25
3.03
2.19
0.67
-1.46
-4.00
-6.71
-9.25
-11.32
-12.67
-13.13
-12.71
-11.43
-9.40
-6.68
-3.39
0.28
3.95
7.14
9.38
10.36
10.11
8.88
7.11
5.16
3.27
1.53
-0.06
-1.42
-2.50
-3.29
-3.84
-4.27
-4.72
-5.24
-5.77
-6.17
-6.36
-6.33
-6.20
-6.21
-6.54
-7.25
-8.21
-9.11
-9.56
-9.17
-7.72
-5.18
-1.72
2.36
6.66
10.77
14.33
16.99
18.55
18.93
18.23
16.65
14.51
12.08
9.55
7.08
4.79
2.81
1.22
0.11
-0.53
-0.81
-0.91
-1.02
-1.31
-1.91
-2.91
-4.38
-6.40
-9.04
-12.27
-15.86
-19.40
-22.26
-23.79
-23.47
-21.08
-16.80
-11.17
-4.98
0.89
5.71
8.99
10.53
10.40
8.85
6.27
3.11
-0.14
-3.01
-5.08
-6.07
-5.86
-4.60
-2.63
-0.38
1.72
3.38
4.47
4.96
4.89
4.27
3.14
1.55
-0.38
-2.53
-4.73
-6.82
-8.62
-9.92
-10.50
-10.13
-8.66
-6.09
-2.57
1.56
5.88
9.88
13.10
15.16
15.87
15.24
13.53
11.14
8.52
6.00
3.75
1.85
0.37
-0.62
-1.00
-0.75
-0.00
0.91
1.57
1.61
0.85
-0.66
-2.73
-5.22
-8.04
-11.22
-14.79
-18.61
-22.34
-25.42
-27.25
-27.37
-25.59
-22.11
-17.44
-12.27
-7.29
-3.06
0.07
1.97
2.72
2.52
1.68
0.50
-0.74
-1.85
-2.69
-3.18
-3.27
-2.94
-2.22
-1.18
0.07
1.44
2.86
4.25
5.55
6.65
7.41
7.66
7.27
6.20
4.53
2.48
0.39
-1.31
-2.24
-2.09
-0.78
1.57
4.64
8.03
11.33
14.21
16.37
17.61
17.78
16.84
14.91
12.26
9.29
6.43
3.99
2.13
0.84
0.05
-0.32
-0.31
0.06
0.69
1.39
1.88
1.90
1.27
-0.06
-1.99
-4.30
-6.72
-8.94
-10.67
-11.63
-11.67
-10.78
-9.10
-6.87
-4.38
-1.90
0.38
2.29
3.73
4.70
5.28
5.66
5.97
6.29
6.51
6.38
5.68
4.31
2.39
0.28
-1.57
-2.81
-3.26
-3.02
-2.34
-1.58
-1.05
-1.02
-1.71
-3.19
-5.43
-8.20
-11.08
-13.46
-14.74
-14.46
-12.48
-9.03
-4.63
0.07
4.50
8.22
10.99
12.71
13.33
12.92
11.59
9.59
7.23
4.89
2.86
1.35
0.34
-0.26
-0.57
-0.65
-0.50
-0.07
0.61
1.35
1.81
1.57
0.30
-2.05
-5.21
-8.63
-11.67
-13.71
-14.45
-13.78
-11.83
-8.81
-4.99
-0.69
3.65
7.54
10.42
11.89
11.83
10.47
8.33
6.03
4.06
2.70
1.98
1.74
1.83
2.13
2.54
3.02
3.54
4.01
4.36
4.50
4.32
3.69
2.52
0.74
-1.63
-4.44
-7.43
-10.20
-12.31
-13.35
-12.99
-11.06
-7.65
-3.06
2.14
7.29
11.71
14.88
16.47
16.42
14.92
12.35
9.18
5.92
3.00
0.72
-0.77
-1.46
-1.46
-0.94
-0.14
0.71
1.36
1.65
1.48
0.85
-0.20
-1.64
-3.51
-5.85
-8.65
-11.72
-14.67
-16.91
-17.82
-16.95
-14.19
-9.81
-4.43
1.17
6.20
10.06
12.39
13.10
12.32
10.33
7.51
4.33
1.28
-1.22
-2.89
-3.65
-3.61
-3.04
-2.26
-1.56
-1.14
-1.12
-1.61
-2.68
-4.36
-6.62
-9.37
-12.52
-15.94
-19.58
-23.35
-27.09
-30.39
-32.71
-33.45
-32.13
-28.63
-23.19
-16.35
-8.80
-1.14
6.15
12.75
18.46
23.11
26.60
28.96
30.34
31.07
31.56
32.17
33.06
34.24
35.51
36.66
37.47
37.86
37.77
37.22
36.17
34.52
32.16
29.01
25.07
20.43
15.25
9.76
4.24
-1.02
-5.66
-9.33
-11.66
-12.40
-11.41
-8.83
-5.02
-0.60
3.71
7.18
9.28
9.71
8.46
5.77
2.05
-2.22
-6.49
-10.22
-12.93
-14.31
-14.22
-12.86
-10.67
-8.22
-6.03
-4.40
-3.43
-2.97
-2.88
-2.99
-3.29
-3.81
-4.63
-5.78
-7.27
-9.00
-10.76
-12.22
-12.91
-12.42
-10.43
-6.95
-2.26
3.08
8.38
12.89
15.97
17.10
16.00
12.70
7.59
1.40
-4.88
-10.18
-13.52
-14.29
-12.33
-8.03
-2.22
3.92
9.24
12.77
13.99
12.82
9.61
4.93
-0.53
-6.05
-10.96
-14.68
-16.75
-16.96
-15.40
-12.42
-8.61
-4.55
-0.74
2.55
5.26
7.42
9.09
10.30
11.09
11.50
11.68
11.80
11.97
12.20
12.40
12.38
12.02
11.27
10.19
8.88
7.48
6.11
4.90
4.02
3.61
3.72
4.27
5.01
5.61
5.71
5.08
3.55
1.14
-2.03
-5.75
-9.67
-13.34
-16.29
-18.06
-18.35
-17.08
-14.48
-10.97
-7.18
-3.72
-1.10
0.41
0.78
0.17
-1.15
-2.94
-4.93
-6.88
-8.49
-9.48
-9.67
-9.08
-7.94
-6.67
-5.62
-5.01
-4.77
-4.66
-4.43
-3.98
-3.41
-3.01
-3.05
-3.74
-5.06
-6.81
-8.69
-10.38
-11.59
-12.05
-11.51
-9.73
-6.55
-2.10
3.21
8.61
13.23
16.33
17.51
16.89
14.90
12.12
9.02
5.84
2.68
-0.39
-3.20
-5.51
-7.09
-7.88
-8.04
-7.91
-7.86
-8.15
-8.84
-9.83
-10.94
-12.01
-13.00
-13.98
-15.05
-16.29
-17.67
-18.94
-19.72
-19.57
-18.12
-15.25
-11.11
-6.18
-1.08
3.46
6.82
8.52
8.37
6.49
3.32
-0.45
-4.02
-6.65
-7.83
-7.40
-5.53
-2.67
0.64
3.81
6.40
8.04
8.58
8.06
6.71
4.88
3.00
1.35
0.06
-0.87
-1.54
-1.99
-2.12
-1.71
-0.56
1.47
4.32
7.79
11.58
15.32
18.66
21.22
22.71
22.95
21.92
19.80
16.92
13.73
10.60
7.87
5.73
4.24
3.34
2.88
2.68
2.54
2.34
2.01
1.57
0.99
0.24
-0.75
-2.05
-3.66
-5.49
-7.34
-8.99
-10.21
-10.82
-10.69
-9.72
-7.84
-5.02
-1.39
2.74
6.90
10.48
12.95
13.94
13.41
11.63
9.10
6.38
3.95
2.10
0.91
0.30
0.14
0.25
0.49
0.74
0.86
0.73
0.23
-0.71
-2.13
-4.05
-6.47
-9.31
-12.37
-15.29
-17.57
-18.66
-18.15
-15.91
-12.16
-7.42
-2.40
2.22
5.87
8.25
9.24
8.94
7.59
5.50
3.05
0.64
-1.41
-2.87
-3.67
-3.88
-3.77
-3.66
-3.83
-4.49
-5.62
-7.04
-8.48
-9.72
-10.74
-11.77
-13.14
-15.09
-17.58
-20.14
-22.06
-22.62
-21.38
-18.34
-13.89
-8.62
-3.15
2.04
6.59
10.18
12.51
13.36
12.72
10.86
8.35
5.89
4.10
3.30
3.36
3.87
4.26
4.13
3.37
2.14
0.77
-0.44
-1.41
-2.23
-3.09
-4.11
-5.28
-6.47
-7.53
-8.36
-8.96
-9.35
-9.43
-8.96
-7.58
-5.00
-1.18
3.56
8.58
13.09
16.42
18.20
18.46
17.50
15.79
13.79
11.91
10.39
9.37
8.87
8.78
8.89
9.00
8.90
8.49
7.74
6.66
5.26
3.59
1.67
-0.42
-2.59
-4.78
-6.95
-9.09
-11.14
-12.88
-13.97
-14.02
-12.69
-9.94
-6.03
-1.51
2.92
6.66
9.29
10.73
11.13
10.82
10.21
9.66
9.42
9.64
10.29
11.22
12.21
13.02
13.45
13.36
12.70
11.49
9.82
7.84
5.70
3.54
1.43
-0.67
-2.89
-5.35
-8.10
-11.01
-13.73
-15.78
-16.65
-15.97
-13.68
-10.03
-5.51
-0.72
3.82
7.76
10.83
12.80
13.45
12.66
10.50
7.40
4.11
1.49
0.29
0.85
3.02
6.25
9.79
12.88
14.97
15.78
15.24
13.46
10.63
7.00
2.88
-1.38
-5.44
-8.95
-11.67
-13.50
-14.44
-14.62
-14.14
-13.06
-11.38
-9.15
-6.52
-3.81
-1.42
0.26
1.02
0.87
0.07
-1.04
-2.07
-2.72
-2.75
-2.06
-0.58
1.60
4.29
7.09
9.52
11.07
11.39
10.45
8.51
6.08
3.72
1.80
0.47
-0.41
-1.13
-1.98
-3.12
-4.57
-6.18
-7.70
-8.82
-9.17
-8.49
-6.63
-3.69
-0.00
3.92
7.55
10.46
12.38
13.28
13.22
12.34
10.85
9.00
7.11
5.51
4.51
4.25
4.65
5.44
6.27
6.79
6.80
6.30
5.40
4.28
3.08
1.87
0.65
-0.58
-1.88
-3.25
-4.71
-6.29
-7.99
-9.77
-11.49
-12.86
-13.55
-13.20
-11.65
-8.98
-5.51
-1.73
1.89
4.99
7.32
8.76
9.20
8.59
7.03
4.81
2.46
0.53
-0.51
-0.53
0.32
1.66
3.06
4.20
4.91
5.14
4.84
3.99
2.53
0.48
-2.06
-4.87
-7.64
-10.07
-11.94
-13.20
-13.95
-14.45
-14.99
-15.69
-16.52
-17.27
-17.63
-17.37
-16.35
-14.60
-12.21
-9.35
-6.24
-3.13
-0.32
1.89
3.27
3.74
3.37
2.42
1.23
0.16
-0.56
-0.78
-0.52
0.13
1.02
2.00
2.95
3.76
4.30
4.44
4.09
3.23
1.95
0.47
-0.98
-2.26
-3.34
-4.29
-5.22
-6.18
-7.13
-7.99
-8.64
-9.01
-9.10
-8.89
-8.30
-7.17
-5.40
-2.97
-0.10
2.83
5.36
7.14
8.03
8.08
7.53
6.66
5.73
4.94
4.39
4.09
3.96
3.90
3.81
3.64
3.40
3.09
2.69
2.13
1.37
0.40
-0.68
-1.76
-2.73
-3.61
-4.54
-5.74
-7.35
-9.34
-11.54
-13.58
-15.06
-15.59
-14.95
-13.11
-10.27
-6.83
-3.24
0.08
2.81
4.78
5.90
6.19
5.73
4.73
3.47
2.30
1.47
1.13
1.22
1.57
1.97
2.28
2.41
2.32
2.00
1.50
0.92
0.38
-0.02
-0.29
-0.56
-1.07
-2.01
-3.41
-5.16
-7.00
-8.62
-9.79
-10.29
-9.96
-8.66
-6.35
-3.13
0.65
4.45
7.69
9.93
11.05
11.22
10.83
10.26
9.72
9.22
8.63
7.84
6.90
6.03
5.47
5.37
5.62
5.94
5.96
5.47
4.52
3.35
2.30
1.55
1.09
0.67
-0.00
-1.15
-2.81
-4.83
-6.93
-8.83
-10.30
-11.13
-11.20
-10.36
-8.54
-5.80
-2.33
1.47
5.12
8.08
9.99
10.67
10.19
8.82
6.92
4.90
3.11
1.78
1.05
0.90
1.25
1.94
2.80
3.60
4.16
4.32
3.99
3.19
2.05
0.74
-0.55
-1.76
-2.92
-4.18
-5.69
-7.50
-9.53
-11.49
-13.05
-13.83
-13.58
-12.20
-9.74
-6.38
-2.43
1.73
5.67
8.96
11.24
12.30
12.15
11.05
9.42
7.70
6.20
5.07
4.26
3.64
3.15
2.77
2.56
2.50
2.46
2.20
1.55
0.48
-0.78
-1.89
-2.57
-2.76
-2.77
-3.05
-4.03
-5.87
-8.38
-11.10
-13.53
-15.21
-15.92
-15.60
-14.24
-11.90
-8.64
-4.64
-0.21
4.19
7.95
10.54
11.63
11.20
9.59
7.33
5.02
3.13
1.86
1.21
0.99
1.00
1.08
1.16
1.19
1.12
0.87
0.38
-0.42
-1.49
-2.74
-4.02
-5.25
-6.38
-7.48
-8.70
-10.21
-12.09
-14.29
-16.55
-18.51
-19.76
-19.99
-19.07
-17.04
-14.08
-10.46
-6.46
-2.38
1.48
4.84
7.46
9.14
9.84
9.64
8.73
7.40
6.00
4.82
4.06
3.78
3.87
4.17
4.48
4.67
4.72
4.65
4.47
4.08
3.32
2.05
0.26
-1.89
-4.09
-6.05
-7.63
-8.85
-9.89
-10.92
-11.93
-12.69
-12.83
-11.98
-9.98
-6.94
-3.22
0.73
4.53
7.88
10.67
12.83
14.32
15.12
15.31
15.05
14.60
14.28
14.33
14.80
15.54
16.29
16.74
16.68
16.02
14.77
13.02
10.88
8.50
6.02
3.60
1.34
-0.75
-2.77
-4.89
-7.25
-9.89
-12.66
-15.27
-17.34
-18.50
-18.47
-17.15
-14.67
-11.37
-7.71
-4.19
-1.19
1.10
2.68
3.62
3.97
3.77
3.04
1.89
0.53
-0.74
-1.68
-2.16
-2.26
-2.20
-2.24
-2.57
-3.27
-4.31
-5.52
-6.72
-7.70
-8.29
-8.37
-7.89
-6.91
-5.61
-4.27
-3.15
-2.47
-2.24
-2.33
-2.49
-2.46
-2.03
-1.05
0.52
2.66
5.29
8.23
11.14
13.62
15.28
15.87
15.35
13.90
11.81
9.38
6.85
4.35
2.01
-0.10
-1.91
-3.32
-4.28
-4.66
-4.37
-3.33
-1.52
0.87
3.49
5.78
7.12
6.95
5.01
1.33
-3.65
-9.24
-14.55
-18.71
-21.03
-21.06
-18.77
-14.46
-8.78
-2.56
3.27
7.93
10.90
12.01
11.43
9.63
7.17
4.60
2.34
0.65
-0.39
-0.81
-0.69
-0.08
0.90
2.15
3.46
4.63
5.40
5.63
5.24
4.25
2.72
0.71
-1.74
-4.54
-7.49
-10.26
-12.45
-13.67
-13.68
-12.41
-9.98
-6.59
-2.54
1.83
6.10
9.79
12.40
13.58
13.24
11.59
9.08
6.27
3.59
1.31
-0.46
-1.72
-2.45
-2.66
-2.37
-1.69
-0.87
-0.17
0.19
0.12
-0.34
-1.07
-1.95
-2.92
-3.97
-5.08
-6.21
-7.20
-7.87
-8.01
-7.48
-6.21
-4.21
-1.51
1.74
5.28
8.67
11.36
12.85
12.81
11.25
8.50
5.11
1.64
-1.44
-3.82
-5.33
-5.89
-5.53
-4.41
-2.88
-1.36
-0.37
-0.27
-1.20
-3.03
-5.44
-8.04
-10.49
-12.60
-14.33
-15.80
-17.09
-18.22
-19.08
-19.40
-18.86
-17.20
-14.35
-10.49
-6.00
-1.41
2.80
6.30
8.96
10.79
11.91
12.42
12.42
12.02
11.32
10.46
9.59
8.80
8.16
7.59
6.99
6.26
5.36
4.31
3.26
2.37
1.76
1.47
1.39
1.26
0.78
-0.32
-2.19
-4.78
-7.86
-10.97
-13.55
-15.10
-15.25
-13.95
-11.41
-8.05
-4.34
-0.73
2.46
4.96
6.60
7.26
6.92
5.74
4.09
2.43
1.18
0.63
0.77
1.43
2.33
3.24
4.06
4.81
5.50
6.13
6.61
6.82
6.70
6.22
5.46
4.44
3.20
1.76
0.20
-1.23
-2.22
-2.42
-1.58
0.34
3.16
6.55
10.12
13.53
16.48
18.82
20.51
21.59
22.15
22.22
21.78
20.69
18.82
16.16
12.82
9.12
5.40
2.04
-0.73
-2.73
-3.87
-4.14
-3.62
-2.53
-1.20
-0.05
0.60
0.57
-0.11
-1.24
-2.53
-3.74
-4.66
-5.12
-4.97
-4.06
-2.33
0.22
3.39
6.86
10.22
13.07
15.12
16.16
16.17
15.25
13.64
11.62
9.47
7.43
5.69
4.36
3.55
3.33
3.68
4.46
5.39
6.17
6.53
6.38
5.82
4.99
4.03
2.91
1.54
-0.17
-2.12
-4.00
-5.35
-5.74
-4.97
-3.11
-0.56
2.18
4.67
6.66
8.14
9.16
9.71
9.67
8.90
7.37
5.27
3.02
1.11
-0.09
-0.59
-0.62
-0.60
-0.78
-1.24
-1.81
-2.25
-2.44
-2.51
-2.72
-3.33
-4.45
-5.99
-7.71
-9.43
-11.06
-12.74
-14.59
-16.56
-18.38
-19.57
-19.63
-18.26
-15.47
-11.60
-7.22
-2.92
0.79
3.57
5.26
5.85
5.45
4.27
2.59
0.72
-1.02
-2.37
-3.14
-3.24
-2.72
-1.80
-0.73
0.16
0.66
0.61
0.01
-1.00
-2.22
-3.41
-4.43
-5.29
-6.13
-7.22
-8.73
-10.72
-12.98
-15.09
-16.54
-16.83
-15.62
-12.84
-8.69
-3.58
1.91
7.18
11.68
15.02
16.96
17.51
16.81
15.17
12.99
10.63
8.41
6.52
5.03
3.92
3.11
2.54
2.12
1.79
1.47
1.07
0.51
-0.22
-1.12
-2.14
-3.19
-4.25
-5.30
-6.41
-7.69
-9.22
-11.06
-13.07
-14.99
-16.40
-16.89
-16.12
-13.99
-10.62
-6.35
-1.69
2.82
6.62
9.32
10.69
10.75
9.73
7.97
5.90
3.90
2.27
1.19
0.71
0.74
1.14
1.72
2.29
2.79
3.16
3.44
3.60
3.61
3.36
2.76
1.80
0.52
-0.94
-2.46
-3.93
-5.34
-6.76
-8.29
-9.94
-11.59
-12.91
-13.47
-12.90
-11.03
-7.98
-4.16
-0.09
3.72
6.89
9.19
10.52
10.83
10.25
8.99
7.42
5.95
4.94
4.54
4.70
5.22
5.82
6.31
6.58
6.65
6.56
6.38
6.15
5.86
5.51
5.07
4.53
3.84
3.02
2.06
0.93
-0.43
-2.10
-4.14
-6.50
-8.97
-11.23
-12.88
-13.61
-13.25
-11.85
-9.68
-7.13
-4.69
-2.79
-1.78
-1.80
-2.79
-4.50
-6.50
-8.33
-9.52
-9.73
-8.78
-6.72
-3.82
-0.50
2.76
5.53
7.56
8.81
9.36
9.35
8.91
8.10
6.98
5.66
4.33
3.19
2.45
2.17
2.22
2.32
2.11
1.30
-0.25
-2.38
-4.73
-6.81
-8.16
-8.46
-7.65
-5.92
-3.65
-1.28
0.78
2.27
3.05
3.14
2.69
1.91
1.04
0.29
-0.17
-0.29
-0.16
0.11
0.36
0.50
0.53
0.50
0.51
0.63
0.86
1.17
1.48
1.74
1.91
1.93
1.75
1.27
0.40
-0.90
-2.63
-4.63
-6.69
-8.54
-9.94
-10.64
-10.48
-9.32
-7.18
-4.18
-0.66
2.89
5.92
7.93
8.66
8.17
6.77
4.93
3.14
1.77
1.00
0.90
1.40
2.33
3.49
4.64
5.48
5.81
5.52
4.62
3.30
1.76
0.26
-1.04
-2.05
-2.81
-3.40
-3.96
-4.59
-5.34
-6.19
-7.04
-7.80
-8.38
-8.67
-8.59
-8.07
-7.09
-5.66
-3.92
-2.10
-0.45
0.85
1.76
2.36
2.82
3.25
3.70
4.05
4.15
3.89
3.28
2.48
1.70
1.16
0.91
0.90
0.94
0.89
0.66
0.29
-0.11
-0.41
-0.52
-0.46
-0.32
-0.23
-0.31
-0.63
-1.17
-1.79
-2.30
-2.45
-2.07
-1.08
0.48
2.43
4.52
6.49
8.06
9.02
9.23
8.68
7.51
5.99
4.41
3.02
1.92
1.07
0.30
-0.54
-1.53
-2.67
-3.89
-5.14
-6.36
-7.48
-8.38
-8.91
-8.94
-8.45
-7.57
-6.60
-5.86
-5.62
-5.92
-6.64
-7.53
-8.34
-8.92
-9.18
-9.06
-8.44
-7.14
-5.02
-2.08
1.43
5.10
8.46
11.22
13.25
14.64
15.44
15.63
15.07
13.65
11.45
8.82
6.37
4.72
4.27
5.10
6.93
9.31
11.72
13.71
14.91
15.06
13.96
11.63
8.27
4.36
0.48
-2.77
-4.94
-5.90
-5.83
-5.15
-4.37
-3.97
-4.22
-5.17
-6.65
-8.35
-9.87
-10.85
-11.02
-10.23
-8.51
-6.05
-3.21
-0.49
1.61
2.71
2.66
1.62
-0.01
-1.67
-2.89
-3.34
-2.94
-1.85
-0.30
1.42
3.04
4.36
5.18
5.39
4.94
3.95
2.65
1.32
0.20
-0.56
-0.97
-1.12
-1.17
-1.27
-1.54
-2.13
-3.10
-4.42
-5.99
-7.53
-8.71
-9.20
-8.79
-7.44
-5.31
-2.68
-0.00
2.31
3.91
4.62
4.49
3.74
2.67
1.53
0.43
-0.61
-1.64
-2.58
-3.27
-3.49
-3.11
-2.21
-1.12
-0.28
-0.00
-0.38
-1.18
-2.05
-2.64
-2.78
-2.65
-2.54
-2.75
-3.43
-4.56
-5.95
-7.44
-8.91
-10.35
-11.74
-12.96
-13.77
-13.88
-13.05
-11.21
-8.50
-5.32
-2.14
0.54
2.37
3.19
3.02
2.09
0.74
-0.68
-1.88
-2.70
-3.09
-3.13
-2.95
-2.64
-2.23
-1.73
-1.13
-0.47
0.18
0.72
1.09
1.21
1.10
0.77
0.27
-0.39
-1.25
-2.35
-3.75
-5.38
-7.10
-8.63
-9.71
-10.13
-9.84
-8.90
-7.46
-5.64
-3.54
-1.27
1.01
3.05
4.58
5.37
5.35
4.66
3.55
2.33
1.21
0.29
-0.47
-1.15
-1.76
-2.22
-2.37
-2.04
-1.20
-0.00
1.25
2.23
2.76
2.82
2.57
2.17
1.69
1.04
0.07
-1.31
-3.07
-5.01
-6.86
-8.29
-9.06
-9.01
-8.08
-6.32
-3.84
-0.87
2.32
5.43
8.18
10.31
11.64
12.03
11.39
9.80
7.48
4.86
2.40
0.55
-0.46
-0.60
-0.12
0.63
1.31
1.68
1.66
1.33
0.83
0.28
-0.30
-0.98
-1.92
-3.27
-5.15
-7.59
-10.44
-13.42
-16.11
-18.01
-18.64
-17.70
-15.12
-11.18
-6.40
-1.45
3.02
6.60
9.05
10.40
10.76
10.28
9.08
7.28
5.04
2.63
0.41
-1.26
-2.17
-2.33
-1.97
-1.44
-1.02
-0.78
-0.67
-0.51
-0.25
0.02
0.08
-0.32
-1.30
-2.77
-4.50
-6.24
-7.81
-9.16
-10.24
-10.95
-10.99
-9.99
-7.64
-3.89
0.89
6.05
10.77
14.39
16.53
17.21
16.69
15.30
13.31
10.90
8.26
5.63
3.35
1.75
1.06
1.25
2.05
3.03
3.75
3.92
3.51
2.69
1.73
0.84
0.05
-0.82
-2.03
-3.83
-6.26
-9.14
-12.05
-14.45
-15.80
-15.69
-13.90
-10.49
-5.79
-0.41
4.95
9.58
12.95
14.84
15.30
14.59
13.07
11.13
9.08
7.19
5.66
4.60
4.08
4.06
4.44
5.09
5.81
6.44
6.80
6.78
6.32
5.45
4.27
2.88
1.38
-0.20
-1.94
-4.00
-6.49
-9.40
-12.47
-15.18
-16.81
-16.73
-14.58
-10.42
-4.80
1.44
7.37
12.22
15.53
17.16
17.21
15.92
13.58
10.53
7.13
3.86
1.21
-0.37
-0.66
0.27
2.05
4.15
6.05
7.37
7.95
7.84
7.20
6.20
5.04
3.81
2.60
1.37
0.04
-1.55
-3.48
-5.71
-7.99
-9.88
-10.89
-10.60
-8.83
-5.62
-1.27
3.75
8.93
13.75
17.74
20.47
21.63
21.07
18.92
15.55
11.58
7.69
4.53
2.50
1.66
1.78
2.48
3.38
4.20
4.85
5.32
5.58
5.52
5.00
3.90
2.22
0.08
-2.30
-4.77
-7.30
-9.93
-12.67
-15.38
-17.63
-18.85
-18.45
-16.08
-11.77
-5.99
0.48
6.72
11.92
15.50
17.19
17.00
15.21
12.31
8.88
5.56
2.84
1.05
0.28
0.38
1.13
2.22
3.40
4.46
5.24
5.60
5.47
4.84
3.79
2.40
0.75
-1.15
-3.36
-5.96
-8.97
-12.22
-15.32
-17.72
-18.75
-17.87
-14.84
-9.86
-3.57
3.10
9.15
13.85
16.88
18.28
18.40
17.58
16.10
14.08
11.64
8.98
6.45
4.51
3.52
3.61
4.63
6.12
7.53
8.34
8.25
7.23
5.53
3.51
1.53
-0.21
-1.72
-3.15
-4.68
-6.49
-8.64
-11.14
-13.83
-16.34
-18.06
-18.14
-15.83
-10.83
-3.62
4.56
12.01
17.22
19.33
18.47
15.47
11.46
7.38
3.75
0.74
-1.61
-3.17
-3.72
-3.10
-1.41
0.93
3.30
5.09
5.93
5.82
5.03
3.89
2.61
1.25
-0.33
-2.22
-4.40
-6.70
-8.87
-10.72
-12.21
-13.47
-14.63
-15.69
-16.43
-16.37
-15.03
-12.10
-7.69
-2.28
3.33
8.40
12.32
14.83
15.86
15.52
13.97
11.46
8.38
5.24
2.60
0.92
0.33
0.74
1.80
3.16
4.50
5.64
6.44
6.81
6.63
5.80
4.33
2.31
-0.02
-2.39
-4.50
-6.18
-7.46
-8.55
-9.74
-11.21
-12.92
-14.50
-15.39
-15.06
-13.27
-10.10
-5.97
-1.41
3.12
7.28
10.83
13.54
15.14
15.39
14.25
11.91
8.86
5.70
3.02
1.24
0.53
0.79
1.77
3.15
4.56
5.69
6.30
6.28
5.65
4.48
2.96
1.23
-0.60
-2.44
-4.26
-6.01
-7.72
-9.41
-11.18
-13.07
-14.98
-16.60
-17.39
-16.80
-14.44
-10.34
-4.98
0.81
6.10
10.16
12.59
13.37
12.77
11.13
8.85
6.31
3.84
1.80
0.46
-0.02
0.31
1.22
2.34
3.25
3.65
3.44
2.70
1.64
0.51
-0.51
-1.35
-2.05
-2.68
-3.34
-4.16
-5.24
-6.69
-8.55
-10.77
-13.14
-15.32
-16.88
-17.44
-16.76
-14.76
-11.60
-7.56
-3.11
1.26
5.07
7.93
9.65
10.18
9.67
8.32
6.37
4.10
1.82
-0.16
-1.51
-2.03
-1.64
-0.50
1.01
2.43
3.34
3.52
3.03
2.11
1.12
0.30
-0.30
-0.83
-1.51
-2.48
-3.68
-4.94
-6.07
-7.01
-7.89
-8.85
-9.90
-10.80
-11.04
-10.15
-7.79
-4.06
0.58
5.44
9.89
13.48
16.07
17.69
18.43
18.33
17.33
15.42
12.72
9.55
6.44
3.91
2.35
1.83
2.15
2.88
3.55
3.82
3.57
2.84
1.81
0.68
-0.44
-1.55
-2.71
-4.04
-5.62
-7.47
-9.55
-11.76
-13.96
-15.90
-17.32
-17.86
-17.20
-15.16
-11.79
-7.47
-2.74
1.77
5.55
8.36
10.18
11.18
11.52
11.39
10.89
10.17
9.38
8.72
8.38
8.47
8.96
9.74
10.57
11.24
11.57
11.49
11.03
10.23
9.11
7.66
5.78
3.38
0.41
-3.09
-6.93
-10.85
-14.52
-17.58
-19.69
-20.58
-20.07
-18.13
-14.96
-10.96
-6.72
-2.88
-0.03
1.45
1.50
0.34
-1.56
-3.71
-5.67
-7.19
-8.16
-8.54
-8.33
-7.54
-6.24
-4.61
-2.94
-1.58
-0.79
-0.61
-0.92
-1.47
-1.99
-2.37
-2.62
-2.93
-3.53
-4.58
-6.15
-8.13
-10.27
-12.21
-13.58
-14.02
-13.29
-11.35
-8.36
-4.68
-0.81
2.75
5.58
7.46
8.35
8.38
7.75
6.68
5.43
4.21
3.21
2.57
2.29
2.31
2.45
2.56
2.50
2.24
1.86
1.46
1.15
0.97
0.88
0.72
0.29
-0.61
-2.09
-4.09
-6.39
-8.68
-10.68
-12.18
-13.09
-13.42
-13.15
-12.22
-10.56
-8.11
-4.98
-1.44
2.06
5.05
7.17
8.29
8.51
8.12
7.42
6.66
5.97
5.40
5.01
4.87
5.05
5.56
6.30
7.09
7.74
8.11
8.13
7.83
7.24
6.36
5.19
3.69
1.80
-0.48
-3.12
-5.99
-8.88
-11.48
-13.49
-14.64
-14.74
-13.74
-11.73
-8.94
-5.71
-2.44
0.43
2.60
3.89
4.31
3.98
3.12
1.99
0.85
-0.06
-0.53
-0.48
0.06
0.91
1.83
2.64
3.23
3.65
4.01
4.45
5.00
5.66
6.36
6.95
7.25
7.03
6.07
4.19
1.46
-1.85
-5.20
-7.92
-9.39
-9.23
-7.41
-4.21
-0.17
4.03
7.82
10.75
12.59
13.28
12.88
11.56
9.58
7.24
4.91
2.88
1.37
0.46
0.06
0.03
0.20
0.45
0.65
0.69
0.42
-0.24
-1.28
-2.55
-3.81
-4.89
-5.75
-6.56
-7.58
-9.01
-10.86
-12.90
-14.73
-15.93
-16.18
-15.30
-13.25
-10.09
-6.08
-1.61
2.78
6.48
9.03
10.22
10.14
9.13
7.57
5.82
4.12
2.65
1.53
0.86
0.66
0.85
1.23
1.60
1.80
1.73
1.45
1.01
0.53
0.08
-0.30
-0.62
-0.93
-1.34
-1.97
-2.98
-4.41
-6.18
-8.04
-9.59
-10.38
-10.06
-8.47
-5.70
-2.06
2.06
6.22
10.01
13.06
15.04
15.69
14.97
13.11
10.61
8.12
6.18
5.05
4.64
4.61
4.60
4.39
3.98
3.50
3.00
2.39
1.50
0.17
-1.53
-3.36
-4.98
-6.23
-7.23
-8.29
-9.72
-11.51
-13.31
-14.49
-14.48
-12.99
-10.21
-6.63
-2.88
0.58
3.52
5.93
7.86
9.30
10.13
10.20
9.48
8.15
6.62
5.40
4.87
5.10
5.83
6.59
6.93
6.62
5.77
4.71
3.77
3.08
2.53
1.83
0.73
-0.81
-2.64
-4.57
-6.53
-8.59
-10.91
-13.52
-16.13
-18.16
-18.90
-17.84
-14.89
-10.48
-5.39
-0.51
3.42
6.01
7.16
7.04
5.94
4.23
2.30
0.48
-0.95
-1.87
-2.26
-2.21
-1.88
-1.43
-0.98
-0.62
-0.39
-0.30
-0.36
-0.58
-0.98
-1.58
-2.42
-3.56
-5.02
-6.82
-8.88
-11.07
-13.10
-14.59
-15.11
-14.32
-12.11
-8.68
-4.53
-0.25
3.59
6.66
8.83
10.14
10.67
10.53
9.81
8.61
7.12
5.55
4.13
3.07
2.47
2.33
2.54
2.94
3.32
3.57
3.67
3.68
3.61
3.41
2.96
2.09
0.69
-1.18
-3.40
-5.74
-8.04
-10.12
-11.81
-12.88
-13.05
-12.10
-9.90
-6.59
-2.51
1.80
5.79
9.00
11.17
12.28
12.50
12.04
11.08
9.71
7.94
5.85
3.62
1.57
0.03
-0.73
-0.70
-0.03
0.93
1.84
2.42
2.56
2.22
1.49
0.43
-0.89
-2.47
-4.33
-6.47
-8.77
-11.00
-12.82
-13.88
-13.91
-12.80
-10.57
-7.34
-3.29
1.31
6.08
10.53
14.10
16.35
17.04
16.27
14.43
12.07
9.71
7.75
6.37
5.53
5.12
4.94
4.83
4.66
4.39
3.97
3.43
2.74
1.89
0.85
-0.41
-1.91
-3.70
-5.82
-8.28
-11.05
-13.92
-16.55
-18.48
-19.22
-18.47
-16.15
-12.54
-8.12
-3.50
0.78
4.32
6.87
8.31
8.66
8.01
6.59
4.73
2.88
1.44
0.71
0.78
1.50
2.58
3.69
4.58
5.11
5.31
5.27
5.07
4.73
4.15
3.22
1.83
-0.04
-2.29
-4.75
-7.25
-9.61
-11.66
-13.17
-13.89
-13.52
-11.85
-8.87
-4.82
-0.16
4.53
8.70
11.94
14.02
14.89
14.62
13.37
11.41
9.11
6.89
5.20
4.30
4.28
4.94
5.92
6.84
7.40
7.44
6.95
6.03
4.79
3.39
1.96
0.59
-0.69
-1.96
-3.33
-4.96
-6.98
-9.37
-11.95
-14.32
-15.96
-16.33
-15.06
-12.14
-7.96
-3.14
1.61
5.78
9.19
11.84
13.81
15.02
15.32
14.56
12.84
10.59
8.40
6.86
6.24
6.42
6.97
7.43
7.47
7.04
6.27
5.35
4.38
3.34
2.13
0.65
-1.14
-3.21
-5.50
-7.95
-10.49
-13.07
-15.53
-17.57
-18.79
-18.71
-17.00
-13.56
-8.72
-3.12
2.47
7.32
11.00
13.36
14.47
14.49
13.59
11.99
9.96
7.84
6.01
4.75
4.19
4.23
4.61
5.07
5.37
5.38
5.11
4.64
4.08
3.49
2.85
2.04
0.89
-0.80
-3.13
-6.06
-9.44
-12.95
-16.21
-18.75
-20.12
-19.93
-18.02
-14.53
-9.95
-4.96
-0.35
3.29
5.62
6.63
6.51
5.59
4.26
2.84
1.64
0.85
0.54
0.71
1.20
1.85
2.49
3.00
3.37
3.64
3.86
4.08
4.24
4.25
3.95
3.21
1.99
0.33
-1.64
-3.77
-5.93
-8.01
-9.88
-11.32
-12.09
-11.94
-10.71
-8.39
-5.13
-1.25
2.82
6.59
9.66
11.75
12.81
12.97
12.43
11.39
10.01
8.36
6.58
4.91
3.71
3.29
3.79
5.07
6.76
8.41
9.70
10.50
10.92
11.10
11.14
10.95
10.28
8.87
6.51
3.22
-0.82
-5.25
-9.60
-13.43
-16.28
-17.80
-17.75
-16.02
-12.70
-8.12
-2.80
2.60
7.45
11.24
13.65
14.58
14.11
12.45
9.96
7.09
4.35
2.24
1.06
0.91
1.60
2.73
3.86
4.62
4.84
4.54
3.87
2.99
1.95
0.68
-0.99
-3.17
-5.85
-8.82
-11.68
-14.02
-15.41
-15.63
-14.60
-12.40
-9.27
-5.55
-1.66
2.00
5.04
7.22
8.35
8.42
7.50
5.83
3.72
1.62
-0.14
-1.31
-1.84
-1.86
-1.56
-1.11
-0.64
-0.20
0.11
0.24
0.17
-0.04
-0.27
-0.39
-0.40
-0.51
-1.04
-2.30
-4.33
-6.85
-9.25
-10.90
-11.31
-10.33
-8.16
-5.22
-1.92
1.42
4.62
7.54
9.91
11.42
11.66
10.37
7.59
3.72
-0.57
-4.57
-7.78
-9.99
-11.34
-12.12
-12.59
-12.90
-13.09
-13.12
-12.96
-12.62
-12.17
-11.65
-11.17
-10.84
-10.79
-11.10
-11.82
-12.88
-14.11
-15.27
-16.05
-16.12
-15.15
-12.93
-9.41
-4.79
0.47
5.74
10.32
13.68
15.49
15.72
14.61
12.58
10.13
7.72
5.70
4.23
3.36
2.99
2.98
3.19
3.51
3.87
4.21
4.42
4.38
3.97
3.12
1.90
0.44
-1.10
-2.66
-4.26
-6.02
-8.03
-10.26
-12.44
-14.16
-14.95
-14.46
-12.54
-9.33
-5.20
-0.67
3.71
7.46
10.25
11.90
12.39
11.81
10.34
8.24
5.83
3.47
1.45
-0.07
-1.09
-1.75
-2.23
-2.63
-2.95
-3.14
-3.12
-2.94
-2.72
-2.69
-3.07
-4.02
-5.59
-7.72
-10.23
-12.87
-15.38
-17.46
-18.84
-19.24
-18.47
-16.45
-13.28
-9.33
-5.12
-1.19
2.00
4.28
5.69
6.38
6.46
5.96
4.85
3.23
1.38
-0.22
-1.06
-0.84
0.42
2.38
4.51
6.34
7.65
8.43
8.85
9.11
9.32
9.48
9.49
9.21
8.55
7.46
5.95
4.03
1.79
-0.63
-2.99
-4.97
-6.22
-6.48
-5.60
-3.65
-0.84
2.45
5.81
8.78
10.96
12.10
12.09
11.03
9.23
7.07
4.97
3.21
1.97
1.28
1.12
1.41
2.07
2.98
3.99
4.96
5.74
6.26
6.47
6.39
6.03
5.41
4.57
3.57
2.51
1.46
0.55
-0.12
-0.41
-0.19
0.62
2.11
4.25
6.94
9.98
13.10
15.93
18.07
19.14
18.88
17.28
14.57
11.22
7.76
4.66
2.20
0.49
-0.47
-0.74
-0.38
0.49
1.67
2.87
3.75
4.03
3.61
2.60
1.22
-0.23
-1.54
-2.61
-3.49
-4.27
-5.04
-5.79
-6.40
-6.67
-6.38
-5.39
-3.67
-1.34
1.32
3.98
6.32
8.07
9.07
9.27
8.74
7.65
6.25
4.81
3.51
2.45
1.62
0.91
0.23
-0.49
-1.21
-1.86
-2.36
-2.71
-2.94
-3.10
-3.21
-3.26
-3.22
-3.08
-2.90
-2.84
-3.06
-3.71
-4.82
-6.31
-7.99
-9.55
-10.65
-10.97
-10.27
-8.47
-5.63
-1.96
2.26
6.71
11.02
14.74
17.43
18.74
18.47
16.74
13.92
10.53
7.05
3.77
0.86
-1.62
-3.53
-4.74
-5.09
-4.65
-3.66
-2.55
-1.76
-1.57
-2.01
-2.95
-4.19
-5.62
-7.23
-9.06
-11.15
-13.41
-15.67
-17.73
-19.39
-20.44
-20.69
-20.00
-18.29
-15.59
-12.13
-8.23
-4.25
-0.53
2.75
5.47
7.53
8.84
9.29
8.86
7.62
5.81
3.78
1.89
0.44
-0.40
-0.62
-0.36
0.20
0.85
1.41
1.81
1.99
1.96
1.69
1.16
0.34
-0.80
-2.25
-4.00
-6.05
-8.41
-11.06
-13.86
-16.46
-18.34
-19.01
-18.10
-15.59
-11.80
-7.33
-2.80
1.27
4.58
7.02
8.62
9.38
9.31
8.43
6.81
4.68
2.37
0.31
-1.14
-1.76
-1.55
-0.73
0.35
1.39
2.25
2.94
3.56
4.16
4.65
4.79
4.32
3.09
1.10
-1.47
-4.36
-7.29
-10.01
-12.25
-13.73
-14.19
-13.50
-11.66
-8.84
-5.32
-1.47
2.36
5.82
8.61
10.49
11.32
11.10
10.00
8.26
6.21
4.14
2.29
0.82
-0.19
-0.72
-0.80
-0.49
0.12
0.87
1.60
2.13
2.32
2.15
1.64
0.85
-0.23
-1.64
-3.42
-5.56
-7.89
-10.13
-11.97
-13.15
-13.49
-12.89
-11.30
-8.74
-5.29
-1.22
3.05
6.96
10.02
11.90
12.54
12.08
10.79
8.96
6.85
4.70
2.72
1.13
0.11
-0.23
0.08
0.85
1.79
2.66
3.27
3.63
3.81
3.88
3.82
3.47
2.59
1.04
-1.19
-3.90
-6.75
-9.31
-11.22
-12.24
-12.23
-11.16
-9.05
-5.97
-2.11
2.17
6.40
9.93
12.19
12.80
11.83
9.68
7.02
4.49
2.44
0.90
-0.36
-1.58
-2.82
-3.91
-4.56
-4.56
-3.92
-2.97
-2.21
-2.14
-2.99
-4.75
-7.12
-9.67
-12.04
-14.08
-15.91
-17.88
-20.37
-23.59
-27.33
-31.01
-33.73
-34.71
-33.61
-30.71
-26.97
-23.69
-22.06
-22.76
-25.68
-30.05
-34.83
-39.15
-42.68
-45.67
-48.73
-52.50
-57.43
-63.71
-71.24
-79.37
-86.54
-90.00
-86.26
-72.32
-47.24
-13.27
24.37
59.16
85.78
102.05
109.40
111.73
113.38
117.44
125.05
135.96
149.33
164.29
179.67
193.31
201.75
200.78
186.85
158.77
118.62
71.59
24.33
-17.06
-48.85
-70.23
-82.76
-88.99
-91.18
-90.58
-87.58
-82.33
-75.26
-67.27
-59.45
-52.63
-47.10
-42.56
-38.45
-34.29
-30.02
-25.95
-22.63
-20.48
-19.63
-19.80
-20.41
-20.80
-20.45
-19.06
-16.60
-13.21
-9.12
-4.60
0.12
4.80
9.20
13.06
16.08
17.98
18.57
17.87
16.11
13.73
11.24
9.07
7.45
6.38
5.74
5.35
5.13
5.02
5.01
5.06
5.07
4.87
4.27
3.17
1.56
-0.41
-2.51
-4.51
-6.25
-7.75
-9.11
-10.49
-11.88
-13.04
-13.56
-12.98
-10.97
-7.56
-3.10
1.78
6.38
10.12
12.64
13.80
13.69
12.51
10.53
8.07
5.51
3.19
1.47
0.58
0.58
1.32
2.50
3.74
4.75
5.36
5.55
5.43
5.06
4.46
3.54
2.19
0.33
-2.03
-4.78
-7.67
-10.36
-12.48
-13.65
-13.60
-12.23
-9.60
-5.95
-1.69
2.71
6.76
9.99
12.06
12.77
12.10
10.28
7.73
4.98
2.58
0.96
0.30
0.58
1.53
2.80
4.02
4.91
5.32
5.22
4.70
3.89
2.94
1.93
0.84
-0.44
-2.10
-4.26
-6.90
-9.83
-12.63
-14.78
-15.71
-15.01
-12.55
-8.58
-3.65
1.50
6.15
9.74
12.02
12.94
12.61
11.24
9.03
6.31
3.47
1.00
-0.73
-1.53
-1.50
-0.98
-0.41
-0.19
-0.47
-1.19
-2.12
-3.01
-3.69
-4.19
-4.68
-5.36
-6.42
-7.92
-9.81
-11.88
-13.78
-15.14
-15.56
-14.73
-12.49
-8.89
-4.22
1.03
6.23
10.75
14.08
15.90
16.15
14.97
12.69
9.80
6.82
4.28
2.59
1.95
2.28
3.21
4.24
4.87
4.82
4.11
2.98
1.75
0.68
-0.21
-1.09
-2.17
-3.66
-5.58
-7.87
-10.35
-12.79
-14.95
-16.52
-17.16
-16.53
-14.42
-10.81
-6.04
-0.63
4.69
9.29
12.71
14.76
15.53
15.25
14.20
12.61
10.63
8.40
6.09
3.95
2.28
1.34
1.19
1.71
2.57
3.40
3.94
4.09
3.87
3.35
2.54
1.37
-0.26
-2.36
-4.88
-7.66
-10.51
-13.18
-15.42
-16.90
-17.29
-16.30
-13.82
-9.94
-5.07
0.24
5.35
9.73
13.01
15.04
15.81
15.41
14.02
11.92
9.47
7.11
5.24
4.07
3.58
3.57
3.72
3.81
3.74
3.57
3.35
3.13
2.85
2.43
1.85
1.14
0.34
-0.52
-1.54
-2.88
-4.74
-7.23
-10.32
-13.78
-17.21
-20.08
-21.85
-22.10
-20.66
-17.72
-13.78
-9.54
-5.74
-2.94
-1.43
-1.23
-2.09
-3.64
-5.50
-7.24
-8.53
-9.09
-8.76
-7.48
-5.35
-2.58
0.54
3.67
6.53
8.93
10.77
12.04
12.73
12.82
12.23
10.89
8.79
6.09
3.02
-0.12
-3.05
-5.62
-7.71
-9.19
-9.89
-9.58
-8.03
-5.23
-1.41
2.91
7.06
10.39
12.50
13.28
12.93
11.81
10.24
8.45
6.59
4.78
3.23
2.18
1.86
2.29
3.30
4.55
5.71
6.58
7.13
7.43
7.56
7.55
7.34
6.86
6.06
4.96
3.64
2.14
0.49
-1.34
-3.33
-5.35
-7.12
-8.22
-8.21
-6.78
-3.99
-0.23
3.83
7.49
10.25
11.88
12.38
11.90
10.60
8.64
6.23
3.68
1.39
-0.24
-0.94
-0.68
0.26
1.45
2.38
2.70
2.28
1.30
0.10
-0.95
-1.68
-2.19
-2.75
-3.70
-5.20
-7.17
-9.38
-11.53
-13.45
-15.03
-16.18
-16.67
-16.16
-14.33
-11.08
-6.71
-1.97
2.29
5.32
6.78
6.81
5.82
4.27
2.48
0.54
-1.48
-3.44
-4.99
-5.73
-5.35
-3.86
-1.62
0.79
2.84
4.17
4.72
4.60
4.00
3.09
1.96
0.66
-0.78
-2.40
-4.22
-6.24
-8.36
-10.32
-11.70
-12.08
-11.20
-9.04
-5.88
-2.16
1.69
5.31
8.42
10.81
12.29
12.71
12.04
10.41
8.14
5.68
3.47
1.79
0.73
0.13
-0.26
-0.69
-1.22
-1.79
-2.20
-2.26
-1.92
-1.29
-0.59
-0.08
0.04
-0.36
-1.30
-2.78
-4.71
-6.90
-9.02
-10.64
-11.30
-10.69
-8.66
-5.35
-1.13
3.49
7.96
11.87
14.86
16.74
17.40
16.83
15.13
12.54
9.46
6.29
3.40
0.96
-1.02
-2.66
-4.03
-5.10
-5.76
-5.90
-5.53
-4.80
-4.00
-3.38
-3.16
-3.48
-4.37
-5.84
-7.81
-10.13
-12.53
-14.68
-16.17
-16.65
-15.86
-13.74
-10.41
-6.17
-1.49
3.14
7.24
10.47
12.61
13.56
13.38
12.22
10.41
8.29
6.23
4.47
3.13
2.17
1.46
0.90
0.43
0.07
-0.16
-0.26
-0.31
-0.39
-0.60
-1.05
-1.85
-3.09
-4.84
-7.11
-9.73
-12.43
-14.88
-16.69
-17.54
-17.20
-15.56
-12.72
-9.01
-4.91
-1.01
2.15
4.27
5.21
5.10
4.14
2.58
0.71
-1.18
-2.78
-3.82
-4.14
-3.69
-2.59
-1.02
0.80
2.67
4.44
5.95
7.08
7.72
7.76
7.10
5.67
3.45
0.54
-2.81
-6.18
-9.09
-11.04
-11.68
-10.85
-8.64
-5.34
-1.40
2.70
6.46
9.46
11.39
12.09
11.59
10.10
7.99
5.72
3.73
2.29
1.50
1.22
1.24
1.32
1.30
1.11
0.72
0.18
-0.50
-1.27
-2.13
-3.08
-4.14
-5.39
-6.87
-8.57
-10.37
-12.06
-13.33
-13.88
-13.46
-11.94
-9.44
-6.26
-2.91
0.05
2.10
2.99
2.72
1.48
-0.41
-2.64
-4.91
-6.93
-8.42
-9.09
-8.71
-7.19
-4.68
-1.59
1.51
4.03
5.53
5.81
4.93
3.12
0.67
-2.20
-5.35
-8.74
-12.19
-15.45
-18.06
-19.55
-19.53
-17.88
-14.83
-10.86
-6.63
-2.70
0.53
2.90
4.39
5.03
4.83
3.79
2.11
0.25
-1.01
-0.85
1.34
5.55
11.10
16.90
21.89
25.38
27.25
27.73
27.09
25.47
22.77
18.91
13.96
8.25
2.25
-3.52
-8.61
-12.67
-15.41
-16.61
-16.19
-14.28
-11.24
-7.51
-3.55
0.33
3.91
7.02
9.45
11.02
11.60
11.20
10.01
8.30
6.38
4.51
2.91
1.74
1.15
1.22
1.92
3.03
4.17
4.84
4.61
3.29
1.00
-1.86
-4.81
-7.45
-9.58
-11.19
-12.34
-13.01
-13.09
-12.45
-11.07
-9.02
-6.47
-3.55
-0.37
2.94
6.11
8.78
10.47
10.84
9.83
7.66
4.75
1.61
-1.38
-4.01
-6.16
-7.76
-8.69
-8.85
-8.24
-7.05
-5.62
-4.41
-3.81
-3.96
-4.70
-5.63
-6.23
-6.14
-5.21
-3.57
-1.56
0.42
1.97
2.83
3.00
2.71
2.47
2.92
4.60
7.77
12.26
17.51
22.74
27.14
30.12
31.37
30.95
29.11
26.25
22.74
19.00
15.40
12.37
10.27
9.26
9.15
9.37
9.18
7.99
5.71
2.82
0.19
-1.40
-1.66
-0.89
0.15
0.72
0.50
-0.22
-0.76
-0.38
1.25
3.85
6.67
8.82
9.66
9.10
7.51
5.44
3.24
0.92
-1.84
-5.38
-9.73
-14.47
-18.89
-22.28
-24.29
-24.98
-24.69
-23.78
-22.38
-20.33
-17.37
-13.33
-8.42
-3.21
1.47
4.89
6.63
6.74
5.67
3.98
2.10
0.18
-1.82
-4.00
-6.30
-8.42
-9.85
-10.12
-8.88
-6.06
-1.85
3.37
9.17
15.06
20.54
25.21
28.66
30.64
31.07
30.09
28.04
25.43
22.81
20.62
19.11
18.26
17.87
17.61
17.21
16.49
15.45
14.19
12.91
11.77
10.94
10.45
10.25
10.16
9.88
9.08
7.45
4.87
1.44
-2.46
-6.23
-9.26
-11.05
-11.25
-9.82
-6.95
-3.08
1.20
5.20
8.30
10.04
10.24
8.96
6.49
3.21
-0.44
-4.02
-7.14
-9.51
-10.98
-11.59
-11.52
-11.04
-10.37
-9.62
-8.85
-8.15
-7.67
-7.68
-8.47
-10.17
-12.72
-15.79
-18.92
-21.60
-23.43
-24.14
-23.61
-21.85
-18.97
-15.18
-10.79
-6.22
-1.92
1.69
4.27
5.65
5.76
4.66
2.50
-0.44
-3.76
-6.99
-9.68
-11.47
-12.21
-11.98
-11.00
-9.62
-8.17
-7.02
-6.43
-6.58
-7.55
-9.22
-11.42
-13.95
-16.63
-19.39
-22.18
-24.90
-27.36
-29.30
-30.44
-30.64
-29.90
-28.41
-26.46
-24.33
-22.24
-20.36
-18.86
-17.89
-17.62
-18.15
-19.49
-21.47
-23.78
-26.04
-27.90
-29.13
-29.63
-29.45
-28.67
-27.39
-25.67
-23.52
-20.99
-18.15
-15.18
-12.34
-9.84
-7.81
-6.20
-4.83
-3.50
-2.15
-0.90
-0.02
0.34
0.24
0.09
0.49
2.01
5.00
9.40
14.77
20.46
25.85
30.45
34.01
36.53
38.16
39.17
39.80
40.21
40.45
40.42
39.95
38.88
37.20
35.07
32.81
30.77
29.20
28.18
27.60
27.26
27.04
26.84
26.61
26.27
25.68
24.71
23.40
22.03
21.09
21.15
22.55
25.27
28.89
32.73
36.06
38.28
39.09
38.42
36.48
33.64
30.38
27.22
24.59
22.74
21.66
21.06
20.47
19.47
17.79
15.45
12.65
9.61
6.38
2.81
-1.31
-6.12
-11.41
-16.66
-21.13
-24.18
-25.44
-24.93
-22.92
-19.83
-16.05
-11.95
-7.93
-4.43
-1.93
-0.79
-1.16
-2.85
-5.43
-8.34
-11.10
-13.45
-15.33
-16.83
-18.05
-19.04
-19.74
-20.05
-19.90
-19.30
-18.35
-17.25
-16.27
-15.64
-15.53
-16.01
-17.01
-18.41
-20.05
-21.84
-23.70
-25.51
-27.05
-27.96
-27.84
-26.35
-23.41
-19.21
-14.18
-8.86
-3.73
0.86
4.68
7.63
9.62
10.61
10.63
9.83
8.53
7.13
6.06
5.64
6.02
7.08
8.55
10.07
11.30
12.05
12.24
11.91
11.17
10.15
8.95
7.66
6.29
4.83
3.18
1.21
-1.18
-3.95
-6.88
-9.55
-11.42
-12.02
-11.08
-8.70
-5.34
-1.67
1.62
4.01
5.32
5.62
5.13
4.05
2.55
0.76
-1.08
-2.60
-3.40
-3.24
-2.15
-0.48
1.25
2.55
3.12
2.96
2.23
1.17
-0.00
-1.13
-2.06
-2.65
-2.83
-2.62
-2.25
-2.07
-2.45
-3.63
-5.53
-7.77
-9.75
-10.84
-10.60
-8.92
-6.08
-2.60
0.91
3.95
6.24
7.69
8.39
8.46
7.98
7.03
5.71
4.18
2.66
1.35
0.39
-0.13
-0.27
-0.12
0.14
0.34
0.29
-0.10
-0.86
-1.90
-3.06
-4.22
-5.30
-6.31
-7.33
-8.47
-9.77
-11.24
-12.79
-14.25
-15.36
-15.80
-15.21
-13.31
-10.05
-5.60
-0.45
4.76
9.34
12.72
14.60
14.88
13.76
11.62
8.95
6.26
3.99
2.38
1.47
1.06
0.85
0.56
0.06
-0.63
-1.36
-1.96
-2.33
-2.52
-2.64
-2.88
-3.40
-4.32
-5.68
-7.47
-9.64
-12.09
-14.64
-17.03
-18.88
-19.79
-19.41
-17.63
-14.54
-10.50
-5.95
-1.27
3.30
7.56
11.34
14.35
16.26
16.78
15.82
13.58
10.52
7.24
4.29
2.07
0.73
0.21
0.31
0.78
1.41
1.98
2.38
2.50
2.25
1.60
0.59
-0.66
-1.96
-3.20
-4.33
-5.37
-6.36
-7.21
-7.72
-7.55
-6.40
-4.10
-0.73
3.41
7.87
12.15
15.75
18.32
19.61
19.57
18.35
16.30
13.91
11.66
9.91
8.83
8.37
8.30
8.30
8.07
7.37
6.07
4.22
2.00
-0.34
-2.56
-4.50
-6.21
-7.86
-9.65
-11.72
-14.06
-16.56
-18.97
-21.00
-22.35
-22.70
-21.78
-19.44
-15.76
-11.10
-6.01
-1.13
3.02
6.09
8.00
8.81
8.67
7.76
6.26
4.43
2.56
0.95
-0.16
-0.70
-0.68
-0.29
0.28
0.86
1.36
1.73
2.00
2.17
2.18
1.80
0.74
-1.27
-4.26
-7.92
-11.62
-14.63
-16.38
-16.68
-15.72
-13.90
-11.57
-8.95
-6.04
-2.88
0.44
3.59
6.13
7.71
8.17
7.63
6.41
4.93
3.56
2.50
1.79
1.36
1.11
0.98
0.94
0.95
0.98
0.92
0.66
0.14
-0.68
-1.75
-3.02
-4.44
-5.94
-7.45
-8.88
-10.06
-10.82
-10.94
-10.22
-8.53
-5.84
-2.26
1.90
6.23
10.21
13.41
15.47
16.26
15.78
14.25
11.98
9.36
6.77
4.54
2.91
1.95
1.61
1.72
2.08
2.48
2.77
2.86
2.72
2.38
1.87
1.23
0.48
-0.43
-1.62
-3.19
-5.21
-7.54
-9.86
-11.69
-12.58
-12.26
-10.72
-8.21
-5.11
-1.76
1.60
4.82
7.76
10.27
12.14
13.24
13.51
13.10
12.24
11.17
10.06
9.00
7.96
6.89
5.79
4.68
3.65
2.78
2.09
1.52
0.96
0.25
-0.72
-2.00
-3.56
-5.38
-7.47
-9.86
-12.55
-15.42
-18.21
-20.47
-21.69
-21.48
-19.61
-16.15
-11.44
-5.98
-0.33
5.00
9.64
13.36
16.02
17.56
18.03
17.55
16.39
14.91
13.51
12.54
12.13
12.18
12.38
12.30
11.62
10.17
8.09
5.69
3.35
1.36
-0.22
-1.58
-3.03
-4.84
-7.09
-9.63
-12.11
-14.15
-15.49
-16.00
-15.68
-14.49
-12.36
-9.18
-4.96
0.04
5.30
10.11
13.83
16.03
16.71
16.13
14.74
12.98
11.11
9.28
7.60
6.24
5.41
5.28
5.82
6.75
7.62
7.97
7.54
6.33
4.60
2.72
0.96
-0.57
-1.97
-3.46
-5.25
-7.42
-9.87
-12.26
-14.12
-14.94
-14.37
-12.31
-8.95
-4.71
-0.07
4.48
8.55
11.83
14.09
15.17
15.06
13.91
12.02
9.80
7.59
5.65
4.10
2.99
2.30
2.00
2.05
2.32
2.62
2.70
2.34
1.43
-0.05
-1.97
-4.21
-6.61
-9.11
-11.66
-14.23
-16.72
-18.94
-20.57
-21.27
-20.77
-18.94
-15.87
-11.84
-7.18
-2.30
2.49
6.84
10.48
13.13
14.64
15.00
14.41
13.18
11.69
10.24
8.99
8.00
7.21
6.58
6.01
5.47
4.93
4.39
3.85
3.32
2.77
2.11
1.25
0.10
-1.41
-3.35
-5.71
-8.41
-11.32
-14.20
-16.70
-18.45
-19.07
-18.33
-16.21
-12.89
-8.79
-4.45
-0.36
3.05
5.56
7.05
7.53
7.05
5.76
3.89
1.74
-0.34
-2.05
-3.30
-4.13
-4.71
-5.14
-5.44
-5.51
-5.24
-4.63
-3.86
-3.19
-2.88
-3.09
-3.88
-5.21
-6.96
-9.00
-11.14
-13.10
-14.54
-15.10
-14.53
-12.73
-9.83
-6.09
-1.88
2.40
6.43
9.89
12.52
14.06
14.37
13.49
11.62
9.17
6.59
4.27
2.43
1.08
0.10
-0.65
-1.19
-1.48
-1.42
-0.96
-0.17
0.72
1.45
1.77
1.57
0.82
-0.41
-2.01
-3.90
-5.91
-7.80
-9.23
-9.82
-9.34
-7.73
-5.23
-2.20
0.90
3.70
5.94
7.46
8.13
7.91
6.78
4.87
2.44
-0.11
-2.41
-4.15
-5.19
-5.60
-5.53
-5.18
-4.73
-4.27
-3.82
-3.36
-2.87
-2.39
-2.01
-1.90
-2.22
-3.10
-4.55
-6.41
-8.38
-10.10
-11.19
-11.39
-10.56
-8.70
-5.92
-2.44
1.42
5.29
8.76
11.47
13.12
13.56
12.82
11.10
8.74
6.13
3.65
1.55
-0.05
-1.14
-1.80
-2.10
-2.12
-1.94
-1.69
-1.54
-1.66
-2.16
-3.04
-4.18
-5.44
-6.76
-8.21
-9.90
-11.92
-14.16
-16.25
-17.66
-17.87
-16.61
-13.96
-10.31
-6.19
-2.07
1.73
5.03
7.75
9.74
10.90
11.22
10.88
10.17
9.47
8.98
8.68
8.39
7.82
6.84
5.47
3.89
2.29
0.81
-0.49
-1.59
-2.41
-2.87
-2.90
-2.59
-2.15
-1.96
-2.27
-3.10
-4.19
-5.04
-5.18
-4.33
-2.48
0.12
3.14
6.29
9.34
12.08
14.31
15.76
16.25
15.68
14.16
11.97
9.45
7.01
5.00
3.68
3.12
3.19
3.57
3.91
3.95
3.66
3.20
2.77
2.41
1.94
1.00
-0.69
-3.17
-6.17
-9.18
-11.67
-13.22
-13.63
-12.83
-10.90
-7.95
-4.18
0.10
4.50
8.59
11.89
14.07
14.91
14.37
12.60
9.92
6.77
3.60
0.79
-1.46
-3.09
-4.15
-4.71
-4.79
-4.35
-3.37
-1.91
-0.20
1.38
2.36
2.33
1.08
-1.34
-4.61
-8.23
-11.64
-14.24
-15.58
-15.35
-13.41
-9.88
-5.03
0.61
6.41
11.67
15.71
18.03
18.36
16.81
13.80
10.05
6.32
3.24
1.13
-0.06
-0.62
-0.87
-1.02
-1.12
-1.14
-1.10
-1.08
-1.32
-2.00
-3.19
-4.81
-6.73
-8.81
-10.98
-13.23
-15.42
-17.26
-18.32
-18.13
-16.36
-12.98
-8.30
-2.85
2.72
7.79
11.90
14.71
16.06
15.90
14.33
11.64
8.35
5.11
2.56
1.15
0.99
1.81
3.06
4.17
4.71
4.56
3.79
2.63
1.27
-0.23
-1.87
-3.72
-5.86
-8.31
-11.03
-13.87
-16.54
-18.60
-19.59
-19.08
-16.87
-13.06
-8.02
-2.31
3.45
8.65
12.84
15.64
16.82
16.32
14.25
10.96
7.03
3.14
-0.06
-2.09
-2.80
-2.35
-1.09
0.52
2.09
3.29
3.96
4.00
3.42
2.30
0.80
-0.92
-2.74
-4.64
-6.65
-8.78
-10.95
-12.90
-14.27
-14.63
-13.65
-11.18
-7.36
-2.60
2.53
7.40
11.45
14.26
15.58
15.32
13.57
10.62
6.97
3.26
0.21
-1.66
-2.13
-1.41
0.01
1.53
2.68
3.23
3.21
2.83
2.25
1.55
0.60
-0.75
-2.71
-5.29
-8.38
-11.71
-14.90
-17.58
-19.41
-20.06
-19.30
-16.94
-13.00
-7.72
-1.58
4.73
10.45
14.92
17.71
18.69
18.04
16.17
13.59
10.82
8.32
6.44
5.36
5.15
5.71
6.83
8.24
9.68
10.92
11.87
12.49
12.80
12.76
12.26
11.08
9.00
5.92
1.92
-2.63
-7.09
-10.72
-12.78
-12.79
-10.65
-6.61
-1.26
4.67
10.48
15.55
19.45
21.85
22.61
21.72
19.38
16.02
12.24
8.64
5.73
3.76
2.75
2.56
2.97
3.75
4.70
5.55
6.04
5.95
5.16
3.73
1.88
-0.11
-2.07
-3.92
-5.75
-7.68
-9.68
-11.55
-12.89
-13.24
-12.26
-9.87
-6.29
-1.96
2.56
6.78
10.34
12.98
14.57
15.02
14.32
12.58
10.07
7.23
4.59
2.59
1.49
1.27
1.61
2.06
2.17
1.71
0.68
-0.67
-2.02
-3.16
-4.06
-4.91
-6.02
-7.59
-9.72
-12.28
-14.99
-17.46
-19.30
-20.15
-19.70
-17.76
-14.31
-9.58
-4.03
1.68
6.82
10.74
13.02
13.47
12.26
9.79
6.67
3.59
1.14
-0.28
-0.60
0.00
1.18
2.58
3.92
5.05
5.88
6.37
6.46
6.13
5.38
4.24
2.73
0.84
-1.45
-4.14
-7.14
-10.17
-12.86
-14.69
-15.26
-14.29
-11.77
-7.95
-3.31
1.50
5.85
9.22
11.34
12.19
11.90
10.71
8.83
6.49
3.95
1.52
-0.44
-1.62
-1.93
-1.53
-0.78
-0.11
0.19
0.05
-0.39
-0.94
-1.46
-1.94
-2.52
-3.37
-4.63
-6.37
-8.51
-10.87
-13.16
-15.01
-16.04
-15.90
-14.40
-11.59
-7.69
-3.17
1.44
5.62
8.91
11.01
11.75
11.12
9.21
6.33
2.93
-0.42
-3.16
-4.85
-5.37
-4.89
-3.82
-2.63
-1.66
-1.06
-0.76
-0.64
-0.60
-0.66
-0.95
-1.62
-2.76
-4.38
-6.37
-8.57
-10.79
-12.83
-14.44
-15.33
-15.22
-13.88
-11.25
-7.48
-2.96
1.75
6.08
9.56
11.93
13.16
13.38
12.79
11.65
10.18
8.57
7.00
5.55
4.30
3.29
2.57
2.18
2.21
2.67
3.50
4.50
5.39
5.89
5.84
5.22
4.15
2.80
1.29
-0.32
-2.04
-3.80
-5.38
-6.39
-6.39
-5.01
-2.13
1.97
6.71
11.37
15.27
17.99
19.34
19.37
18.23
16.08
13.12
9.65
6.10
2.96
0.64
-0.66
-1.05
-0.96
-0.87
-1.22
-2.15
-3.54
-5.10
-6.57
-7.80
-8.90
-10.08
-11.51
-13.26
-15.13
-16.80
-17.90
-18.13
-17.35
-15.59
-13.02
-9.87
-6.42
-2.92
0.34
3.12
5.19
6.37
6.63
6.05
4.82
3.21
1.45
-0.25
-1.77
-3.02
-4.00
-4.70
-5.14
-5.34
-5.31
-5.11
-4.81
-4.52
-4.40
-4.68
-5.57
-7.23
-9.66
-12.57
-15.45
-17.64
-18.57
-17.90
-15.67
-12.23
-8.07
-3.69
0.54
4.35
7.51
9.77
10.95
10.94
9.84
7.95
5.72
3.56
1.76
0.43
-0.46
-1.02
-1.32
-1.42
-1.34
-1.03
-0.52
0.15
0.82
1.28
1.30
0.69
-0.63
-2.58
-4.94
-7.40
-9.59
-11.17
-11.84
-11.41
-9.78
-7.03
-3.36
0.84
5.16
9.15
12.49
14.98
16.56
17.24
17.08
16.12
14.48
12.34
9.98
7.73
5.92
4.68
3.99
3.62
3.33
2.89
2.19
1.21
0.00
-1.43
-3.13
-5.17
-7.64
-10.54
-13.77
-17.07
-20.04
-22.23
-23.21
-22.66
-20.47
-16.72
-11.73
-5.92
0.10
5.71
10.29
13.33
14.62
14.25
12.62
10.34
8.06
6.24
5.14
4.71
4.76
5.01
5.21
5.26
5.13
4.87
4.50
3.95
3.10
1.78
-0.18
-2.80
-6.00
-9.51
-12.92
-15.74
-17.51
-17.89
-16.79
-14.31
-10.72
-6.43
-1.87
2.47
6.12
8.69
9.92
9.79
8.54
6.58
4.44
2.59
1.32
0.76
0.83
1.38
2.20
3.14
4.12
5.05
5.87
6.43
6.57
6.12
4.97
3.10
0.59
-2.41
-5.70
-8.96
-11.84
-13.85
-14.56
-13.63
-10.98
-6.82
-1.65
3.83
8.90
12.88
15.29
15.93
14.86
12.40
9.08
5.48
2.14
-0.50
-2.26
-3.13
-3.28
-2.96
-2.41
-1.80
-1.20
-0.63
-0.10
0.32
0.49
0.21
-0.72
-2.40
-4.82
-7.77
-10.88
-13.63
-15.51
-16.09
-15.14
-12.65
-8.81
-3.97
1.39
6.73
11.46
15.05
17.08
17.41
16.15
13.73
10.67
7.53
4.70
2.47
0.93
0.13
0.03
0.46
1.18
1.88
2.30
2.24
1.68
0.66
-0.73
-2.47
-4.57
-7.06
-9.86
-12.72
-15.26
-17.00
-17.48
-16.40
-13.69
-9.59
-4.55
0.80
5.80
9.90
12.72
14.03
13.79
12.11
9.22
5.58
1.74
-1.67
-4.13
-5.41
-5.56
-4.95
-4.03
-3.19
-2.59
-2.22
-2.03
-2.04
-2.37
-3.19
-4.64
-6.70
-9.21
-11.87
-14.33
-16.25
-17.30
-17.13
-15.48
-12.22
-7.47
-1.65
4.58
10.42
15.10
18.08
19.11
18.26
15.90
12.61
9.03
5.75
3.28
1.88
1.61
2.29
3.61
5.18
6.67
7.83
8.55
8.82
8.63
7.97
6.76
4.94
2.44
-0.64
-4.04
-7.34
-9.92
-11.22
-10.79
-8.49
-4.54
0.58
6.18
11.51
15.84
18.63
19.54
18.53
15.90
12.19
8.07
4.15
0.82
-1.80
-3.75
-5.15
-6.06
-6.51
-6.46
-5.97
-5.15
-4.21
-3.42
-3.06
-3.39
-4.60
-6.78
-9.77
-13.21
-16.48
-18.84
-19.59
-18.26
-14.73
-9.31
-2.67
4.34
10.82
16.02
19.42
20.73
19.97
17.39
13.49
8.96
4.57
1.03
-1.26
-2.22
-2.16
-1.56
-0.89
-0.45
-0.32
-0.44
-0.75
-1.29
-2.17
-3.64
-5.89
-8.97
-12.67
-16.54
-19.87
-21.95
-22.16
-20.20
-16.19
-10.64
-4.31
1.98
7.48
11.65
14.25
15.26
14.85
13.33
11.08
8.51
6.03
4.02
2.78
2.43
2.87
3.84
4.94
5.80
6.18
6.02
5.41
4.53
3.52
2.39
1.08
-0.55
-2.60
-5.01
-7.57
-9.82
-11.23
-11.28
-9.64
-6.32
-1.62
3.94
9.71
15.09
19.57
22.77
24.45
24.56
23.23
20.82
17.78
14.62
11.76
9.52
8.05
7.39
7.44
7.99
8.74
9.39
9.69
9.52
8.88
7.86
6.52
4.84
2.74
0.14
-2.93
-6.32
-9.71
-12.65
-14.74
-15.61
-15.11
-13.27
-10.27
-6.38
-1.89
2.85
7.45
11.39
14.15
15.32
14.74
12.61
9.49
6.08
3.06
0.85
-0.44
-0.95
-0.93
-0.60
-0.08
0.55
1.19
1.71
1.96
1.78
1.13
0.03
-1.47
-3.29
-5.38
-7.70
-10.20
-12.78
-15.21
-17.23
-18.44
-18.44
-16.92
-13.79
-9.23
-3.82
1.72
6.66
10.44
12.82
13.79
13.45
11.94
9.46
6.28
2.85
-0.24
-2.44
-3.42
-3.20
-2.08
-0.55
0.98
2.27
3.23
3.86
4.12
3.93
3.22
2.00
0.35
-1.59
-3.71
-5.99
-8.40
-10.91
-13.28
-15.17
-16.14
-15.81
-14.02
-10.86
-6.66
-1.89
2.91
7.24
10.69
12.91
13.70
13.03
11.07
8.21
4.98
1.97
-0.34
-1.68
-2.02
-1.54
-0.54
0.69
1.92
3.07
4.07
4.85
5.31
5.29
4.67
3.43
1.61
-0.63
-3.16
-5.84
-8.51
-10.95
-12.80
-13.67
-13.21
-11.26
-7.96
-3.69
1.00
5.55
9.46
12.35
13.99
14.28
13.30
11.31
8.70
5.91
3.33
1.24
-0.23
-1.03
-1.21
-0.89
-0.24
0.49
1.10
1.41
1.36
0.94
0.17
-1.01
-2.76
-5.25
-8.61
-12.72
-17.18
-21.34
-24.42
-25.76
-24.94
-21.91
-17.02
-10.88
-4.26
2.06
7.41
11.29
13.43
13.79
12.60
10.30
7.52
4.90
3.00
2.11
2.19
2.93
3.87
4.58
4.80
4.50
3.83
3.03
2.32
1.80
1.44
1.12
0.63
-0.22
-1.51
-3.15
-4.92
-6.39
-7.09
-6.59
-4.65
-1.28
3.16
8.04
12.60
16.10
18.02
18.16
16.62
13.73
9.94
5.72
1.50
-2.37
-5.64
-8.13
-9.84
-10.82
-11.22
-11.15
-10.75
-10.10
-9.33
-8.58
-7.99
-7.65
-7.63
-7.95
-8.65
-9.75
-11.15
-12.61
-13.69
-13.88
-12.76
-10.14
-6.19
-1.36
3.75
8.53
12.44
15.06
16.16
15.68
13.80
10.93
7.64
4.47
1.88
0.13
-0.77
-1.00
-0.88
-0.74
-0.80
-1.11
-1.58
-1.99
-2.21
-2.29
-2.45
-2.98
-4.06
-5.66
-7.53
-9.29
-10.61
-11.29
-11.23
-10.37
-8.64
-5.97
-2.45
1.59
5.57
8.81
10.72
11.00
9.75
7.34
4.26
0.99
-2.10
-4.75
-6.79
-8.14
-8.87
-9.15
-9.30
-9.57
-10.07
-10.72
-11.30
-11.59
-11.58
-11.51
-11.70
-12.41
-13.58
-14.81
-15.50
-15.07
-13.19
-9.89
-5.50
-0.50
4.65
9.58
14.00
17.64
20.22
21.48
21.28
19.67
16.94
13.50
9.81
6.24
3.02
0.24
-2.03
-3.75
-4.83
-5.20
-4.91
-4.15
-3.18
-2.27
-1.64
-1.44
-1.70
-2.38
-3.39
-4.55
-5.57
-6.10
-5.83
-4.56
-2.34
0.58
3.80
6.87
9.42
11.17
12.00
11.92
11.04
9.54
7.63
5.53
3.42
1.44
-0.32
-1.79
-2.93
-3.73
-4.24
-4.50
-4.59
-4.55
-4.48
-4.52
-4.86
-5.64
-6.87
-8.40
-9.87
-10.85
-10.97
-9.99
-7.90
-4.86
-1.20
2.63
6.15
8.90
10.58
11.07
10.51
9.19
7.46
5.63
3.90
2.37
1.08
0.07
-0.70
-1.29
-1.83
-2.40
-3.04
-3.69
-4.27
-4.75
-5.25
-5.97
-7.13
-8.82
-10.87
-12.88
-14.34
-14.77
-13.91
-11.72
-8.43
-4.42
-0.16
3.83
7.07
9.17
9.92
9.37
7.78
5.61
3.39
1.54
0.34
-0.16
-0.06
0.44
1.07
1.63
1.97
2.02
1.79
1.34
0.70
-0.19
-1.39
-3.01
-5.06
-7.34
-9.49
-11.00
-11.42
-10.48
-8.18
-4.77
-0.62
3.84
8.16
11.89
14.60
15.90
15.62
13.91
11.25
8.35
5.89
4.32
3.76
3.96
4.56
5.20
5.64
5.79
5.58
5.00
4.03
2.72
1.18
-0.47
-2.13
-3.85
-5.73
-7.85
-10.07
-11.99
-13.05
-12.73
-10.80
-7.43
-3.12
1.47
5.77
9.35
12.00
13.60
14.12
13.50
11.82
9.32
6.44
3.77
1.92
1.28
1.86
3.24
4.77
5.85
6.20
5.91
5.36
4.90
4.62
4.21
3.20
1.23
-1.70
-5.18
-8.49
-10.98
-12.18
-12.05
-10.82
-8.81
-6.28
-3.30
0.13
3.96
7.96
11.63
14.37
15.67
15.37
13.67
11.13
8.38
5.98
4.27
3.34
3.16
3.59
4.46
5.49
6.44
7.05
7.15
6.69
5.75
4.50
3.11
1.72
0.37
-0.96
-2.36
-3.89
-5.57
-7.23
-8.56
-9.17
-8.67
-6.83
-3.64
0.66
5.59
10.57
14.92
18.13
19.81
19.87
18.49
16.04
13.01
9.93
7.24
5.23
4.04
3.63
3.88
4.57
5.47
6.39
7.14
7.60
7.70
7.39
6.70
5.66
4.31
2.69
0.81
-1.34
-3.71
-6.18
-8.53
-10.49
-11.76
-12.12
-11.42
-9.64
-6.91
-3.51
0.16
3.60
6.33
7.94
8.20
7.04
4.61
1.27
-2.44
-5.92
-8.58
-10.03
-10.17
-9.19
-7.51
-5.59
-3.82
-2.47
-1.73
-1.74
-2.57
-4.29
-6.82
-10.03
-13.61
-17.20
-20.36
-22.64
-23.60
-22.91
-20.40
-16.12
-10.34
-3.54
3.67
10.58
16.52
20.88
23.31
23.71
22.31
19.54
16.01
12.35
9.11
6.71
5.34
4.89
4.96
5.03
4.57
3.29
1.19
-1.44
-4.20
-6.76
-8.94
-10.77
-12.39
-14.03
-15.91
-18.18
-20.87
-23.82
-26.64
-28.76
-29.53
-28.37
-25.03
-19.68
-12.88
-5.52
1.42
7.14
11.13
13.18
13.42
12.17
9.90
7.19
4.65
2.83
2.07
2.37
3.35
4.44
5.09
4.93
3.95
2.30
0.26
-1.97
-4.28
-6.59
-8.80
-10.75
-12.32
-13.43
-14.15
-14.61
-14.87
-14.88
-14.44
-13.27
-11.16
-8.12
-4.33
-0.20
3.78
7.18
9.71
11.26
11.85
11.59
10.61
9.05
7.11
5.04
3.19
1.86
1.26
1.41
2.14
3.16
4.21
5.07
5.66
5.99
6.03
5.72
4.93
3.52
1.44
-1.22
-4.15
-6.89
-8.89
-9.72
-9.11
-7.06
-3.81
0.23
4.56
8.69
12.15
14.59
15.74
15.50
13.91
11.17
7.66
3.86
0.33
-2.46
-4.21
-4.90
-4.73
-4.10
-3.38
-2.84
-2.62
-2.70
-3.06
-3.70
-4.66
-6.01
-7.79
-9.98
-12.44
-14.96
-17.21
-18.86
-19.57
-19.13
-17.42
-14.48
-10.44
-5.62
-0.42
4.64
9.03
12.27
14.07
14.34
13.21
10.98
8.09
5.04
2.35
0.45
-0.39
-0.17
0.95
2.66
4.60
6.46
7.93
8.66
8.30
6.51
3.18
-1.54
-7.11
-12.77
-17.68
-21.12
-22.64
-22.09
-19.55
-15.31
-9.75
-3.40
3.10
8.98
13.46
15.95
16.19
14.33
10.96
6.89
2.99
-0.04
-1.77
-2.09
-1.13
0.79
3.25
5.78
7.92
9.30
9.64
8.83
6.88
3.87
-0.05
-4.70
-9.81
-14.95
-19.49
-22.73
-24.00
-22.87
-19.28
-13.57
-6.48
1.04
8.02
13.61
17.24
18.68
18.07
15.82
12.53
8.88
5.50
2.88
1.33
0.86
1.27
2.16
3.05
3.56
3.48
2.79
1.65
0.27
-1.19
-2.63
-4.03
-5.45
-6.91
-8.42
-9.94
-11.33
-12.39
-12.82
-12.31
-10.63
-7.71
-3.68
1.05
5.92
10.30
13.62
15.52
15.88
14.82
12.72
10.03
7.24
4.73
2.74
1.39
0.66
0.43
0.57
0.92
1.38
1.83
2.16
2.24
1.96
1.24
0.05
-1.56
-3.50
-5.69
-8.06
-10.52
-12.90
-14.84
-15.91
-15.65
-13.78
-10.31
-5.61
