1549480767.00
64.000000
-0.00
-0.00
-0.00
-0.00
-0.00
-0.00
-0.00
-0.00
-0.00
-0.00
0.00
0.01
0.01
-0.00
-0.03
-0.05
-0.05
0.00
0.13
0.36
0.66
1.01
1.37
1.72
2.06
2.40
2.79
3.24
3.80
4.42
5.06
5.66
6.20
6.68
7.15
7.68
8.31
9.14
10.09
11.04
11.88
12.56
13.14
13.76
14.65
15.96
17.91
20.32
22.90
25.38
27.58
29.57
31.68
34.32
37.81
42.54
48.15
54.10
59.83
64.97
69.58
74.14
79.34
85.71
93.76
103.00
112.62
121.73
129.77
136.75
143.30
150.75
157.77
166.64
177.95
191.79
206.97
220.57
228.25
225.36
208.53
176.87
132.76
80.05
23.07
-34.94
-92.44
-149.16
-205.23
-260.37
-313.74
-363.87
-409.83
-450.91
-486.50
-515.74
-537.23
-549.22
-549.96
-538.37
-514.21
-478.67
-433.88
-382.45
-327.02
-269.84
-212.63
-156.66
-102.95
-52.37
-5.90
35.58
71.43
101.35
125.50
144.38
158.69
169.15
176.37
180.75
182.57
182.07
179.51
175.23
169.65
163.18
156.15
148.81
141.30
133.69
126.02
118.33
110.69
103.16
95.80
88.68
81.83
75.25
68.95
62.95
57.25
51.86
46.78
42.03
37.59
33.45
29.61
26.07
22.81
19.83
17.11
14.67
12.48
10.54
8.83
7.35
6.07
4.97
4.05
3.27
2.62
2.09
1.65
1.30
1.01
0.79
0.61
0.47
0.37
0.29
0.23
0.18
0.15
0.14
0.13
0.14
0.15
0.17
0.19
0.22
0.26
0.30
0.34
0.38
0.43
0.48
0.53
0.57
0.63
0.68
0.74
0.80
0.87
0.94
1.03
1.11
1.22
1.33
1.46
1.60
1.76
1.93
2.13
2.35
2.59
2.87
3.19
3.53
3.88
4.22
4.58
4.94
5.33
5.78
6.30
6.87
7.49
8.15
8.81
9.50
10.22
11.00
11.86
12.82
13.88
14.99
16.12
17.21
18.27
19.29
20.27
21.20
22.02
22.56
22.62
21.98
20.44
17.95
14.57
10.52
5.99
1.24
-3.59
-8.51
-13.49
-18.51
-23.39
-27.84
-31.46
-33.99
-35.32
-35.68
-35.52
-35.37
-35.61
-36.35
-37.36
-38.24
-38.65
-38.47
-37.87
-37.25
-37.00
-37.38
-38.55
-40.64
-43.68
-47.35
-50.70
-52.19
-50.10
-43.33
-32.01
-17.60
-2.30
11.88
23.93
33.87
42.24
49.38
54.92
58.01
57.85
54.36
48.33
41.03
33.59
26.53
19.78
12.97
5.93
-1.05
-7.17
-11.46
-13.23
-12.35
-9.40
-5.45
-1.63
1.18
2.67
3.06
2.86
2.53
2.19
1.66
0.49
-1.86
-5.81
-11.45
-18.36
-25.51
-31.32
-34.03
-32.19
-25.15
-13.32
1.98
18.89
35.56
50.55
62.85
71.84
77.09
78.33
75.41
68.55
58.42
46.14
33.07
20.65
10.04
1.95
-3.41
-6.33
-7.33
-7.04
-6.00
-4.58
-3.06
-1.72
-0.89
-0.92
-2.28
-5.38
-10.49
-17.64
-26.44
-36.02
-45.04
-51.86
-54.85
-52.91
-45.74
-34.03
-19.21
-3.07
12.75
26.98
38.79
47.64
53.05
54.55
51.85
45.06
34.96
22.86
10.38
-0.96
-10.17
-16.90
-21.29
-23.77
-24.74
-24.49
-23.21
-21.20
-18.93
-17.03
-16.16
-16.80
-19.19
-23.33
-29.02
-35.79
-42.91
-49.24
-53.38
-53.96
-50.03
-41.48
-29.03
-14.12
1.52
16.27
28.98
38.91
45.63
48.92
48.65
44.96
38.34
29.70
20.25
11.17
3.39
-2.69
-7.16
-10.40
-12.78
-14.43
-15.24
-15.09
-13.99
-12.31
-10.72
-10.01
-10.84
-13.60
-18.31
-24.52
-31.32
-37.38
-41.09
-40.92
-35.81
-25.61
-11.12
6.06
23.99
40.78
54.95
65.52
71.94
73.98
71.73
65.60
56.41
45.26
33.47
22.24
12.50
4.74
-0.91
-4.63
-6.66
-7.28
-6.73
-5.28
-3.22
-0.98
0.93
1.90
1.30
-1.42
-6.59
-14.05
-22.99
-31.96
-38.99
-42.15
-39.99
-32.07
-19.07
-2.63
15.15
32.25
47.04
58.46
65.87
68.98
67.69
62.23
53.19
41.61
28.84
16.29
5.16
-3.82
-10.44
-14.95
-17.76
-19.32
-19.91
-19.69
-18.87
-17.71
-16.72
-16.56
-17.93
-21.41
-27.31
-35.37
-44.67
-53.66
-60.38
-62.94
-60.08
-51.52
-38.03
-21.21
-2.89
15.18
31.61
45.38
55.68
61.84
63.41
60.32
53.00
42.46
30.13
17.56
6.06
-3.51
-10.84
-16.02
-19.36
-21.14
-21.54
-20.68
-18.76
-16.20
-13.68
-11.94
-11.70
-13.42
-17.31
-23.15
-30.37
-37.88
-44.24
-47.88
-47.51
-42.50
-33.10
-20.35
-5.72
9.28
23.38
35.65
45.32
51.70
54.18
52.40
46.49
37.24
25.94
14.17
3.35
-5.59
-12.31
-17.02
-20.12
-22.00
-22.82
-22.58
-21.25
-18.98
-16.21
-13.62
-12.02
-12.17
-14.62
-19.42
-26.00
-33.15
-39.19
-42.38
-41.46
-35.93
-26.15
-13.20
1.52
16.50
30.41
42.09
50.57
55.16
55.49
51.64
44.11
33.79
21.78
9.26
-2.66
-13.00
-21.08
-26.57
-29.50
-30.16
-28.96
-26.42
-23.04
-19.33
-15.92
-13.40
-12.39
-13.51
-17.09
-23.11
-30.86
-39.00
-45.63
-48.84
-47.25
-40.53
-29.43
-15.52
-0.57
13.94
26.98
37.83
45.90
50.53
51.15
47.56
40.21
30.22
19.06
8.25
-1.04
-8.17
-13.02
-15.81
-16.95
-16.82
-15.78
-14.15
-12.27
-10.53
-9.40
-9.39
-11.07
-14.84
-20.77
-28.31
-36.16
-42.49
-45.23
-42.82
-34.70
-21.56
-5.07
12.63
29.48
43.94
55.14
62.59
66.10
65.62
61.29
53.61
43.41
31.85
20.19
9.51
0.55
-6.37
-11.31
-14.53
-16.28
-16.76
-16.10
-14.47
-12.25
-10.04
-8.65
-8.92
-11.52
-16.74
-24.28
-33.16
-41.77
-48.10
-50.18
-46.57
-36.81
-21.65
-2.80
17.44
36.80
53.46
66.21
74.42
77.82
76.42
70.45
60.52
47.67
33.35
19.12
6.39
-3.91
-11.42
-16.36
-19.17
-20.33
-20.20
-18.95
-16.76
-13.86
-10.71
-7.99
-6.49
-6.96
-9.87
-15.16
-22.10
-29.27
-34.81
-36.82
-33.92
-25.71
-12.94
2.84
19.57
35.35
48.71
58.73
64.97
67.26
65.67
60.48
52.26
41.87
30.43
19.06
8.71
-0.02
-6.88
-11.88
-15.12
-16.67
-16.58
-15.00
-12.33
-9.25
-6.69
-5.57
-6.59
-10.03
-15.73
-23.13
-31.22
-38.67
-43.90
-45.41
-42.16
-33.93
-21.50
-6.36
9.63
24.79
37.87
48.06
54.85
57.91
57.01
52.24
44.13
33.69
22.22
11.09
1.39
-6.24
-11.59
-14.86
-16.41
-16.70
-16.18
-15.27
-14.33
-13.70
-13.73
-14.74
-17.07
-20.98
-26.52
-33.31
-40.43
-46.52
-49.98
-49.43
-44.12
-34.15
-20.49
-4.65
11.57
26.55
38.92
47.75
52.45
52.87
49.28
42.38
33.24
23.10
13.26
4.65
-2.15
-7.11
-10.52
-12.83
-14.38
-15.26
-15.43
-14.89
-13.84
-12.88
-12.83
-14.50
-18.38
-24.42
-31.89
-39.50
-45.68
-48.85
-47.78
-41.82
-31.15
-16.73
-0.20
16.50
31.50
43.31
50.97
54.10
52.73
47.40
38.96
28.57
17.50
6.93
-2.21
-9.50
-14.88
-18.61
-21.02
-22.44
-23.05
-22.95
-22.24
-21.20
-20.30
-20.22
-21.75
-25.49
-31.68
-39.89
-48.91
-56.91
-61.80
-61.81
-55.95
-44.44
-28.56
-10.32
8.09
24.82
38.56
48.52
54.31
55.80
53.18
47.04
38.41
28.61
18.99
10.58
3.95
-0.83
-4.04
-6.05
-7.16
-7.56
-7.36
-6.74
-6.04
-5.70
-6.27
-8.29
-12.11
-17.81
-24.99
-32.77
-39.74
-44.17
-44.43
-39.45
-29.13
-14.43
2.79
20.33
36.17
48.87
57.68
62.36
63.01
59.95
53.66
44.90
34.75
24.42
15.13
7.74
2.58
-0.54
-2.19
-3.05
-3.66
-4.30
-5.02
-5.76
-6.54
-7.57
-9.24
-12.11
-16.70
-23.25
-31.48
-40.45
-48.57
-53.96
-54.84
-50.22
-40.04
-25.37
-7.91
10.30
27.42
41.98
52.92
59.61
61.70
59.25
52.74
43.16
31.92
20.59
10.65
3.11
-1.64
-3.82
-4.09
-3.26
-1.98
-0.65
0.64
1.93
3.17
4.08
4.07
2.40
-1.55
-8.04
-16.64
-26.15
-34.81
-40.64
-41.94
-37.84
-28.42
-14.74
1.50
18.50
34.60
48.57
59.52
66.82
70.05
69.07
64.14
56.03
45.91
35.18
25.19
16.97
11.00
7.17
4.93
3.51
2.20
0.59
-1.40
-3.54
-5.54
-7.20
-8.55
-9.90
-11.74
-14.65
-19.08
-25.19
-32.56
-40.20
-46.58
-49.93
-48.83
-42.65
-31.80
-17.65
-2.13
12.86
25.79
35.68
42.05
44.75
43.80
39.43
32.22
23.07
13.21
3.90
-3.84
-9.55
-13.28
-15.53
-16.88
-17.74
-18.21
-18.18
-17.54
-16.38
-15.20
-14.66
-15.52
-18.29
-23.15
-29.83
-37.67
-45.56
-52.10
-55.74
-55.17
-49.74
-39.63
-25.98
-10.48
5.06
19.07
30.44
38.47
42.83
43.35
40.19
33.86
25.22
15.44
5.78
-2.68
-9.28
-13.78
-16.36
-17.44
-17.47
-16.79
-15.47
-13.52
-10.98
-8.16
-5.78
-4.77
-6.04
-10.10
-16.81
-25.29
-34.05
-41.27
-45.22
-44.62
-38.92
-28.32
-13.80
3.13
20.73
37.22
51.13
61.38
67.39
68.99
66.44
60.33
51.58
41.33
30.77
20.96
12.58
5.90
0.78
-3.08
-6.00
-8.13
-9.48
-10.14
-10.31
-10.39
-10.91
-12.38
-15.18
-19.54
-25.58
-33.21
-41.94
-50.76
-58.11
-62.10
-61.16
-54.49
-42.45
-26.41
-8.44
9.46
25.63
39.00
48.98
55.21
57.53
56.02
51.03
43.35
34.11
24.56
15.85
8.78
3.70
0.46
-1.32
-2.15
-2.44
-2.41
-2.13
-1.66
-1.15
-0.92
-1.43
-3.17
-6.55
-11.83
-18.95
-27.51
-36.62
-44.90
-50.73
-52.50
-49.19
-40.62
-27.60
-11.72
5.03
20.82
34.21
44.30
50.72
53.36
52.35
47.95
40.64
31.15
20.41
9.54
-0.34
-8.34
-13.94
-17.10
-18.24
-18.00
-16.99
-15.69
-14.34
-13.03
-11.86
-11.01
-10.77
-11.51
-13.60
-17.33
-22.85
-30.01
-38.27
-46.56
-53.39
-57.13
-56.40
-50.55
-39.88
-25.68
-9.79
5.74
19.23
29.56
36.21
39.07
38.27
34.05
26.74
16.90
5.39
-6.70
-18.27
-28.38
-36.54
-42.71
-47.26
-50.75
-53.67
-56.33
-58.76
-60.77
-62.14
-62.63
-62.11
-60.53
-57.89
-54.32
-50.10
-45.54
-40.97
-36.41
-31.43
-25.06
-16.09
-3.50
12.98
32.56
53.56
73.83
91.43
105.07
114.29
119.20
120.14
117.37
111.09
101.60
89.58
76.09
62.50
50.10
39.81
31.93
26.26
22.23
19.23
16.78
14.70
12.94
11.52
10.36
9.18
7.61
5.19
1.56
-3.49
-9.97
-17.70
-26.17
-34.61
-41.86
-46.51
-47.21
-43.04
-33.85
-20.45
-4.45
12.20
27.69
40.68
50.43
56.68
59.43
58.79
55.00
48.49
39.96
30.40
20.93
12.59
6.07
1.62
-0.96
-2.18
-2.58
-2.59
-2.39
-2.04
-1.57
-1.24
-1.45
-2.68
-5.29
-9.40
-14.89
-21.54
-29.16
-37.54
-46.22
-54.29
-60.27
-62.43
-59.39
-50.60
-36.73
-19.47
-1.09
16.19
30.75
41.73
48.92
52.56
53.00
50.59
45.71
38.85
30.68
22.09
14.06
7.43
2.73
-0.02
-1.19
-1.41
-1.27
-1.12
-1.08
-1.09
-1.11
-1.22
-1.65
-2.67
-4.56
-7.47
-11.53
-16.81
-23.25
-30.47
-37.59
-43.20
-45.58
-43.27
-35.58
-22.99
-6.95
10.46
27.16
41.57
52.69
60.15
63.83
63.86
60.53
54.35
46.01
36.43
26.50
17.04
8.63
1.65
-3.72
-7.52
-9.93
-11.25
-11.80
-11.86
-11.73
-11.65
-11.89
-12.75
-14.52
-17.35
-21.30
-26.32
-32.30
-39.07
-46.20
-52.92
-58.02
-60.05
-57.80
-50.72
-39.25
-24.71
-8.85
6.64
20.48
31.89
40.44
45.88
48.01
46.79
42.39
35.29
26.34
16.50
6.85
-1.71
-8.56
-13.55
-16.98
-19.43
-21.54
-23.66
-25.81
-27.73
-29.17
-30.12
-30.95
-32.16
-34.24
-37.47
-41.77
-46.79
-51.93
-56.38
-59.13
-59.14
-55.52
-47.88
-36.48
-22.17
-6.22
10.01
25.26
38.44
48.61
54.99
57.10
54.87
48.82
39.93
29.46
18.64
8.44
-0.52
-7.93
-13.65
-17.67
-20.03
-20.92
-20.66
-19.74
-18.71
-18.04
-18.10
-19.11
-21.23
-24.58
-29.17
-34.76
-40.65
-45.67
-48.37
-47.38
-41.90
-31.98
-18.53
-3.03
12.86
27.72
40.50
50.52
57.32
60.55
60.10
56.19
49.49
41.13
32.41
24.52
18.26
13.86
11.15
9.76
9.35
9.70
10.72
12.28
14.12
15.74
16.56
15.88
13.07
7.77
0.00
-9.58
-19.73
-28.70
-34.69
-36.26
-32.76
-24.45
-12.42
1.77
16.52
30.39
42.28
51.40
57.18
59.29
57.63
52.39
44.13
33.72
22.27
10.92
0.59
-8.10
-15.01
-20.31
-24.32
-27.30
-29.38
-30.58
-30.92
-30.62
-30.14
-30.14
-31.28
-34.01
-38.46
-44.24
-50.46
-55.81
-58.81
-58.08
-52.75
-42.67
-28.53
-11.67
6.21
23.38
38.35
49.95
57.42
60.39
58.93
53.53
45.15
35.03
24.55
14.96
7.20
1.75
-1.30
-2.27
-1.64
0.10
2.49
5.21
7.97
10.55
12.72
14.19
14.53
13.18
9.60
3.43
-5.11
-14.98
-24.37
-31.12
-33.25
-29.70
-20.56
-7.04
8.93
25.33
40.35
52.69
61.49
66.24
66.82
63.41
56.58
47.21
36.39
25.28
14.91
6.07
-0.84
-5.76
-8.94
-10.72
-11.42
-11.25
-10.29
-8.70
-6.77
-4.94
-3.79
-3.85
-5.54
-9.06
-14.35
-20.99
-28.10
-34.29
-37.88
-37.30
-31.61
-20.82
-6.01
11.05
28.40
44.34
57.73
67.85
74.26
76.60
74.71
68.74
59.31
47.62
35.13
23.32
13.28
5.61
0.35
-2.86
-4.51
-5.16
-5.27
-5.26
-5.50
-6.29
-7.82
-10.23
-13.55
-17.90
-23.43
-30.29
-38.41
-47.22
-55.64
-62.12
-65.06
-63.30
-56.48
-45.17
-30.71
-14.81
0.80
14.65
25.68
33.22
36.99
37.01
33.62
27.44
19.29
10.21
1.27
-6.56
-12.61
-16.63
-18.78
-19.55
-19.51
-19.11
-18.53
-17.75
-16.71
-15.49
-14.47
-14.24
-15.47
-18.63
-23.73
-30.17
-36.76
-41.90
-43.99
-41.81
-34.88
-23.66
-9.33
6.44
22.00
35.95
47.27
55.30
59.56
59.83
56.14
48.94
39.13
27.97
16.74
6.53
-1.98
-8.58
-13.33
-16.44
-18.12
-18.59
-18.13
-17.11
-15.99
-15.27
-15.42
-16.80
-19.71
-24.30
-30.54
-38.04
-45.91
-52.74
-56.84
-56.62
-51.13
-40.45
-25.73
-8.90
7.91
22.85
34.72
42.99
47.57
48.62
46.39
41.21
33.67
24.68
15.36
6.89
0.17
-4.39
-6.94
-8.03
-8.32
-8.30
-8.19
-7.93
-7.41
-6.68
-6.06
-6.11
-7.48
-10.63
-15.69
-22.26
-29.45
-35.87
-39.98
-40.37
-36.15
-27.29
-14.59
0.42
15.98
30.44
42.60
51.77
57.65
60.17
59.43
55.65
49.28
41.05
31.90
22.84
14.76
8.25
3.50
0.37
-1.47
-2.43
-2.74
-2.60
-2.07
-1.26
-0.34
0.37
0.40
-0.74
-3.49
-8.04
-14.11
-20.86
-26.93
-30.77
-31.03
-27.00
-18.89
-7.68
5.08
17.74
28.87
37.44
42.91
45.10
44.16
40.46
34.58
27.26
19.27
11.36
4.12
-2.08
-7.13
-11.13
-14.35
-17.06
-19.49
-21.68
-23.57
-25.04
-26.01
-26.62
-27.24
-28.46
-30.90
-34.87
-40.07
-45.51
-49.63
-50.78
-47.75
-40.19
-28.77
-14.89
-0.23
13.70
25.82
35.48
42.26
45.85
46.04
42.87
36.79
28.74
19.97
11.73
4.91
-0.09
-3.40
-5.45
-6.69
-7.38
-7.63
-7.40
-6.73
-5.81
-5.07
-5.12
-6.49
-9.57
-14.32
-20.20
-26.17
-30.84
-32.77
-30.86
-24.68
-14.58
-1.65
12.57
26.45
38.55
47.82
53.64
55.79
54.37
49.89
43.17
35.29
27.40
20.53
15.32
11.96
10.24
9.66
9.66
9.81
9.84
9.74
9.53
9.26
8.81
7.90
6.09
2.95
-1.85
-8.30
-15.93
-23.84
-30.77
-35.32
-36.36
-33.33
-26.41
-16.55
-5.19
6.13
16.10
23.88
29.07
31.59
31.49
28.97
24.34
18.13
11.03
3.82
-2.81
-8.46
-13.02
-16.58
-19.32
-21.35
-22.75
-23.63
-24.22
-24.84
-25.90
-27.81
-30.93
-35.38
-41.04
-47.29
-53.01
-56.70
-56.79
-52.16
-42.49
-28.46
-11.56
6.30
23.28
37.88
49.05
56.16
58.96
57.52
52.34
44.26
34.44
24.10
14.38
6.09
-0.40
-5.12
-8.39
-10.65
-12.29
-13.54
-14.52
-15.26
-15.96
-16.95
-18.74
-21.84
-26.61
-33.02
-40.44
-47.74
-53.35
-55.71
-53.63
-46.69
-35.37
-20.96
-5.19
10.19
23.73
34.44
41.68
45.19
44.95
41.24
34.74
26.45
17.65
9.52
2.99
-1.53
-4.19
-5.52
-6.17
-6.62
-7.05
-7.41
-7.53
-7.38
-7.18
-7.39
-8.60
-11.39
-16.16
-22.95
-31.23
-39.93
-47.40
-51.86
-51.81
-46.55
-36.39
-22.57
-6.87
8.92
23.32
35.31
44.26
49.71
51.43
49.43
44.18
36.57
27.85
19.25
11.79
5.99
1.93
-0.65
-2.14
-2.91
-3.20
-3.18
-2.95
-2.66
-2.52
-2.81
-3.74
-5.54
-8.37
-12.34
-17.50
-23.67
-30.29
-36.29
-40.19
-40.41
-35.81
-26.19
-12.41
3.72
20.07
34.68
46.23
54.14
58.31
58.90
56.16
50.47
42.45
33.08
23.53
14.99
8.35
4.01
1.82
1.29
1.81
2.80
3.90
4.92
5.75
6.27
6.27
5.50
3.71
0.65
-3.84
-9.80
-17.10
-25.27
-33.42
-40.27
-44.32
-44.31
-39.54
-30.22
-17.39
-2.65
12.22
25.64
36.47
44.04
48.08
48.70
46.29
41.48
35.05
27.87
20.77
14.45
9.44
5.96
3.94
3.04
2.76
2.58
2.14
1.28
-0.02
-1.72
-3.92
-6.81
-10.68
-15.73
-21.98
-29.28
-37.28
-45.56
-53.56
-60.50
-65.37
-67.08
-64.69
-57.81
-46.88
-33.10
-18.15
-3.72
8.91
18.95
26.06
30.08
30.93
28.65
23.60
16.55
8.69
1.31
-4.49
-8.15
-9.78
-9.98
-9.56
-9.11
-8.86
-8.64
-8.09
-7.01
-5.49
-3.97
-3.17
-3.80
-6.40
-11.22
-18.04
-26.08
-33.98
-39.93
-42.04
-38.84
-29.87
-15.80
1.61
20.04
37.25
51.49
61.78
67.81
69.78
68.17
63.67
57.16
49.70
42.43
36.33
32.08
29.89
29.51
30.33
31.67
32.94
33.87
34.49
35.09
36.00
37.39
39.23
41.12
42.42
42.39
40.60
37.25
33.41
30.88
31.70
37.51
48.99
65.69
86.14
108.32
130.08
149.49
164.92
175.07
179.07
176.61
168.08
154.57
137.73
119.36
101.19
84.49
70.08
58.25
48.78
41.11
34.43
27.91
20.89
13.10
4.72
-3.82
-12.11
-20.02
-27.81
-36.01
-45.18
-55.57
-67.00
-78.79
-89.79
-98.57
-103.64
-103.78
-98.41
-87.83
-73.33
-56.82
-40.46
-26.10
-14.99
-7.77
-4.56
-5.25
-9.48
-16.68
-26.04
-36.40
-46.49
-55.06
-61.16
-64.32
-64.68
-62.85
-59.75
-56.24
-52.89
-49.92
-47.29
-45.00
-43.17
-42.18
-42.41
-44.10
-47.24
-51.62
-56.94
-62.82
-68.55
-72.97
-74.55
-71.72
-63.59
-50.35
-33.49
-15.30
1.80
15.91
26.04
31.99
34.00
32.53
28.10
21.35
13.18
4.67
-3.04
-9.04
-12.92
-14.77
-15.09
-14.52
-13.56
-12.41
-11.11
-9.72
-8.49
-7.91
-8.53
-10.76
-14.71
-20.26
-27.12
-34.90
-43.14
-51.08
-57.57
-61.25
-60.88
-55.76
-46.14
-33.11
-18.43
-3.92
8.95
19.23
26.61
31.04
32.52
31.05
26.61
19.43
10.26
0.31
-9.01
-16.48
-21.55
-24.40
-25.79
-26.61
-27.43
-28.31
-28.95
-29.11
-28.77
-28.39
-28.69
-30.33
-33.74
-38.84
-45.18
-51.83
-57.57
-60.94
-60.58
-55.49
-45.40
-31.02
-13.81
4.25
21.22
35.43
45.67
51.14
51.45
46.69
37.51
25.16
11.37
-1.89
-12.71
-19.58
-21.64
-18.95
-12.35
-3.22
7.06
17.56
28.20
39.32
51.27
63.86
76.10
86.54
93.75
96.92
95.98
91.53
84.49
75.97
67.21
59.52
54.37
53.07
56.39
64.25
75.42
87.63
98.02
103.81
103.14
95.62
82.43
65.78
48.26
32.06
18.61
8.53
1.93
-1.47
-1.97
0.06
4.43
11.12
20.40
32.49
47.23
63.59
79.54
92.33
99.19
98.07
88.25
70.61
47.45
21.94
-2.69
-24.20
-41.90
-56.83
-70.98
-86.25
-103.28
-120.97
-136.85
-148.24
-153.39
-152.14
-145.87
-136.79
-127.04
-118.01
-110.25
-103.70
-98.00
-92.89
-88.25
-84.13
-80.56
-77.37
-74.22
-70.63
-66.20
-60.78
-54.64
-48.40
-42.86
-38.76
-36.58
-36.54
-38.65
-42.78
-48.77
-56.37
-65.09
-74.22
-82.75
-89.67
-94.25
-96.25
-96.11
-94.66
-92.79
-91.03
-89.47
-87.71
-85.29
-81.86
-77.38
-72.08
-66.31
-60.40
-54.60
-49.06
-43.76
-38.56
-33.13
-27.13
-20.31
-12.78
-5.17
1.71
7.11
10.80
13.22
15.22
17.55
20.55
23.83
26.64
28.42
29.09
29.15
29.33
30.17
31.68
33.26
34.14
33.88
32.53
30.62
28.83
27.53
26.72
25.90
24.64
22.84
20.86
19.45
19.26
20.51
22.83
25.34
27.18
27.96
27.89
27.67
28.07
29.34
31.12
32.44
32.25
29.93
25.61
20.13
14.59
9.92
6.70
4.91
4.23
4.23
4.54
4.89
5.14
5.26
5.46
5.94
6.89
8.32
9.99
11.52
12.60
13.15
13.38
13.51
13.54
13.21
12.07
9.92
6.97
3.83
1.24
-0.42
-1.24
-1.76
-2.56
-3.97
-5.96
-8.19
-10.33
-12.09
-13.37
-14.07
-14.13
-13.47
-12.13
-10.27
-8.08
-5.71
-3.01
0.32
4.62
10.06
16.51
23.52
30.52
37.03
42.64
47.12
50.20
51.66
51.36
49.38
46.23
42.73
39.81
38.16
38.03
39.21
41.14
43.14
44.72
45.48
45.16
43.60
40.72
36.65
31.79
26.69
22.01
18.22
15.57
14.04
13.36
13.16
13.09
12.87
12.46
11.94
11.50
11.31
11.45
11.84
12.28
12.55
12.50
12.06
11.21
9.97
8.39
6.55
4.58
2.59
0.61
-1.55
-4.21
-7.73
-12.39
-18.10
-24.42
-30.66
-36.01
-39.80
-41.74
-41.89
-40.65
-38.51
-35.85
-32.88
-29.63
-26.07
-22.31
-18.61
-15.34
-12.86
-11.37
-10.84
-11.07
-11.76
-12.71
-13.71
-14.63
-15.30
-15.59
-15.30
-14.29
-12.51
-10.08
-7.34
-4.77
-3.04
-2.67
-3.94
-6.65
-10.17
-13.61
-16.15
-17.44
-17.60
-17.21
-16.90
-17.02
-17.48
-17.92
-18.09
-17.96
-17.83
-17.95
-18.33
-18.54
-17.92
-16.08
-13.09
-9.62
-6.50
-4.43
-3.50
-3.34
-3.24
-2.58
-1.05
1.43
4.68
8.56
12.87
17.46
22.03
26.28
29.81
32.41
34.18
35.46
36.77
38.56
41.00
43.84
46.53
48.46
49.14
48.30
45.86
41.92
36.82
31.13
25.74
21.66
19.67
19.86
21.56
23.46
24.23
22.96
19.51
14.31
8.02
1.08
-6.32
-14.13
-22.12
-29.75
-36.30
-41.23
-44.46
-46.40
-47.82
-49.43
-51.60
-54.24
-56.98
-59.34
-60.91
-61.44
-60.75
-58.74
-55.40
-50.99
-46.07
-41.31
-37.38
-34.58
-32.84
-31.77
-30.92
-29.95
-28.72
-27.26
-25.53
-23.47
-20.96
-17.99
-14.70
-11.33
-8.02
-4.77
-1.39
2.31
6.40
10.62
14.57
17.84
20.36
22.44
24.86
28.36
33.44
39.83
46.44
51.68
53.93
52.15
46.32
37.44
27.18
17.38
9.58
4.95
4.10
7.22
14.01
23.53
34.12
43.66
50.14
52.28
50.09
44.86
38.68
33.61
30.95
30.85
32.49
34.59
36.01
36.19
35.10
33.05
30.34
26.97
22.54
16.55
8.66
-1.06
-11.86
-22.45
-31.20
-36.63
-37.87
-34.86
-28.51
-20.27
-11.84
-4.62
0.54
3.42
4.27
3.62
2.05
0.24
-1.09
-1.17
0.58
4.28
9.32
14.34
17.69
18.07
15.11
9.72
3.68
-0.93
-2.63
-0.98
3.35
8.95
14.13
17.28
17.19
13.18
5.36
-5.18
-16.43
-25.97
-31.72
-32.78
-29.82
-24.71
-19.81
-16.93
-16.74
-18.81
-21.98
-24.98
-26.92
-27.43
-26.59
-24.82
-22.77
-21.17
-20.66
-21.50
-23.61
-26.53
-29.87
-33.52
-37.68
-42.48
-47.33
-50.62
-50.09
-43.74
-30.96
-13.17
6.44
24.04
36.46
42.27
41.93
37.31
30.72
24.23
19.32
16.86
17.21
20.23
25.23
31.14
36.60
40.45
41.83
40.46
36.52
30.64
23.71
16.68
10.42
5.41
1.65
-1.34
-4.34
-8.00
-12.51
-17.44
-21.96
-25.32
-27.20
-27.97
-28.47
-29.52
-31.45
-33.90
-35.96
-36.53
-34.84
-30.64
-24.22
-16.16
-7.12
2.38
11.99
21.47
30.50
38.64
45.26
49.72
51.50
50.44
46.92
41.63
35.47
29.04
22.49
15.51
7.69
-1.14
-10.76
-20.71
-30.80
-41.31
-52.87
-66.05
-80.91
-96.85
-112.89
-128.03
-141.60
-153.14
-162.13
-167.93
-169.83
-167.65
-161.78
-153.19
-142.88
-131.62
-119.91
-108.39
-98.32
-91.52
-89.71
-93.58
-102.16
-113.16
-123.78
-132.10
-137.58
-141.03
-143.61
-145.87
-147.34
-146.88
-143.47
-136.99
-128.38
-119.30
-111.37
-105.60
-102.22
-100.83
-100.78
-101.40
-101.92
-101.55
-99.24
-93.96
-84.82
-71.31
-53.42
-31.56
-6.53
20.57
48.26
74.85
98.66
118.38
133.35
143.72
150.32
154.22
156.40
157.45
157.51
156.32
153.44
148.51
141.42
132.55
122.70
112.87
103.82
95.72
87.96
79.34
68.58
54.68
37.47
17.67
-3.06
-22.29
-37.28
-45.60
-45.79
-37.84
-23.28
-4.69
15.00
33.32
48.57
59.81
66.60
68.74
66.28
59.72
50.16
39.23
28.69
19.98
13.91
10.58
9.57
10.33
12.49
15.94
20.83
27.29
35.23
44.14
53.16
61.21
67.18
70.03
68.92
63.34
53.38
40.02
25.31
12.10
3.35
1.27
6.66
18.69
35.36
54.14
72.67
89.07
101.88
110.04
112.82
109.97
101.87
89.59
74.69
58.88
43.60
29.88
18.27
8.97
2.00
-2.72
-5.36
-6.19
-5.66
-4.35
-3.03
-2.47
-3.43
-6.59
-12.34
-20.68
-30.92
-41.62
-50.70
-55.97
-55.72
-49.23
-36.98
-20.36
-1.19
18.79
38.10
55.57
70.09
80.61
86.25
86.67
82.23
73.95
63.24
51.49
39.74
28.58
18.33
9.23
1.55
-4.29
-7.94
-9.29
-8.62
-6.66
-4.52
-3.47
-4.68
-8.94
-16.40
-26.35
-37.15
-46.46
-51.69
-50.69
-42.37
-26.99
-6.12
17.88
42.57
65.80
85.90
101.60
111.92
116.24
114.47
107.27
96.08
82.69
68.89
55.94
44.46
34.54
26.08
19.03
13.48
9.61
7.45
6.77
7.04
7.49
7.16
5.07
0.37
-7.38
-17.85
-29.79
-41.01
-48.82
-50.70
-45.11
-31.93
-12.54
10.64
34.86
57.67
77.30
92.66
103.13
108.36
108.20
102.89
93.10
80.07
65.36
50.58
36.95
25.15
15.18
6.70
-0.70
-7.19
-12.64
-16.76
-19.33
-20.53
-21.02
-21.84
-24.16
-29.01
-36.82
-47.16
-58.59
-68.74
-74.86
-74.53
-66.44
-50.76
-29.13
-4.10
21.65
45.82
66.80
83.56
95.45
102.04
103.22
99.31
91.21
80.35
68.33
56.73
46.66
38.64
32.64
28.25
24.93
22.38
20.52
19.47
19.25
19.55
19.72
18.82
15.97
10.49
2.18
-8.68
-21.16
-33.71
-44.16
-50.14
-49.65
-41.79
-27.08
-7.49
14.28
35.52
54.20
69.14
79.80
85.95
87.44
84.37
77.26
67.22
55.83
44.67
34.89
26.89
20.42
14.90
9.85
5.11
0.99
-2.18
-4.18
-5.24
-5.93
-7.00
-9.13
-12.76
-18.06
-24.95
-33.01
-41.46
-49.05
-54.20
-55.26
-51.03
-41.14
-26.20
-7.64
12.63
32.66
50.76
65.57
76.09
81.70
82.25
78.15
70.39
60.39
49.72
39.73
31.23
24.47
19.15
14.76
10.86
7.17
3.71
0.58
-2.23
-4.84
-7.63
-11.04
-15.54
-21.42
-28.71
-37.01
-45.37
-52.43
-56.59
-56.49
-51.43
-41.69
-28.44
-13.42
1.56
15.00
25.80
33.27
36.82
36.04
30.62
20.62
6.57
-10.58
-29.63
-49.42
-68.96
-87.44
-104.05
-117.87
-127.94
-133.49
-134.34
-131.03
-124.80
-117.18
-109.53
-102.79
-97.42
-93.56
-91.08
-89.59
-88.18
-85.47
-79.80
-69.75
-54.76
-35.51
-13.83
7.86
27.15
42.36
52.64
57.89
58.43
54.76
47.41
37.07
24.74
11.77
-0.32
-10.19
-17.06
-20.85
-22.08
-21.50
-19.71
-16.96
-13.22
-8.41
-2.74
3.19
8.37
11.69
12.31
10.19
6.28
2.50
1.20
4.46
13.35
27.56
45.52
64.96
83.58
99.61
112.03
120.43
124.78
125.19
121.84
114.99
104.95
92.16
77.20
60.84
44.13
28.27
14.40
3.24
-5.13
-11.28
-16.12
-20.50
-24.75
-28.64
-31.62
-33.17
-33.07
-31.47
-28.59
-24.46
-18.73
-10.83
-0.27
12.95
28.24
44.45
60.14
73.91
84.56
91.15
92.91
89.33
80.17
65.78
47.16
25.93
4.05
-16.68
-35.07
-50.68
-63.68
-74.46
-83.27
-90.05
-94.57
-96.64
-96.41
-94.40
-91.35
-88.07
-85.32
-83.78
-84.08
-86.64
-91.39
-97.45
-102.94
-105.27
-101.91
-91.18
-72.99
-48.94
-21.84
5.11
29.16
48.59
62.65
71.35
75.02
74.12
69.22
61.11
50.90
39.98
29.65
20.88
14.03
8.85
4.79
1.30
-1.85
-4.54
-6.47
-7.45
-7.62
-7.64
-8.50
-11.35
-17.09
-25.96
-37.35
-49.59
-60.29
-66.86
-67.22
-60.45
-47.04
-28.67
-7.68
13.55
33.04
49.39
61.64
69.19
71.74
69.44
62.94
53.44
42.45
31.47
21.63
13.50
7.09
2.07
-1.95
-5.23
-7.71
-9.22
-9.59
-8.97
-7.92
-7.39
-8.50
-12.24
-19.00
-28.37
-38.98
-48.70
-55.07
-55.95
-50.09
-37.62
-19.89
0.76
21.70
40.60
55.77
66.31
71.98
72.95
69.66
62.77
53.11
41.71
29.76
18.35
8.34
0.12
-6.28
-11.14
-14.73
-17.19
-18.51
-18.71
-17.99
-16.97
-16.54
-17.74
-21.41
-27.89
-36.78
-46.85
-56.10
-62.23
-63.21
-57.86
-46.23
-29.62
-10.12
9.93
28.49
44.13
56.04
63.84
67.44
66.93
62.67
55.35
45.94
35.63
25.56
16.65
9.36
3.72
-0.49
-3.60
-5.80
-7.15
-7.63
-7.41
-6.93
-6.95
-8.38
-12.04
-18.29
-26.82
-36.52
-45.57
-51.84
-53.40
-49.07
-38.81
-23.65
-5.47
13.56
31.48
46.76
58.37
65.71
68.48
66.76
61.02
52.19
41.58
30.56
20.35
11.74
5.04
0.20
-3.06
-5.08
-6.16
-6.49
-6.25
-5.62
-4.87
-4.40
-4.78
-6.66
-10.64
-16.96
-25.20
-34.10
-41.69
-45.71
-44.26
-36.46
-22.78
-4.85
15.01
34.45
51.62
65.32
74.88
79.92
80.29
76.02
67.58
55.92
42.39
28.49
15.55
4.45
-4.41
-11.12
-16.04
-19.65
-22.30
-24.24
-25.58
-26.37
-26.73
-26.99
-27.68
-29.48
-33.06
-38.76
-46.45
-55.29
-63.76
-69.89
-71.65
-67.51
-56.97
-40.78
-20.79
0.51
20.70
37.96
51.25
60.21
64.84
65.28
61.72
54.58
44.70
33.27
21.75
11.46
3.29
-2.49
-6.15
-8.29
-9.46
-10.06
-10.23
-10.00
-9.49
-8.96
-8.80
-9.50
-11.58
-15.45
-21.35
-29.18
-38.28
-47.30
-54.35
-57.37
-54.83
-46.22
-32.29
-14.78
4.09
22.27
38.27
51.24
60.75
66.51
68.34
66.10
59.95
50.47
38.68
25.87
13.39
2.36
-6.49
-12.93
-17.12
-19.48
-20.48
-20.54
-19.96
-19.03
-18.03
-17.26
-17.04
-17.68
-19.45
-22.57
-27.21
-33.26
-40.19
-46.86
-51.60
-52.65
-48.68
-39.34
-25.41
-8.57
9.18
26.11
40.97
53.04
61.82
66.86
67.74
64.24
56.70
46.06
33.76
21.36
10.11
0.76
-6.57
-12.13
-16.31
-19.40
-21.47
-22.47
-22.39
-21.38
-19.92
-18.66
-18.33
-19.52
-22.59
-27.60
-34.21
-41.67
-48.82
-54.16
-56.19
-53.76
-46.47
-34.88
-20.30
-4.46
10.99
24.77
36.04
44.25
48.98
49.88
46.82
40.09
30.49
19.29
7.89
-2.46
-11.01
-17.49
-22.07
-25.09
-26.87
-27.61
-27.42
-26.43
-24.97
-23.54
-22.79
-23.36
-25.72
-30.08
-36.36
-44.08
-52.29
-59.58
-64.27
-64.71
-59.87
-49.68
-35.12
-17.96
-0.20
16.44
30.85
42.44
50.95
56.13
57.66
55.37
49.36
40.28
29.27
17.72
6.93
-2.17
-9.21
-14.33
-17.89
-20.25
-21.59
-21.93
-21.30
-19.95
-18.34
-17.14
-17.02
-18.51
-21.87
-27.19
-34.22
-42.32
-50.30
-56.51
-59.14
-56.73
-48.73
-35.67
-19.07
-0.94
16.78
32.55
45.43
54.92
60.80
62.99
61.47
56.47
48.43
38.16
26.70
15.23
4.85
-3.59
-9.74
-13.69
-15.95
-17.17
-17.88
-18.40
-18.76
-18.89
-18.75
-18.56
-18.69
-19.69
-22.14
-26.37
-32.41
-39.74
-47.28
-53.47
-56.49
-54.81
-47.53
-34.87
-18.03
0.98
19.95
36.98
50.77
60.65
66.46
68.29
66.34
60.94
52.60
42.14
30.58
19.14
8.91
0.70
-5.16
-8.81
-10.78
-11.71
-12.12
-12.27
-12.17
-11.79
-11.17
-10.59
-10.56
-11.63
-14.27
-18.70
-24.90
-32.59
-41.12
-49.45
-56.16
-59.66
-58.50
-51.89
-39.95
-23.80
-5.32
13.39
30.37
44.24
54.20
60.02
61.79
59.85
54.67
46.92
37.44
27.17
17.12
8.15
0.90
-4.34
-7.55
-8.90
-8.72
-7.36
-5.24
-2.77
-0.36
1.62
2.88
3.20
2.44
0.42
-3.02
-8.09
-14.84
-23.04
-31.91
-40.07
-45.77
-47.21
-43.14
-33.33
-18.74
-1.26
16.77
33.28
46.85
56.80
63.02
65.63
64.72
60.43
53.05
43.25
32.00
20.53
9.99
1.26
-5.20
-9.29
-11.24
-11.42
-10.29
-8.32
-5.95
-3.59
-1.56
-0.21
0.25
-0.35
-2.07
-4.91
-8.93
-14.20
-20.75
-28.29
-36.06
-42.73
-46.68
-46.48
-41.34
-31.42
-17.78
-2.09
13.90
28.64
40.99
50.17
55.72
57.42
55.28
49.59
40.97
30.31
18.68
7.23
-3.06
-11.52
-17.88
-22.26
-24.99
-26.54
-27.30
-27.57
-27.57
-27.48
-27.51
-27.87
-28.78
-30.51
-33.32
-37.46
-43.06
-49.91
-57.30
-64.00
-68.43
-69.05
-64.82
-55.56
-42.02
-25.69
-8.39
8.17
22.66
34.29
42.63
47.45
48.64
46.23
40.49
32.15
22.31
12.37
3.60
-3.20
-7.80
-10.57
-12.08
-12.83
-13.01
-12.52
-11.24
-9.31
-7.25
-5.88
-6.04
-8.35
-13.03
-19.89
-28.34
-37.43
-45.84
-51.97
-54.20
-51.34
-43.01
-29.94
-13.67
3.77
20.46
34.96
46.37
54.28
58.53
59.14
56.28
50.35
42.00
32.15
21.82
12.04
3.60
-3.08
-7.95
-11.30
-13.46
-14.71
-15.12
-14.57
-12.97
-10.42
-7.31
-4.21
-1.81
-0.72
-1.40
-4.01
-8.22
-13.12
-17.18
-18.49
-15.27
-6.38
8.29
27.92
51.00
75.92
101.25
125.95
149.21
170.33
188.57
203.17
213.43
218.78
218.95
213.86
203.79
189.34
171.47
151.38
130.43
109.89
90.79
73.74
58.91
46.02
34.57
23.86
13.26
2.22
-9.75
-23.09
-38.14
-55.02
-73.36
-92.10
-109.38
-122.91
-130.41
-130.33
-122.35
-107.50
-87.97
-66.49
-45.68
-27.68
-13.82
-4.74
-0.57
-0.97
-5.25
-12.33
-20.85
-29.33
-36.51
-41.63
-44.57
-45.87
-46.52
-47.70
-50.36
-54.96
-61.34
-68.77
-76.19
-82.57
-87.31
-90.46
-92.68
-95.09
-98.80
-104.56
-112.36
-121.35
-129.88
-135.79
-136.95
-131.84
-120.05
-102.38
-80.71
-57.40
-34.74
-14.51
2.20
14.76
22.83
26.24
25.04
19.72
11.30
1.20
-9.00
-17.94
-24.80
-29.34
-31.85
-32.87
-32.94
-32.45
-31.58
-30.49
-29.31
-28.34
-27.94
-28.46
-30.18
-33.25
-37.69
-43.45
-50.20
-57.21
-63.22
-66.61
-65.79
-59.69
-48.22
-32.24
-13.41
6.36
25.28
41.93
55.35
64.95
70.51
72.16
70.35
65.90
59.87
53.42
47.59
43.12
40.33
39.10
39.00
39.66
40.85
42.61
45.04
48.08
51.32
53.96
55.01
53.58
49.13
41.65
31.67
20.26
8.82
-1.01
-7.72
-10.20
-8.05
-1.68
7.76
18.75
29.72
39.39
46.83
51.35
52.45
49.66
42.74
31.81
17.68
1.82
-13.91
-27.68
-38.27
-45.28
-49.16
-50.85
-51.29
-51.11
-50.47
-49.36
-47.72
-45.80
-44.16
-43.49
-44.40
-47.17
-51.56
-56.73
-61.37
-63.87
-62.76
-57.08
-46.71
-32.40
-15.60
1.93
18.51
32.78
43.76
50.79
53.41
51.52
45.31
35.49
23.24
10.04
-2.65
-13.65
-22.25
-28.35
-32.24
-34.40
-35.27
-35.17
-34.27
-32.80
-31.09
-29.69
-29.39
-30.97
-35.17
-42.25
-51.79
-62.44
-72.06
-78.18
-78.61
-72.15
-58.96
-40.52
-19.09
2.85
23.21
40.44
53.56
62.02
65.52
64.10
58.13
48.45
36.28
23.06
10.22
-1.14
-10.32
-17.19
-21.92
-24.90
-26.45
-26.78
-26.04
-24.49
-22.61
-21.14
-21.04
-23.19
-28.25
-36.29
-46.68
-57.88
-67.63
-73.44
-73.23
-66.04
-52.38
-34.10
-13.83
5.88
23.16
37.03
47.24
53.81
56.78
56.11
51.84
44.42
34.78
24.27
14.34
6.17
0.35
-3.11
-4.61
-4.61
-3.37
-0.90
2.97
8.28
14.76
21.76
28.37
33.69
37.01
38.10
37.32
35.70
34.88
36.76
43.12
55.00
72.44
94.41
119.11
144.48
168.57
189.83
207.03
219.28
225.95
226.73
221.82
211.97
198.54
183.22
167.65
153.11
140.15
128.56
117.54
106.04
93.18
78.59
62.45
45.45
28.40
12.01
-3.42
-17.98
-32.10
-46.32
-61.08
-76.48
-92.06
-106.72
-118.76
-126.31
-127.76
-122.26
-110.03
-92.39
-71.39
-49.45
-28.95
-11.90
0.22
6.62
7.31
3.06
-4.75
-14.42
-24.44
-33.79
-42.01
-49.10
-55.20
-60.36
-64.38
-66.88
-67.47
-66.00
-62.70
-58.24
-53.66
-50.21
-49.02
-50.99
-56.42
-64.91
-75.23
-85.43
-93.10
-95.91
-92.22
-81.56
-64.85
-44.11
-21.90
-0.68
17.70
32.15
42.17
47.68
48.89
46.28
40.65
33.04
24.59
16.27
8.66
1.99
-3.81
-8.82
-13.07
-16.40
-18.61
-19.59
-19.52
-18.89
-18.50
-19.23
-21.85
-26.80
-34.10
-43.26
-53.26
-62.64
-69.70
-72.78
-70.65
-62.91
-50.15
-33.85
-16.03
1.20
16.09
27.49
34.77
37.81
36.75
31.97
24.15
14.20
3.28
-7.46
-17.03
-24.95
-31.12
-35.82
-39.43
-42.18
-44.15
-45.29
-45.64
-45.45
-45.27
-45.89
-48.05
-52.25
-58.46
-65.89
-73.02
-77.90
-78.61
-73.85
-63.37
-47.97
-29.33
-9.39
9.99
27.35
41.64
52.15
58.40
60.29
58.09
52.45
44.39
35.04
25.44
16.44
8.55
1.96
-3.38
-7.64
-10.95
-13.37
-14.85
-15.44
-15.29
-14.82
-14.66
-15.53
-18.14
-23.00
-30.26
-39.40
-49.24
-57.83
-62.91
-62.44
-55.29
-41.63
-22.99
-1.73
19.60
38.87
54.65
66.29
73.58
76.58
75.47
70.62
62.71
52.70
41.77
31.08
21.58
13.74
7.64
3.05
-0.35
-2.81
-4.41
-5.14
-5.02
-4.26
-3.36
-3.08
-4.28
-7.72
-13.71
-21.99
-31.52
-40.64
-47.34
-49.70
-46.40
-37.09
-22.56
-4.45
15.10
34.01
50.60
63.78
72.95
77.92
78.71
75.59
69.03
59.74
48.69
37.00
25.82
16.12
8.56
3.34
0.16
-1.53
-2.39
-2.83
-2.99
-2.79
-2.19
-1.42
-1.06
-1.94
-4.88
-10.40
-18.50
-28.50
-39.14
-48.59
-54.84
-56.14
-51.40
-40.61
-24.85
-6.06
13.44
31.53
46.65
57.97
65.25
68.68
68.61
65.39
59.45
51.32
41.76
31.73
22.27
14.31
8.34
4.39
2.06
0.84
0.24
0.03
0.12
0.47
0.92
1.14
0.70
-0.84
-3.82
-8.46
-14.83
-22.84
-32.00
-41.24
-48.96
-53.16
-52.11
-44.82
-31.56
-13.80
6.17
25.89
43.35
57.24
67.02
72.65
74.36
72.45
67.36
59.68
50.22
39.99
30.08
21.44
14.70
10.04
7.21
5.71
5.00
4.72
4.75
5.08
5.68
6.35
6.69
6.20
4.51
1.37
-3.32
-9.54
-17.16
-25.76
-34.43
-41.73
-45.88
-45.23
-38.81
-26.75
-10.33
8.29
26.74
42.90
55.46
63.88
68.28
69.09
66.84
62.02
55.08
46.59
37.22
27.81
19.18
12.01
6.65
3.09
1.04
0.03
-0.37
-0.42
-0.29
-0.08
0.08
-0.09
-0.90
-2.63
-5.49
-9.55
-14.82
-21.19
-28.41
-35.87
-42.56
-47.13
-48.18
-44.68
-36.31
-23.76
-8.41
7.91
23.42
36.68
46.72
53.10
55.78
54.98
51.19
45.00
37.07
28.16
18.98
10.26
2.62
-3.51
-7.91
-10.65
-12.02
-12.42
-12.24
-11.74
-11.08
-10.36
-9.75
-9.52
-10.07
-11.83
-15.13
-20.08
-26.51
-33.82
-41.00
-46.65
-49.32
-47.71
-41.20
-29.96
-15.06
1.84
18.85
34.31
46.94
56.02
61.24
62.65
60.56
55.53
48.25
39.59
30.40
21.50
13.54
6.99
2.01
-1.48
-3.71
-4.96
-5.43
-5.26
-4.59
-3.63
-2.79
-2.55
-3.42
-5.85
-10.05
-15.98
-23.31
-31.31
-38.82
-44.41
-46.55
-44.05
-36.50
-24.40
-9.19
7.28
23.09
36.79
47.49
54.92
59.07
60.10
58.17
53.52
46.57
37.92
28.39
18.90
10.29
3.14
-2.23
-5.79
-7.81
-8.68
-8.80
-8.55
-8.23
-8.05
-8.23
-9.03
-10.77
-13.82
-18.45
-24.77
-32.53
-41.01
-49.05
-55.16
-57.81
-55.85
-48.83
-37.21
-22.28
-5.84
10.25
24.49
35.89
44.07
49.00
50.81
49.70
45.95
39.97
32.39
24.08
15.93
8.68
2.81
-1.58
-4.66
-6.69
-7.89
-8.39
-8.28
-7.68
-6.83
-6.06
-5.77
-6.34
-8.13
-11.42
-16.39
-22.97
-30.77
-38.93
-46.12
-50.81
-51.52
-47.31
-38.13
-24.81
-8.94
7.57
22.93
35.84
45.57
51.89
54.82
54.51
51.17
45.19
37.22
28.15
19.06
10.87
4.24
-0.64
-3.95
-6.07
-7.37
-8.12
-8.40
-8.20
-7.66
-7.04
-6.79
-7.42
-9.37
-12.90
-18.00
-24.45
-31.78
-39.29
-45.97
-50.64
-52.05
-49.28
-42.00
-30.68
-16.59
-1.40
13.16
25.68
35.31
41.66
44.71
44.58
41.49
35.80
27.97
18.79
9.23
0.33
-7.04
-12.37
-15.62
-17.11
-17.33
-16.75
-15.65
-14.21
-12.48
-10.65
-8.98
-7.98
-8.18
-10.08
-13.96
-19.69
-26.61
-33.51
-38.85
-41.03
-38.88
-32.04
-21.00
-7.08
8.04
22.68
35.46
45.52
52.35
55.77
55.77
52.57
46.62
38.65
29.54
20.26
11.65
4.24
-1.73
-6.33
-9.75
-12.25
-13.98
-15.05
-15.53
-15.55
-15.29
-15.03
-15.14
-16.05
-18.20
-21.93
-27.22
-33.56
-39.88
-44.70
-46.49
-44.13
-37.27
-26.44
-12.94
1.61
15.61
27.82
37.43
44.03
47.45
47.68
44.84
39.26
31.57
22.63
13.47
5.03
-1.99
-7.34
-11.10
-13.61
-15.26
-16.28
-16.73
-16.55
-15.75
-14.57
-13.52
-13.35
-14.81
-18.45
-24.36
-32.00
-40.22
-47.39
-51.76
-51.87
-46.93
-37.10
-23.48
-7.76
8.23
22.90
35.21
44.53
50.55
53.08
52.07
47.71
40.60
31.72
22.22
13.18
5.35
-1.01
-5.91
-9.55
-12.10
-13.66
-14.27
-13.98
-13.00
-11.61
-10.22
-9.35
-9.58
-11.46
-15.34
-21.15
-28.12
-34.95
-39.92
-41.48
-38.64
-31.32
-20.30
-6.96
7.16
20.69
32.56
42.05
48.67
52.14
52.42
49.82
44.91
38.48
31.32
24.10
17.26
11.09
5.73
1.25
-2.31
-4.97
-6.80
-7.89
-8.32
-8.23
-7.83
-7.54
-7.97
-9.79
-13.52
-19.15
-25.98
-32.61
-37.27
-38.32
-34.78
-26.68
-15.04
-1.49
12.19
24.57
34.79
42.45
47.39
49.52
48.72
45.01
38.71
30.61
21.80
13.43
6.41
1.12
-2.53
-4.96
-6.60
-7.71
-8.33
-8.39
-7.90
-7.09
-6.44
-6.59
-8.17
-11.63
-17.00
-23.83
-31.10
-37.31
-40.87
-40.40
-35.26
-25.71
-12.91
1.43
15.56
28.05
38.06
45.11
49.02
49.66
47.04
41.37
33.29
23.77
14.04
5.18
-2.06
-7.44
-11.11
-13.43
-14.69
-15.07
-14.61
-13.34
-11.45
-9.38
-7.80
-7.49
-9.14
-13.13
-19.35
-27.17
-35.38
-42.45
-46.79
-47.08
-42.68
-33.75
-21.25
-6.68
8.26
22.06
33.58
42.10
47.24
48.87
47.06
42.09
34.61
25.58
16.18
7.52
0.43
-4.77
-8.24
-10.43
-11.85
-12.75
-13.20
-13.07
-12.31
-11.13
-10.07
-9.85
-11.24
-14.70
-20.25
-27.36
-34.91
-41.39
-45.20
-44.96
-40.01
-30.54
-17.65
-3.00
11.64
24.77
35.41
43.02
47.33
48.22
45.68
40.00
31.86
22.34
12.69
4.00
-3.01
-8.08
-11.31
-12.98
-13.37
-12.74
-11.33
-9.43
-7.38
-5.59
-4.47
-4.46
-6.01
-9.47
-15.01
-22.25
-30.22
-37.39
-42.00
-42.60
-38.50
-29.94
-18.03
-4.35
9.52
22.23
32.85
40.75
45.55
47.07
45.36
40.79
34.03
26.06
17.92
10.52
4.45
-0.14
-3.48
-5.91
-7.75
-9.09
-9.81
-9.75
-8.96
-7.75
-6.76
-6.80
-8.55
-12.38
-18.06
-24.78
-31.19
-35.70
-36.87
-33.78
-26.30
-15.09
-1.44
13.10
27.07
39.19
48.53
54.43
56.55
54.85
49.71
41.92
32.58
22.91
13.98
6.54
0.93
-2.90
-5.29
-6.63
-7.27
-7.38
-7.01
-6.21
-5.15
-4.28
-4.26
-5.87
-9.72
-15.96
-24.08
-32.85
-40.57
-45.46
-46.07
-41.70
-32.60
-19.86
-5.11
9.84
23.39
34.32
41.86
45.68
45.73
42.33
36.09
27.93
18.95
10.28
2.84
-2.83
-6.64
-8.83
-9.83
-10.01
-9.63
-8.84
-7.73
-6.49
-5.48
-5.24
-6.37
-9.45
-14.81
-22.31
-31.15
-39.96
-46.89
-50.13
-48.36
-41.21
-29.39
-14.42
1.73
17.18
30.53
40.89
47.85
51.29
51.22
47.86
41.63
33.27
23.82
14.46
6.28
-0.02
-4.21
-6.55
-7.55
-7.73
-7.37
-6.58
-5.38
-3.92
-2.63
-2.18
-3.29
-6.50
-12.01
-19.51
-28.16
-36.65
-43.36
-46.73
-45.55
-39.42
-28.82
-15.04
0.21
15.20
28.58
39.40
47.14
51.45
52.16
49.30
43.28
34.94
25.51
16.32
8.46
2.59
-1.23
-3.36
-4.41
-4.89
-5.12
-5.23
-5.23
-5.16
-5.19
-5.64
-6.92
-9.47
-13.67
-19.68
-27.24
-35.57
-43.42
-49.17
-51.25
-48.56
-40.88
-28.89
-14.05
1.79
16.88
29.84
39.80
46.34
49.34
48.87
45.16
38.66
30.11
20.58
11.27
3.35
-2.41
-5.80
-7.16
-7.15
-6.44
-5.49
-4.44
-3.23
-1.85
-0.50
0.39
0.20
-1.63
-5.50
-11.44
-19.13
-27.89
-36.65
-44.11
-48.87
-49.74
-45.99
-37.63
-25.44
-10.85
4.34
18.41
29.95
38.06
42.34
42.83
39.85
34.01
26.10
17.11
8.03
-0.22
-7.01
-12.03
-15.24
-16.83
-16.99
-15.98
-13.99
-11.28
-8.18
-5.10
-2.55
-1.07
-1.15
-3.16
-7.24
-13.17
-20.27
-27.43
-33.17
-35.97
-34.67
-28.82
-18.83
-5.94
8.17
21.84
33.76
43.10
49.48
52.78
52.97
50.17
44.74
37.35
29.00
20.74
13.50
7.78
3.65
0.83
-1.09
-2.43
-3.35
-3.89
-4.05
-3.95
-3.87
-4.20
-5.46
-8.14
-12.60
-18.90
-26.67
-34.98
-42.42
-47.37
-48.42
-44.72
-36.27
-23.87
-8.99
6.66
21.42
33.93
43.30
49.04
51.09
49.66
45.23
38.45
30.13
21.20
12.56
5.05
-0.78
-4.67
-6.76
-7.40
-7.09
-6.31
-5.46
-4.78
-4.42
-4.47
-5.06
-6.40
-8.80
-12.56
-17.89
-24.71
-32.41
-39.89
-45.66
-48.14
-46.19
-39.41
-28.40
-14.53
0.38
14.58
26.71
35.97
42.06
44.95
44.78
41.80
36.39
29.18
21.04
12.98
5.98
0.76
-2.43
-3.76
-3.77
-3.10
-2.27
-1.58
-1.12
-0.88
-0.91
-1.40
-2.61
-4.81
-8.26
-13.18
-19.64
-27.47
-36.07
-44.25
-50.46
-53.00
-50.74
-43.38
-31.68
-17.16
-1.64
13.24
26.26
36.69
44.16
48.48
49.60
47.69
43.19
36.77
29.31
21.67
14.58
8.58
3.92
0.68
-1.27
-2.10
-2.15
-1.77
-1.35
-1.24
-1.67
-2.75
-4.46
-6.72
-9.53
-12.96
-17.21
-22.50
-28.95
-36.30
-43.82
-50.25
-54.07
-53.80
-48.59
-38.49
-24.52
-8.43
7.83
22.58
34.68
43.57
49.09
51.26
50.19
46.15
39.58
31.19
21.88
12.64
4.36
-2.28
-6.91
-9.44
-10.11
-9.36
-7.78
-5.94
-4.28
-3.13
-2.57
-2.67
-3.44
-4.91
-7.21
-10.48
-14.88
-20.48
-27.05
-33.98
-40.22
-44.43
-45.25
-41.79
-33.85
-22.05
-7.74
7.41
21.73
33.90
43.06
48.84
51.25
50.60
47.26
41.68
34.35
25.83
16.85
8.23
0.83
-4.67
-7.97
-9.17
-8.70
-7.18
-5.19
-3.11
-1.20
0.36
1.34
1.43
0.31
-2.16
-5.91
-10.70
-16.21
-22.16
-28.28
-34.12
-38.97
-41.80
-41.50
-37.22
-28.75
-16.68
-2.37
12.46
26.07
37.07
44.63
48.48
48.78
46.02
40.83
33.90
25.89
17.42
9.09
1.51
-4.76
-9.20
-11.53
-11.73
-10.19
-7.59
-4.75
-2.45
-1.21
-1.21
-2.33
-4.30
-6.84
-9.83
-13.29
-17.42
-22.44
-28.41
-35.07
-41.74
-47.35
-50.64
-50.43
-45.99
-37.22
-24.80
-10.04
5.39
19.83
31.94
40.94
46.53
48.84
48.14
44.80
39.23
31.99
23.74
15.27
7.34
0.51
-4.92
-8.86
-11.39
-12.64
-12.80
-12.13
-10.97
-9.76
-8.94
-8.78
-9.39
-10.66
-12.38
-14.44
-16.92
-20.17
-24.49
-29.91
-35.83
-41.10
-44.26
-44.01
-39.68
-31.46
-20.25
-7.37
5.81
18.13
28.67
36.79
42.02
44.18
43.36
39.97
34.61
28.03
20.97
14.06
7.83
2.63
-1.34
-4.09
-5.79
-6.66
-6.97
-6.92
-6.66
-6.34
-6.08
-6.07
-6.51
-7.64
-9.67
-12.83
-17.21
-22.66
-28.67
-34.28
-38.20
-39.13
-36.14
-28.98
-18.27
-5.28
8.44
21.42
32.62
41.46
47.73
51.36
52.33
50.65
46.43
40.04
32.14
23.65
15.48
8.42
2.90
-1.02
-3.57
-5.08
-5.88
-6.15
-6.07
-5.82
-5.66
-5.90
-6.83
-8.68
-11.56
-15.52
-20.54
-26.44
-32.83
-38.92
-43.58
-45.55
-43.76
-37.68
-27.56
-14.40
0.28
14.79
27.66
37.83
44.73
48.23
48.49
45.86
40.79
33.81
25.52
16.73
8.25
0.96
-4.51
-7.89
-9.39
-9.55
-9.03
-8.43
-8.03
-7.87
-7.82
-7.79
-7.86
-8.31
-9.57
-12.08
-16.17
-21.88
-28.97
-36.69
-43.94
-49.26
-51.20
-48.66
-41.20
-29.33
-14.37
1.87
17.51
31.01
41.42
48.31
51.74
51.97
49.36
44.40
37.61
29.65
21.29
13.31
6.42
1.07
-2.56
-4.63
-5.41
-5.26
-4.43
-3.11
-1.49
0.14
1.31
1.51
0.32
-2.45
-6.74
-12.27
-18.69
-25.65
-32.71
-39.21
-44.17
-46.45
-44.97
-39.18
-29.21
-16.04
-1.15
13.77
27.25
38.26
46.25
51.02
52.59
51.08
46.77
40.13
31.92
23.05
14.45
6.94
1.06
-2.93
-5.03
-5.47
-4.66
-3.11
-1.43
-0.11
0.48
0.29
-0.60
-2.00
-3.84
-6.29
-9.65
-14.28
-20.31
-27.42
-34.65
-40.55
-43.45
-41.96
-35.43
-24.20
-9.63
6.40
21.93
35.44
46.08
53.58
58.05
59.66
58.57
54.89
48.93
41.24
32.68
24.29
16.99
11.44
7.79
5.82
5.03
4.98
5.41
6.21
7.32
8.52
9.39
9.37
8.04
5.29
1.29
-3.67
-9.29
-15.40
-21.83
-28.12
-33.43
-36.61
-36.49
-32.35
-24.22
-12.93
0.12
13.27
25.06
34.39
40.68
43.80
43.95
41.55
37.14
31.35
24.81
18.12
11.83
6.35
2.05
-0.79
-1.89
-1.06
1.77
6.45
12.61
19.77
27.46
35.40
43.56
52.18
61.57
71.97
83.44
95.62
107.70
118.46
126.45
130.48
130.06
125.76
119.14
112.29
107.08
104.48
104.16
104.64
103.94
100.21
92.34
80.19
64.53
46.75
28.48
11.38
-3.30
-14.93
-23.65
-30.33
-36.36
-43.37
-52.74
-65.18
-80.41
-97.11
-113.16
-126.27
-134.73
-138.00
-136.96
-133.39
-129.19
-125.45
-121.96
-117.25
-109.22
-95.97
-76.45
-51.02
-21.38
9.72
39.10
63.80
81.72
91.98
94.79
91.19
82.50
70.00
54.70
37.31
18.33
-1.84
-22.80
-43.99
-64.54
-83.26
-98.82
-110.09
-116.58
-118.61
-117.25
-113.93
-110.07
-106.72
-104.63
-104.28
-105.84
-108.98
-112.70
-115.25
-114.58
-108.98
-97.81
-81.78
-62.78
-43.17
-25.04
-9.65
2.53
11.61
17.81
21.27
21.97
19.95
15.48
9.20
2.01
-5.07
-11.13
-15.61
-18.39
-19.72
-20.03
-19.69
-18.86
-17.49
-15.43
-12.75
-9.83
-7.44
-6.53
-8.00
-12.43
-19.75
-29.22
-39.33
-48.12
-53.53
-54.02
-49.00
-39.01
-25.53
-10.48
4.30
17.46
28.21
36.15
41.16
43.17
42.33
39.01
33.94
27.98
22.01
16.63
12.05
8.11
4.53
1.11
-2.11
-4.87
-6.82
-7.80
-7.87
-7.40
-6.86
-6.75
-7.47
-9.34
-12.60
-17.27
-22.97
-28.69
-32.91
-33.88
-30.17
-21.26
-7.74
8.85
26.51
43.35
57.98
69.51
77.48
81.55
81.56
77.52
69.92
59.80
48.59
37.87
28.91
22.34
18.12
15.76
14.64
14.34
14.69
15.69
17.20
18.79
19.79
19.42
17.04
12.24
4.98
-4.39
-15.10
-25.92
-35.30
-41.64
-43.71
-41.06
-34.16
-24.29
-13.16
-2.45
6.56
13.05
16.71
17.45
15.44
10.96
4.56
-3.08
-11.10
-18.71
-25.32
-30.60
-34.52
-37.22
-38.81
-39.32
-38.66
-36.80
-33.84
-30.22
-26.68
-24.13
-23.46
-25.23
-29.43
-35.40
-41.77
-46.82
-48.87
-46.73
-40.13
-29.67
-16.68
-2.79
10.45
21.82
30.50
36.00
38.13
36.99
33.00
26.90
19.62
12.07
4.93
-1.45
-7.05
-11.98
-16.32
-20.00
-22.77
-24.34
-24.51
-23.33
-21.19
-18.87
-17.28
-17.35
-19.59
-23.95
-29.63
-35.15
-38.66
-38.47
-33.52
-23.75
-10.15
5.57
21.39
35.56
46.81
54.42
58.19
58.19
54.75
48.41
39.95
30.26
20.30
10.82
2.36
-4.86
-10.77
-15.47
-19.09
-21.75
-23.50
-24.43
-24.59
-24.30
-24.08
-24.78
-27.26
-32.10
-39.13
-47.24
-54.47
-58.50
-57.33
-49.96
-36.69
-19.05
0.65
19.97
36.90
50.17
59.21
63.99
64.82
62.24
57.05
50.26
43.07
36.62
31.86
29.36
29.45
32.35
38.37
47.97
61.50
78.92
99.35
121.11
141.89
159.22
171.00
175.92
173.61
164.63
150.37
132.81
114.36
97.50
84.36
76.21
73.19
74.18
77.21
80.01
80.57
77.53
70.27
58.77
43.47
25.09
4.62
-16.75
-37.72
-57.06
-73.78
-87.31
-97.49
-104.52
-108.79
-110.82
-111.07
-109.93
-107.80
-105.09
-102.36
-100.28
-99.50
-100.41
-102.84
-105.89
-107.99
-107.23
-101.95
-91.20
-75.12
-54.83
-32.16
-9.12
12.46
31.23
46.27
57.02
63.21
64.77
61.97
55.55
46.62
36.53
26.55
17.58
9.98
3.66
-1.72
-6.43
-10.56
-13.98
-16.57
-18.35
-19.60
-20.83
-22.65
-25.65
-30.14
-36.06
-42.82
-49.39
-54.33
-56.16
-53.76
-46.64
-35.20
-20.58
-4.42
11.49
25.54
36.59
43.93
47.36
47.08
43.50
37.25
29.12
19.94
10.58
1.78
-5.90
-12.25
-17.28
-21.18
-24.21
-26.47
-27.99
-28.73
-28.76
-28.35
-28.06
-28.63
-30.74
-34.76
-40.39
-46.61
-51.80
-54.16
-52.29
-45.63
-34.63
-20.55
-5.02
10.37
24.37
36.09
44.96
50.54
52.60
51.16
46.64
39.79
31.56
22.88
14.43
6.57
-0.53
-6.80
-12.12
-16.33
-19.26
-20.89
-21.38
-21.10
-20.62
-20.54
-21.50
-23.95
-28.05
-33.52
-39.49
-44.66
-47.53
-46.83
-41.89
-32.86
-20.65
-6.63
7.62
20.64
31.29
38.73
42.51
42.51
39.00
32.65
24.45
15.54
6.97
-0.57
-6.82
-12.02
-16.60
-21.02
-25.44
-29.71
-33.40
-36.14
-37.83
-38.71
-39.40
-40.60
-42.85
-46.30
-50.53
-54.57
-56.98
-56.17
-50.81
-40.29
-24.97
-6.19
14.09
33.77
51.04
64.67
73.99
78.83
79.44
76.31
70.12
61.55
51.26
39.79
27.66
15.52
4.16
-5.51
-12.70
-16.93
-18.18
-16.91
-13.97
-10.35
-7.05
-4.83
-4.24
-5.52
-8.66
-13.42
-19.27
-25.31
-30.30
-32.85
-31.80
-26.63
-17.74
-6.34
5.84
17.15
26.34
32.73
36.15
36.70
34.68
30.57
25.06
19.12
13.79
9.96
8.10
8.25
10.08
13.24
17.64
23.48
31.09
40.59
51.48
62.52
71.94
77.84
78.71
73.92
63.81
49.69
33.49
17.56
4.32
-4.03
-5.84
-0.20
12.96
32.79
57.80
86.12
115.65
144.20
169.52
189.32
201.49
204.50
197.87
182.57
160.87
135.89
110.80
88.02
68.71
52.78
39.39
27.59
16.80
6.94
-1.73
-9.02
-15.08
-20.55
-26.27
-32.95
-40.96
-50.17
-60.26
-70.85
-81.60
-92.05
-101.19
-107.35
-108.52
-103.14
-91.00
-73.74
-54.51
-37.13
-24.75
-18.94
-19.37
-24.39
-31.86
-39.98
-47.66
-54.48
-60.27
-64.76
-67.51
-68.05
-66.18
-62.19
-56.81
-51.10
-45.97
-41.98
-39.28
-37.75
-37.32
-38.24
-40.97
-45.99
-53.29
-62.01
-70.37
-76.08
-77.04
-72.04
-61.22
-46.04
-28.79
-11.89
2.69
13.71
20.62
23.39
22.33
17.95
11.02
2.44
-6.77
-15.68
-23.61
-30.16
-35.15
-38.62
-40.60
-41.10
-40.17
-37.92
-34.66
-30.91
-27.41
-25.06
-24.72
-27.02
-32.12
-39.45
-47.70
-54.96
-59.16
-58.59
-52.39
-40.78
-25.01
-6.93
11.54
28.75
43.70
55.87
65.09
71.34
74.60
75.05
73.09
69.52
65.24
61.11
57.53
54.42
51.37
48.03
44.48
41.25
39.19
39.09
41.31
45.64
51.33
57.39
62.69
66.19
67.04
64.73
59.38
51.87
43.87
37.45
34.50
36.09
42.11
51.27
61.59
70.99
77.79
81.02
80.26
75.61
67.42
56.29
43.06
28.74
14.37
0.76
-11.70
-23.09
-33.74
-43.85
-53.20
-61.22
-67.21
-70.80
-72.25
-72.47
-72.71
-74.10
-77.31
-82.31
-88.37
-94.21
-98.21
-98.71
-94.40
-84.70
-69.97
-51.55
-31.44
-11.88
5.18
18.36
26.97
30.92
30.53
26.37
19.19
9.91
-0.52
-11.06
-20.86
-29.24
-35.89
-40.71
-43.81
-45.31
-45.27
-43.86
-41.37
-38.34
-35.62
-34.17
-34.88
-38.28
-44.29
-52.08
-60.09
-66.26
-68.50
-65.30
-56.15
-41.76
-23.77
-4.34
14.50
31.11
44.46
53.92
59.22
60.34
57.59
51.70
43.73
34.91
26.36
18.86
12.77
8.08
4.65
2.34
1.11
0.95
1.78
3.26
4.72
5.23
3.82
-0.38
-7.79
-18.11
-30.25
-42.44
-52.53
-58.58
-59.33
-54.63
-45.32
-32.96
-19.27
-5.77
6.51
16.97
25.30
31.51
36.04
39.79
44.03
50.05
58.56
69.38
81.37
92.92
102.48
108.92
111.81
111.17
107.28
100.49
91.23
79.99
67.22
53.16
37.81
21.02
2.89
-15.78
-33.44
-47.99
-57.41
-60.44
-56.95
-47.88
-34.89
-19.81
-4.32
10.23
22.76
32.40
38.52
40.75
39.21
34.59
28.03
20.90
14.46
9.55
6.46
5.04
4.91
5.78
7.55
10.30
14.11
18.86
24.15
29.29
33.44
35.80
35.71
32.95
27.87
21.57
15.78
12.51
13.43
19.35
29.75
42.88
56.10
66.52
71.77
70.51
62.66
49.32
32.34
13.72
-4.99
-22.89
-39.69
-55.40
-70.00
-83.27
-94.85
-104.48
-112.18
-118.23
-122.94
-126.39
-128.40
-128.62
-126.84
-123.32
-118.86
-114.65
-111.74
-110.56
-110.63
-110.45
-108.00
-101.37
-89.51
-72.64
-52.15
-30.14
-8.78
10.30
26.05
38.04
46.05
49.91
49.56
45.24
37.70
28.20
18.26
9.20
1.88
-3.48
-7.11
-9.38
-10.60
-10.91
-10.37
-9.10
-7.37
-5.66
-4.59
-4.82
-6.96
-11.35
-17.94
-25.95
-33.95
-39.98
-42.18
-39.25
-31.00
-18.32
-2.90
13.26
28.45
41.35
51.18
57.42
59.81
58.27
53.08
44.89
34.78
24.04
13.86
5.13
-1.74
-6.71
-10.04
-11.97
-12.69
-12.26
-10.89
-8.99
-7.31
-6.81
-8.35
-12.54
-19.32
-27.95
-37.00
-44.59
-48.88
-48.41
-42.61
-31.87
-17.48
-1.23
14.99
29.52
41.10
48.87
52.39
51.61
47.00
39.37
29.95
19.93
10.35
1.95
-4.89
-10.03
-13.49
-15.30
-15.60
-14.62
-12.72
-10.42
-8.33
-7.21
-7.80
-10.75
-16.24
-23.76
-31.91
-38.67
-41.89
-39.91
-32.18
-19.43
-3.43
13.61
29.57
42.85
52.54
58.25
60.05
58.25
53.44
46.31
37.66
28.40
19.41
11.49
5.17
0.66
-2.18
-3.68
-4.23
-4.01
-3.13
-1.77
-0.49
-0.28
-2.28
-7.35
-15.49
-25.61
-35.74
-43.55
-47.03
-44.99
-37.32
-24.85
-9.13
7.99
24.66
39.30
50.62
57.76
60.34
58.47
52.83
44.54
34.98
25.42
16.68
9.13
2.74
-2.60
-6.85
-9.77
-11.13
-10.93
-9.65
-8.15
-7.40
-8.19
-10.92
-15.66
-22.10
-29.59
-37.12
-43.24
-46.23
-44.49
-37.14
-24.35
-7.54
11.00
28.69
43.37
53.71
59.31
60.52
58.06
52.76
45.49
36.98
28.01
19.33
11.62
5.43
1.10
-1.38
-2.21
-1.83
-0.66
0.88
2.39
3.44
3.46
1.79
-2.17
-8.66
-17.26
-26.69
-35.04
-40.10
-40.11
-34.26
-22.99
-7.82
9.12
25.58
39.75
50.38
56.81
58.88
56.86
51.42
43.54
34.38
25.06
16.48
9.16
3.34
-0.97
-3.85
-5.39
-5.79
-5.35
-4.51
-3.77
-3.54
-4.16
-5.87
-8.92
-13.53
-19.77
-27.21
-34.73
-40.56
-42.67
-39.53
-30.74
-17.27
-1.16
15.21
29.80
41.38
49.48
54.01
55.03
52.63
47.03
38.91
29.32
19.61
10.99
4.27
-0.32
-3.02
-4.27
-4.53
-4.07
-3.05
-1.59
0.01
1.24
1.37
-0.40
-4.66
-11.44
-20.04
-28.99
-36.33
-40.11
-38.95
-32.56
-21.71
-8.04
6.48
20.10
31.55
40.08
45.28
46.97
45.16
40.21
32.96
24.57
16.37
9.40
4.21
0.78
-1.33
-2.62
-3.48
-4.01
-4.16
-3.87
-3.36
-3.06
-3.70
-5.94
-10.23
-16.46
-23.90
-31.26
-36.93
-39.39
-37.54
-31.06
-20.45
-6.96
7.70
21.79
33.82
42.79
48.18
49.90
48.12
43.26
36.02
27.35
18.38
10.25
3.87
-0.34
-2.45
-2.97
-2.61
-1.97
-1.45
-1.11
-0.91
-0.85
-1.10
-2.11
-4.47
-8.68
-14.87
-22.54
-30.51
-37.06
-40.34
-38.89
-32.14
-20.65
-5.95
9.93
24.98
37.70
47.20
53.16
55.48
54.19
49.50
41.86
32.15
21.61
11.66
3.48
-2.20
-5.32
-6.36
-6.10
-5.24
-4.25
-3.34
-2.44
-1.55
-0.80
-0.58
-1.44
-4.01
-8.64
-15.27
-23.22
-31.19
-37.55
-40.68
-39.45
-33.50
-23.41
-10.47
3.72
17.59
29.89
39.73
46.54
49.90
49.66
45.95
39.35
30.93
21.96
13.69
6.98
2.22
-0.72
-2.21
-2.68
-2.46
-1.81
-0.98
-0.22
0.13
-0.22
-1.45
-3.73
-7.15
-11.82
-17.79
-24.93
-32.61
-39.76
-44.85
-46.42
-43.41
-35.66
-23.88
-9.51
5.74
20.38
33.27
43.61
50.90
54.78
55.04
51.78
45.58
37.47
28.78
20.81
14.55
10.45
8.44
8.11
8.97
10.61
12.79
15.36
18.12
20.78
22.90
24.02
23.79
21.99
18.56
13.56
7.26
0.27
-6.38
-11.34
-13.15
-10.86
-4.23
5.98
18.35
31.24
43.24
53.35
61.00
65.90
67.88
66.89
63.13
57.06
49.52
41.42
33.67
26.96
21.64
17.71
14.91
12.85
11.15
9.54
7.91
6.33
4.83
3.34
1.57
-0.89
-4.51
-9.60
-16.04
-23.18
-29.83
-34.52
-35.87
-33.05
-26.11
-15.96
-4.10
7.77
18.23
26.35
31.66
33.95
33.17
29.35
22.73
13.90
3.81
-6.34
-15.43
-22.67
-27.83
-31.17
-33.25
-34.65
-35.80
-36.80
-37.61
-38.16
-38.54
-39.05
-40.24
-42.69
-46.88
-52.94
-60.56
-68.89
-76.63
-82.29
-84.48
-82.27
-75.42
-64.52
-50.80
-35.87
-21.33
-8.50
1.72
8.87
12.73
13.34
10.90
5.82
-1.21
-9.26
-17.26
-24.25
-29.55
-33.02
-34.93
-35.90
-36.52
-37.20
-37.99
-38.78
-39.41
-39.85
-40.36
-41.39
-43.46
-46.94
-51.95
-58.22
-64.90
-70.69
-73.90
-73.01
-67.00
-55.87
-40.69
-23.22
-5.40
11.11
25.20
36.22
43.72
47.33
46.87
42.51
35.06
25.84
16.49
8.49
2.79
-0.30
-1.12
-0.39
1.15
2.85
4.37
5.55
6.36
6.80
6.78
6.14
4.60
1.80
-2.63
-8.93
-17.00
-26.15
-35.01
-41.72
-44.32
-41.52
-33.03
-19.77
-3.53
13.57
29.65
43.39
54.00
61.07
64.38
63.89
59.77
52.55
43.16
32.83
22.86
14.30
7.80
3.52
1.29
0.64
1.13
2.34
3.97
5.63
6.89
7.33
6.67
4.94
2.39
-0.63
-4.02
-8.09
-13.37
-20.21
-28.27
-36.25
-42.10
-43.77
-39.95
-30.68
-17.34
-2.07
12.90
25.96
36.25
43.49
47.64
48.60
46.24
40.67
32.41
22.53
12.43
3.41
-3.53
-8.14
-10.68
-11.78
-12.09
-11.99
-11.59
-10.83
-9.60
-8.03
-6.48
-5.41
-5.25
-6.20
-8.26
-11.30
-15.20
-19.90
-25.27
-30.89
-35.88
-39.01
-38.97
-34.78
-26.28
-14.21
-0.02
14.55
27.90
38.88
46.82
51.44
52.73
50.84
46.09
39.04
30.45
21.22
12.28
4.42
-1.85
-6.39
-9.41
-11.30
-12.56
-13.54
-14.46
-15.33
-16.14
-16.94
-17.88
-19.29
-21.54
-25.00
-29.82
-35.79
-42.20
-47.82
-51.17
-50.86
-46.08
-36.83
-24.00
-9.06
6.33
20.75
33.12
42.80
49.37
52.60
52.45
49.09
43.07
35.24
26.70
18.54
11.65
6.51
3.21
1.48
0.87
0.92
1.25
1.59
1.77
1.61
0.91
-0.62
-3.26
-7.36
-13.11
-20.48
-28.95
-37.48
-44.54
-48.44
-47.77
-41.87
-31.03
-16.39
0.28
17.13
32.53
45.30
54.78
60.66
62.90
61.60
57.06
49.89
40.97
31.47
22.57
15.19
9.75
6.13
3.90
2.55
1.78
1.57
2.00
3.02
4.34
5.37
5.39
3.77
0.11
-5.68
-13.24
-21.75
-29.93
-36.20
-39.07
-37.41
-30.92
-20.14
-6.30
8.97
23.99
37.32
47.84
54.81
57.78
56.69
51.84
43.92
33.96
23.11
12.53
3.13
-4.52
-10.20
-14.03
-16.28
-17.22
-17.11
-16.16
-14.59
-12.76
-11.13
-10.27
-10.80
-13.22
-17.75
-24.23
-31.95
-39.72
-46.03
-49.33
-48.40
-42.72
-32.56
-18.99
-3.57
11.95
25.99
37.29
45.01
48.70
48.23
43.79
35.87
25.25
13.00
0.32
-11.59
-21.77
-29.66
-35.17
-38.50
-39.98
-39.86
-38.31
-35.46
-31.58
-27.23
-23.28
-20.74
-20.44
-22.74
-27.26
-32.92
-38.06
-40.94
-40.07
-34.61
-24.49
-10.35
6.54
24.59
42.10
57.41
69.21
76.61
79.28
77.48
71.89
63.43
53.10
41.84
30.52
19.88
10.50
2.79
-3.07
-7.11
-9.50
-10.48
-10.35
-9.44
-8.22
-7.21
-7.04
-8.37
-11.68
-17.07
-24.03
-31.36
-37.32
-40.04
-38.06
-30.83
-18.92
-3.83
12.45
28.00
41.35
51.63
58.35
61.28
60.37
55.76
47.98
37.98
26.99
16.25
6.68
-1.30
-7.66
-12.57
-16.13
-18.20
-18.59
-17.22
-14.39
-10.82
-7.53
-5.55
-5.69
-8.31
-13.27
-19.89
-26.99
-33.00
-36.31
-35.53
-30.02
-20.01
-6.59
8.63
23.90
37.76
49.18
57.50
62.33
63.50
61.02
55.24
46.84
36.78
26.09
15.73
6.32
-1.77
-8.42
-13.57
-17.13
-19.00
-19.14
-17.69
-15.08
-11.97
-9.22
-7.61
-7.83
-10.23
-14.79
-20.93
-27.54
-33.11
-36.02
-34.93
-29.20
-19.12
-5.80
9.11
23.87
37.02
47.53
54.81
58.54
58.62
55.13
48.43
39.24
28.59
17.65
7.47
-1.19
-8.02
-13.05
-16.48
-18.48
-19.14
-18.49
-16.66
-14.00
-11.14
-8.95
-8.31
-9.94
-14.09
-20.38
-27.76
-34.64
-39.26
-40.13
-36.49
-28.44
-16.82
-2.93
11.87
26.32
39.36
50.06
57.55
61.12
60.40
55.45
46.87
35.68
23.07
10.20
-1.99
-12.88
-22.13
-29.63
-35.41
-39.47
-41.90
-42.84
-42.63
-41.82
-41.15
-41.45
-43.43
-47.49
-53.45
-60.49
-67.20
-71.82
-72.70
-68.76
-59.78
-46.51
-30.46
-13.47
2.64
16.49
27.17
34.24
37.66
37.63
34.58
29.10
22.00
14.11
6.29
-0.80
-6.72
-11.27
-14.53
-16.61
-17.71
-17.94
-17.42
-16.35
-15.04
-14.10
-14.28
-16.48
-21.32
-28.84
-38.14
-47.38
-54.07
-55.81
-51.09
-39.71
-23.00
-3.23
17.07
35.78
51.52
63.55
71.54
75.34
74.95
70.64
63.15
53.61
43.27
33.18
23.97
15.83
8.75
2.87
-1.47
-3.79
-3.80
-1.76
1.57
5.11
7.82
8.99
8.30
5.64
1.04
-5.40
-13.15
-21.06
-27.34
-30.00
-27.49
-19.31
-6.26
9.73
26.38
41.66
54.26
63.61
69.57
72.13
71.25
66.81
58.89
48.00
35.10
21.53
8.66
-2.40
-11.04
-17.32
-21.64
-24.54
-26.37
-27.20
-26.90
-25.49
-23.37
-21.42
-20.77
-22.40
-26.70
-33.25
-40.74
-47.36
-51.20
-50.78
-45.44
-35.44
-21.89
-6.35
9.47
24.10
36.42
45.72
51.55
53.70
52.21
47.45
40.10
31.12
21.57
12.34
4.09
-2.92
-8.69
-13.30
-16.85
-19.28
-20.45
-20.26
-18.85
-16.72
-14.68
-13.77
-14.90
-18.59
-24.68
-32.23
-39.78
-45.56
-48.03
-46.14
-39.60
-28.90
-15.12
0.33
15.93
30.27
42.12
50.54
54.94
55.19
51.67
45.23
36.95
27.88
18.78
10.11
2.00
-5.46
-12.13
-17.70
-21.91
-24.60
-25.85
-25.98
-25.41
-24.60
-24.08
-24.42
-26.18
-29.76
-35.04
-41.21
-46.78
-49.89
-48.89
-42.79
-31.68
-16.65
0.52
17.81
33.40
46.00
54.85
59.68
60.58
57.91
52.21
44.23
34.87
25.07
15.69
7.32
0.17
-5.79
-10.70
-14.65
-17.61
-19.45
-20.10
-19.67
-18.58
-17.55
-17.55
-19.49
-23.91
-30.59
-38.41
-45.48
-49.63
-49.09
-43.06
-31.92
-17.04
-0.29
16.51
31.87
44.73
54.31
60.04
61.61
59.04
52.87
44.07
33.95
23.75
14.41
6.36
-0.40
-6.16
-11.18
-15.49
-18.90
-21.10
-21.92
-21.50
-20.31
-19.07
-18.59
-19.61
-22.65
-27.84
-34.71
-42.07
-48.17
-51.02
-49.07
-41.60
-29.08
-12.91
4.92
22.39
37.82
50.03
58.41
62.75
63.17
60.02
53.83
45.24
35.11
24.37
13.99
4.83
-2.60
-8.19
-12.15
-14.88
-16.75
-17.94
-18.52
-18.49
-17.96
-17.29
-17.08
-18.02
-20.78
-25.65
-32.24
-39.39
-45.34
-48.13
-46.21
-39.01
-27.06
-11.84
4.77
21.01
35.51
47.40
56.10
61.18
62.29
59.33
52.64
43.10
32.06
20.97
11.06
3.04
-2.95
-7.19
-10.14
-12.22
-13.59
-14.27
-14.18
-13.40
-12.22
-11.18
-11.01
-12.39
-15.84
-21.46
-28.78
-36.81
-43.97
-48.55
-49.04
-44.61
-35.34
-22.27
-6.97
8.81
23.62
36.48
46.71
53.88
57.58
57.55
53.73
46.54
36.91
26.09
15.43
6.05
-1.37
-6.66
-10.03
-11.91
-12.69
-12.72
-12.17
-11.20
-10.00
-8.86
-8.17
-8.39
-10.00
-13.41
-18.77
-25.82
-33.73
-41.02
-45.86
-46.60
-42.25
-32.90
-19.67
-4.30
11.34
25.78
38.03
47.47
53.71
56.42
55.41
50.81
43.16
33.37
22.66
12.30
3.35
-3.47
-7.93
-10.27
-11.08
-11.04
-10.66
-10.19
-9.61
-8.88
-8.09
-7.52
-7.66
-8.99
-11.92
-16.62
-22.99
-30.49
-38.10
-44.43
-47.96
-47.50
-42.55
-33.41
-21.11
-7.01
7.52
21.34
33.53
43.33
50.10
53.38
53.04
49.36
43.01
34.98
26.25
17.73
10.02
3.43
-1.99
-6.27
-9.49
-11.65
-12.73
-12.83
-12.18
-11.18
-10.33
-10.15
-11.04
-13.27
-16.91
-21.82
-27.49
-33.04
-37.28
-38.90
-36.81
-30.50
-20.18
-6.83
8.09
22.88
36.02
46.38
53.30
56.58
56.32
52.77
46.40
37.83
27.90
17.58
7.82
-0.66
-7.50
-12.70
-16.56
-19.31
-21.12
-21.95
-21.78
-20.68
-18.99
-17.25
-16.16
-16.40
-18.45
-22.48
-28.20
-34.84
-41.23
-45.98
-47.80
-45.70
-39.33
-28.94
-15.47
-0.28
15.09
29.21
40.96
49.55
54.60
55.97
53.80
48.43
40.51
30.93
20.77
11.08
2.68
-3.97
-8.84
-12.12
-14.16
-15.26
-15.66
-15.54
-15.00
-14.14
-13.06
-12.02
-11.44
-11.96
-14.28
-18.83
-25.50
-33.32
-40.63
-45.46
-46.20
-42.03
-33.09
-20.38
-5.32
10.55
25.81
39.11
49.25
55.24
56.63
53.66
47.26
38.80
29.61
20.63
12.31
4.78
-1.88
-7.45
-11.64
-14.26
-15.30
-15.16
-14.31
-13.22
-12.10
-10.97
-9.84
-8.93
-8.75
-10.17
-13.95
-20.30
-28.52
-36.92
-43.25
-45.42
-42.22
-33.80
-21.44
-6.98
7.87
21.93
34.63
45.57
54.23
59.78
61.39
58.63
51.85
42.21
31.29
20.61
11.27
3.66
-2.28
-6.85
-10.23
-12.44
-13.40
-13.16
-11.92
-10.18
-8.53
-7.53
-7.58
-8.97
-11.83
-16.32
-22.36
-29.65
-37.39
-44.30
-48.85
-49.59
-45.58
-36.77
-23.95
-8.57
7.67
23.12
36.51
46.99
54.04
57.41
57.16
53.55
47.21
38.97
29.81
20.68
12.29
5.11
-0.71
-5.16
-8.31
-10.27
-11.14
-11.13
-10.43
-9.39
-8.35
-7.67
-7.72
-8.87
-11.47
-15.68
-21.34
-27.81
-33.99
-38.48
-39.93
-37.45
-30.91
-20.92
-8.70
4.28
16.74
27.68
36.41
42.47
45.50
45.32
42.02
36.13
28.47
20.09
11.86
4.39
-2.03
-7.34
-11.50
-14.43
-16.03
-16.31
-15.48
-13.96
-12.29
-11.03
-10.64
-11.48
-13.77
-17.55
-22.62
-28.39
-33.95
-38.10
-39.63
-37.59
-31.62
-22.02
-9.75
3.86
17.35
29.45
39.21
46.03
49.66
50.09
47.53
42.37
35.16
26.67
17.77
9.34
2.08
-3.55
-7.40
-9.61
-10.47
-10.38
-9.68
-8.72
-7.73
-6.98
-6.83
-7.72
-10.17
-14.53
-20.79
-28.34
-35.93
-41.84
-44.41
-42.52
-35.94
-25.38
-12.21
1.93
15.63
27.84
37.85
45.12
49.21
49.80
46.84
40.84
32.71
23.69
14.93
7.26
1.00
-3.90
-7.69
-10.54
-12.46
-13.36
-13.15
-11.95
-10.14
-8.30
-7.11
-7.23
-9.15
-13.08
-18.89
-25.98
-33.41
-39.85
-43.88
-44.23
-40.15
-31.62
-19.50
-5.26
9.35
22.74
33.70
41.62
46.30
47.81
46.34
42.21
35.88
28.07
19.67
11.65
4.77
-0.53
-4.23
-6.59
-7.95
-8.59
-8.65
-8.20
-7.29
-6.18
-5.31
-5.26
-6.62
-9.79
-14.85
-21.42
-28.64
-35.23
-39.74
-40.88
-37.84
-30.52
-19.56
-6.17
8.21
22.18
34.56
44.44
51.16
54.28
53.69
49.69
42.98
34.59
25.53
16.73
8.78
2.07
-3.21
-6.93
-9.00
-9.52
-8.70
-7.00
-4.90
-2.88
-1.37
-0.68
-1.15
-3.12
-6.85
-12.40
-19.38
-26.88
-33.56
-37.95
-38.81
-35.46
-28.02
-17.27
-4.46
9.04
21.98
33.35
42.36
48.40
51.12
50.40
46.47
39.90
31.52
22.35
13.40
5.54
-0.62
-4.85
-7.25
-8.18
-8.12
-7.48
-6.59
-5.67
-4.99
-4.86
-5.63
-7.54
-10.77
-15.29
-20.95
-27.45
-34.18
-40.24
-44.44
-45.55
-42.72
-35.79
-25.37
-12.75
0.58
13.24
24.15
32.57
37.95
39.96
38.55
34.03
27.13
18.90
10.42
2.63
-3.88
-8.84
-12.26
-14.29
-15.11
-14.92
-13.91
-12.33
-10.49
-8.79
-7.67
-7.57
-8.84
-11.72
-16.25
-22.15
-28.72
-34.78
-38.86
-39.55
-35.99
-28.16
-16.99
-4.04
9.00
20.74
30.30
37.26
41.39
42.53
40.67
36.00
29.14
21.09
13.02
5.94
0.45
-3.32
-5.66
-6.98
-7.65
-7.82
-7.50
-6.65
-5.36
-3.95
-2.99
-3.18
-5.14
-9.20
-15.21
-22.41
-29.56
-35.16
-37.80
-36.54
-31.14
-22.09
-10.44
2.46
15.25
26.72
35.96
42.34
45.47
45.29
42.04
36.32
28.96
20.96
13.27
6.65
1.55
-1.90
-3.82
-4.50
-4.29
-3.51
-2.45
-1.34
-0.41
0.06
-0.23
-1.67
-4.66
-9.51
-16.22
-24.32
-32.72
-39.84
-43.94
-43.66
-38.42
-28.64
-15.59
-1.00
13.54
26.79
37.95
46.53
52.10
54.25
52.72
47.68
39.78
30.20
20.39
11.68
4.94
0.41
-2.22
-3.61
-4.42
-5.06
-5.69
-6.23
-6.62
-6.83
-7.03
-7.49
-8.57
-10.70
-14.31
-19.61
-26.38
-33.72
-40.11
-43.70
-42.94
-37.09
-26.58
-12.81
2.27
16.77
29.27
38.97
45.54
48.94
49.19
46.40
40.83
33.09
24.12
15.16
7.38
1.66
-1.87
-3.58
-4.21
-4.42
-4.48
-4.27
-3.55
-2.27
-0.80
0.16
-0.11
-1.99
-5.45
-10.08
-15.45
-21.29
-27.41
-33.44
-38.48
-41.16
-39.97
-33.90
-23.03
-8.62
7.17
22.05
34.27
42.98
48.17
50.16
49.31
45.82
39.84
31.73
22.25
12.56
3.85
-2.88
-7.21
-9.19
-9.41
-8.62
-7.51
-6.59
-6.06
-5.95
-6.18
-6.71
-7.66
-9.28
-11.88
-15.73
-20.95
-27.33
-34.30
-40.85
-45.67
-47.47
-45.27
-38.77
-28.44
-15.42
-1.25
12.57
24.86
34.80
41.93
45.97
46.82
44.52
39.36
31.97
23.27
14.32
6.11
-0.65
-5.61
-8.77
-10.39
-10.76
-10.17
-8.84
-7.01
-5.00
-3.21
-2.07
-1.89
-2.79
-4.75
-7.67
-11.55
-16.45
-22.23
-28.41
-33.98
-37.57
-37.85
-34.08
-26.33
-15.60
-3.37
8.80
19.69
28.51
34.84
38.46
39.24
37.20
32.62
26.12
18.53
10.84
3.89
-1.76
-5.86
-8.53
-10.00
-10.56
-10.48
-9.96
-9.16
-8.25
-7.44
-6.99
-7.22
-8.44
-10.85
-14.54
-19.43
-25.17
-31.06
-36.16
-39.29
-39.39
-35.82
-28.57
-18.33
-6.30
6.16
17.77
27.57
34.92
39.46
41.04
39.69
35.70
29.65
22.27
14.47
7.10
0.85
-3.83
-6.81
-8.27
-8.57
-8.20
-7.52
-6.78
-6.05
-5.29
-4.57
-4.09
-4.28
-5.68
-8.73
-13.54
-19.63
-25.96
-31.09
-33.51
-32.15
-26.64
-17.44
-5.75
6.98
19.32
30.15
38.72
44.55
47.32
46.87
43.27
36.97
28.83
20.00
11.61
4.57
-0.69
-4.21
-6.30
-7.37
-7.78
-7.75
-7.44
-6.98
-6.58
-6.48
-6.95
-8.25
-10.62
-14.26
-19.28
-25.59
-32.67
-39.50
-44.75
-46.97
-45.12
-38.87
-28.78
-16.09
-2.37
10.92
22.61
32.04
38.80
42.71
43.69
41.77
37.16
30.38
22.27
13.87
6.28
0.33
-3.56
-5.48
-5.90
-5.42
-4.60
-3.75
-3.03
-2.50
-2.24
-2.48
-3.58
-5.96
-10.03
-15.96
-23.53
-31.91
-39.77
-45.47
-47.50
-44.91
-37.63
-26.46
-12.88
1.42
14.83
26.14
34.58
39.80
41.78
40.72
36.96
31.01
23.52
15.35
7.44
0.70
-4.22
-7.09
-8.13
-7.90
-7.07
-6.25
-5.78
-5.76
-6.17
-6.98
-8.19
-9.98
-12.57
-16.23
-21.14
-27.23
-34.09
-40.83
-46.21
-48.85
-47.63
-42.03
-32.30
-19.46
-4.98
9.57
22.79
33.71
41.69
46.40
47.72
45.80
40.96
33.84
25.29
16.29
7.87
0.93
-3.99
-6.69
-7.40
-6.65
-5.08
-3.26
-1.57
-0.19
0.84
1.41
1.40
0.52
-1.50
-4.91
-9.79
-16.02
-23.19
-30.52
-36.93
-41.14
-41.97
-38.67
-31.16
-20.07
-6.67
7.49
20.86
32.19
40.62
45.76
47.59
46.41
42.71
37.09
30.26
23.01
16.23
10.75
7.16
5.61
5.77
6.94
8.35
9.45
10.05
10.22
10.09
9.64
8.65
6.77
3.74
-0.55
-6.04
-12.53
-19.72
-27.09
-33.84
-38.89
-41.06
-39.35
-33.38
-23.52
-10.82
3.22
17.08
29.46
39.48
46.61
50.55
51.21
48.71
43.39
35.94
27.31
18.58
10.74
4.46
-0.01
-2.83
-4.44
-5.30
-5.80
-6.04
-6.01
-5.61
-4.90
-4.15
-3.90
-4.80
-7.42
-12.03
-18.42
-25.72
-32.61
-37.58
-39.32
-37.10
-30.91
-21.41
-9.70
2.98
15.43
26.60
35.57
41.65
44.39
43.71
39.96
33.87
26.38
18.54
11.24
5.16
0.64
-2.29
-3.84
-4.34
-4.16
-3.55
-2.72
-1.84
-1.09
-0.72
-1.05
-2.45
-5.23
-9.66
-15.77
-23.25
-31.32
-38.70
-43.86
-45.42
-42.49
-35.05
-23.97
-10.70
3.11
16.03
26.98
35.32
40.61
42.62
41.31
36.97
30.29
22.29
14.17
6.97
1.39
-2.35
-4.49
-5.53
-6.03
-6.36
-6.56
-6.55
-6.18
-5.49
-4.82
-4.77
-5.93
-8.75
-13.35
-19.62
-27.12
-35.12
-42.53
-47.93
-49.79
-46.90
-38.91
-26.56
-11.56
3.95
18.10
29.71
38.39
44.17
47.13
47.07
43.77
37.29
28.32
18.18
8.51
0.75
-4.34
-6.99
-8.02
-8.40
-8.74
-9.06
-8.96
-8.04
-6.29
-4.35
-3.19
-3.73
-6.37
-10.94
-16.84
-23.43
-30.16
-36.59
-42.11
-45.79
-46.45
-43.00
-35.04
-23.07
-8.44
6.95
21.28
33.14
41.80
47.04
49.01
47.97
44.37
38.68
31.53
23.67
15.93
9.10
3.72
0.06
-1.94
-2.61
-2.45
-1.94
-1.43
-1.11
-1.05
-1.28
-1.87
-3.09
-5.22
-8.61
-13.48
-19.73
-26.96
-34.29
-40.54
-44.40
-44.75
-40.93
-33.02
-21.75
-8.43
5.41
18.34
29.19
37.20
41.95
43.31
41.41
36.60
29.49
20.93
11.95
3.59
-3.29
-8.23
-11.15
-12.42
-12.57
-12.09
-11.30
-10.31
-9.12
-7.83
-6.67
-6.09
-6.51
-8.28
-11.52
-16.16
-21.81
-27.85
-33.38
-37.33
-38.63
-36.47
-30.56
-21.22
-9.40
3.54
16.20
27.38
36.25
42.38
45.65
46.11
43.94
39.43
33.01
25.39
17.40
9.99
3.91
-0.46
-3.13
-4.47
-4.92
-4.86
-4.50
-3.86
-3.01
-2.16
-1.72
-2.30
-4.43
-8.48
-14.45
-21.81
-29.67
-36.70
-41.51
-42.87
-40.10
-33.22
-22.94
-10.48
2.80
15.62
26.95
36.04
42.35
45.52
45.45
42.30
36.57
29.05
20.74
12.66
5.69
0.43
-2.95
-4.65
-5.13
-4.94
-4.49
-3.98
-3.41
-2.72
-1.92
-1.21
-1.04
-1.96
-4.58
-9.23
-15.83
-23.68
-31.51
-37.66
-40.53
-38.98
-32.75
-22.48
-9.55
4.33
17.58
29.01
37.91
43.90
46.82
46.58
43.28
37.30
29.42
20.76
12.49
5.61
0.62
-2.49
-4.18
-5.04
-5.59
-6.02
-6.32
-6.31
-5.92
-5.29
-4.84
-5.16
-6.82
-10.22
-15.47
-22.30
-30.01
-37.56
-43.61
-46.81
-46.07
-40.88
-31.49
-18.89
-4.60
9.70
22.54
32.86
40.11
44.12
44.97
42.88
38.21
31.51
23.54
15.23
7.58
1.42
-2.73
-4.80
-5.18
-4.55
-3.60
-2.88
-2.62
-2.81
-3.31
-4.07
-5.20
-6.96
-9.66
-13.53
-18.63
-24.70
-31.19
-37.26
-41.79
-43.58
-41.64
-35.46
-25.27
-12.03
2.75
17.38
30.40
40.72
47.79
51.43
51.74
49.01
43.66
36.28
27.61
18.52
9.90
2.57
-2.89
-6.26
-7.65
-7.47
-6.29
-4.69
-3.05
-1.66
-0.62
0.00
0.08
-0.54
-2.10
-4.87
-9.07
-14.77
-21.69
-29.08
-35.74
-40.16
-40.93
-37.23
-29.06
-17.28
-3.34
11.10
24.55
35.96
44.63
50.25
52.71
52.07
48.59
42.70
35.05
26.43
17.74
9.80
3.28
-1.45
-4.36
-5.69
-5.90
-5.47
-4.81
-4.15
-3.56
-3.10
-2.89
-3.20
-4.41
-6.90
-10.95
-16.56
-23.36
-30.55
-37.00
-41.44
-42.71
-40.09
-33.52
-23.65
-11.69
0.90
12.82
23.04
30.96
36.23
38.72
38.40
35.36
30.07
23.22
15.82
8.87
3.22
-0.73
-3.05
-4.09
-4.30
-4.02
-3.44
-2.60
-1.59
-0.59
0.05
-0.10
-1.46
-4.35
-8.86
-14.80
-21.59
-28.33
-33.89
-37.16
-37.27
-33.80
-26.92
-17.27
-5.88
6.10
17.55
27.49
35.17
40.07
41.90
40.66
36.62
30.33
22.64
14.51
6.92
0.62
-3.99
-6.85
-8.28
-8.69
-8.54
-8.15
-7.70
-7.24
-6.80
-6.49
-6.55
-7.40
-9.57
-13.47
-19.15
-26.12
-33.26
-39.10
-42.16
-41.39
-36.49
-27.91
-16.72
-4.21
8.34
19.89
29.68
37.08
41.64
42.99
41.08
36.20
29.08
20.75
12.36
4.93
-0.86
-4.71
-6.72
-7.25
-6.73
-5.60
-4.22
-2.82
-1.59
-0.70
-0.35
-0.76
-2.22
-5.01
-9.33
-15.14
-22.07
-29.24
-35.38
-39.01
-38.92
-34.48
-25.91
-14.29
-1.08
12.23
24.47
34.86
42.78
47.69
49.09
46.70
40.75
32.15
22.29
12.72
4.56
-1.62
-5.90
-8.59
-10.01
-10.21
-9.18
-7.04
-4.24
-1.57
0.14
0.40
-0.86
-3.31
-6.56
-10.47
-15.31
-21.35
-28.50
-35.88
-41.99
-44.99
-43.53
-37.24
-26.90
-14.16
-0.82
11.66
22.47
31.29
37.97
42.24
43.55
41.47
36.01
27.92
18.66
9.96
3.21
-0.96
-2.85
-3.40
-3.59
-3.99
-4.56
-4.88
-4.54
-3.47
-2.16
-1.36
-1.86
-4.11
-8.18
-13.73
-20.12
-26.48
-31.78
-34.95
-35.11
-31.72
-24.82
-15.02
-3.36
8.94
20.65
30.71
38.31
42.91
44.30
42.54
38.01
31.34
23.37
15.06
7.34
0.97
-3.60
-6.31
-7.47
-7.52
-6.95
-6.12
-5.21
-4.35
-3.66
-3.35
-3.65
-4.88
-7.32
-11.21
-16.68
-23.54
-31.17
-38.48
-44.06
-46.45
-44.58
-38.10
-27.53
-14.19
0.18
13.82
25.35
33.97
39.39
41.74
41.24
38.17
32.88
25.87
17.89
9.95
3.00
-2.20
-5.38
-6.68
-6.63
-5.82
-4.76
-3.77
-2.98
-2.40
-2.09
-2.16
-2.89
-4.61
-7.68
-12.30
-18.45
-25.79
-33.61
-40.89
-46.39
-48.82
-47.25
-41.28
-31.29
-18.38
-4.10
9.91
22.34
32.32
39.40
43.47
44.49
42.53
37.82
30.89
22.53
13.80
5.80
-0.56
-4.80
-6.90
-7.30
-6.64
-5.62
-4.67
-3.97
-3.47
-3.05
-2.70
-2.58
-3.05
-4.48
-7.25
-11.55
-17.33
-24.21
-31.42
-37.86
-42.21
-43.26
-40.22
-33.03
-22.32
-9.31
4.52
17.78
29.37
38.49
44.72
47.86
47.93
45.16
39.99
33.07
25.13
17.01
9.47
3.18
-1.41
-4.15
-5.22
-5.06
-4.21
-3.22
-2.44
-2.06
-2.12
-2.71
-3.98
-6.19
-9.65
-14.56
-20.84
-28.04
-35.31
-41.55
-45.50
-46.13
-42.79
-35.46
-24.73
-11.73
2.21
15.70
27.58
36.97
43.29
46.23
45.76
42.14
35.92
27.95
19.27
10.99
4.04
-1.02
-4.07
-5.44
-5.64
-5.17
-4.39
-3.45
-2.42
-1.46
-0.87
-1.06
-2.45
-5.37
-9.88
-15.86
-22.88
-30.22
-36.80
-41.34
-42.56
-39.56
-32.12
-20.91
-7.31
6.97
20.34
31.67
40.36
46.13
48.87
48.47
44.89
38.34
29.48
19.44
9.61
1.24
-4.83
-8.42
-9.89
-9.92
-9.15
-7.98
-6.59
-5.01
-3.36
-1.93
-1.20
-1.71
-3.89
-7.96
-13.86
-21.18
-29.14
-36.57
-42.03
-44.00
-41.34
-33.68
-21.56
-6.46
9.68
24.90
37.67
47.10
52.92
55.20
54.18
50.17
43.60
35.16
25.77
16.53
8.49
2.35
-1.71
-3.94
-4.87
-5.03
-4.81
-4.37
-3.80
-3.19
-2.76
-2.83
-3.75
-5.81
-9.28
-14.29
-20.69
-27.99
-35.15
-40.74
-43.18
-41.18
-34.26
-22.87
-8.34
7.50
22.82
36.11
46.47
53.40
56.70
56.36
52.53
45.67
36.64
26.65
17.01
8.89
2.92
-0.78
-2.62
-3.18
-3.03
-2.52
-1.85
-1.08
-0.30
0.27
0.38
-0.32
-2.20
-5.61
-10.83
-17.86
-26.35
-35.30
-43.23
-48.41
-49.24
-44.89
-35.50
-22.25
-6.91
8.60
22.69
34.34
43.05
48.59
50.80
49.64
45.22
38.03
28.99
19.34
10.45
3.41
-1.21
-3.45
-3.85
-3.23
-2.30
-1.52
-1.04
-0.75
-0.57
-0.49
-0.76
-1.75
-3.91
-7.63
-13.05
-20.05
-28.12
-36.34
-43.48
-48.21
-49.35
-46.19
-38.67
-27.41
-13.57
1.32
15.76
28.38
38.15
44.45
47.05
46.13
42.16
35.88
28.18
19.99
12.18
5.50
0.49
-2.60
-3.81
-3.48
-2.18
-0.52
0.93
1.85
2.11
1.77
0.84
-0.71
-3.04
-6.38
-10.89
-16.53
-23.00
-29.73
-35.89
-40.49
-42.46
-40.97
-35.58
-26.38
-14.18
-0.22
13.92
26.76
37.09
44.15
47.62
47.55
44.30
38.41
30.58
21.65
12.47
3.86
-3.44
-9.00
-12.68
-14.69
-15.45
-15.45
-15.05
-14.44
-13.66
-12.74
-11.88
-11.41
-11.77
-13.41
-16.56
-21.20
-26.88
-32.85
-38.08
-41.46
-41.99
-38.97
-32.26
-22.25
-9.90
3.51
16.50
27.76
36.33
41.72
43.92
43.20
40.02
34.81
27.92
19.78
11.04
2.62
-4.43
-9.22
-11.39
-11.21
-9.60
-7.59
-5.94
-4.85
-4.01
-2.97
-1.62
-0.38
-0.28
-2.36
-7.13
-14.18
-22.06
-28.75
-32.28
-31.36
-25.82
-16.44
-4.61
8.22
20.84
32.38
42.19
49.66
54.13
55.04
52.21
45.94
37.09
26.91
16.75
7.79
0.82
-3.89
-6.51
-7.53
-7.55
-7.09
-6.42
-5.58
-4.52
-3.27
-2.08
-1.44
-2.04
-4.47
-9.07
-15.73
-23.80
-32.12
-39.23
-43.58
-43.90
-39.59
-30.78
-18.41
-4.00
10.78
24.35
35.61
43.88
48.86
50.48
48.83
44.21
37.14
28.45
19.22
10.54
3.27
-2.17
-5.88
-8.28
-9.90
-11.15
-12.15
-12.86
-13.15
-12.97
-12.51
-12.17
-12.61
-14.54
-18.58
-24.91
-33.07
-41.81
-49.33
-53.74
-53.62
-48.45
-38.76
-25.85
-11.26
3.49
17.27
29.23
38.69
45.07
47.88
46.95
42.46
35.11
25.96
16.26
7.23
-0.22
-5.62
-8.96
-10.54
-10.82
-10.20
-9.00
-7.42
-5.71
-4.18
-3.20
-3.13
-4.27
-6.81
-10.84
-16.37
-23.23
-30.88
-38.34
-44.25
-47.10
-45.74
-39.67
-29.31
-15.80
-0.70
14.37
28.02
39.24
47.33
51.86
52.67
49.87
43.90
35.57
25.89
16.01
6.94
-0.58
-6.11
-9.59
-11.25
-11.52
-10.91
-9.91
-8.89
-8.12
-7.76
-7.94
-8.89
-10.87
-14.20
-19.12
-25.60
-33.22
-41.08
-47.95
-52.45
-53.38
-50.00
-42.25
-30.72
-16.59
-1.30
13.66
26.92
37.40
44.30
47.27
46.38
42.11
35.27
26.81
17.72
8.84
0.90
-5.57
-10.19
-12.83
-13.62
-12.93
-11.26
-9.12
-6.95
-5.06
-3.72
-3.19
-3.77
-5.81
-9.55
-15.04
-21.93
-29.38
-36.11
-40.66
-41.70
-38.46
-30.93
-19.90
-6.63
7.42
20.98
33.02
42.79
49.67
53.19
53.07
49.40
42.70
33.96
24.42
15.34
7.66
1.87
-1.94
-4.02
-4.70
-4.31
-3.11
-1.43
0.33
1.67
2.15
1.45
-0.60
-4.06
-8.91
-15.01
-21.95
-28.95
-34.78
-37.99
-37.34
-32.20
-22.82
-10.26
3.92
18.05
30.76
41.03
48.25
52.05
52.37
49.37
43.53
35.63
26.72
17.97
10.40
4.70
1.07
-0.75
-1.30
-1.11
-0.57
0.16
1.02
1.87
2.38
2.02
0.26
-3.29
-8.68
-15.66
-23.61
-31.69
-38.74
-43.48
-44.70
-41.53
-33.74
-21.87
-7.17
8.65
23.86
36.98
47.02
53.47
56.24
55.45
51.40
44.55
35.58
25.48
15.42
6.63
0.07
-3.90
-5.51
-5.48
-4.73
-3.93
-3.35
-2.99
-2.75
-2.66
-3.01
-4.28
-6.97
-11.33
-17.31
-24.50
-32.14
-39.19
-44.47
-46.83
-45.37
-39.70
-30.04
-17.30
-2.90
11.62
24.78
35.49
43.11
47.36
48.23
45.84
40.46
32.64
23.24
13.43
4.48
-2.57
-7.17
-9.33
-9.57
-8.63
-7.24
-5.88
-4.84
-4.16
-3.82
-3.83
-4.30
-5.45
-7.59
-11.03
-15.99
-22.46
-29.98
-37.70
-44.36
-48.46
-48.65
-44.01
-34.48
-20.89
-4.87
11.54
26.43
38.38
46.60
50.89
51.45
48.68
43.13
35.52
26.71
17.63
9.16
2.06
-3.18
-6.40
-7.80
-7.87
-7.25
-6.49
-5.90
-5.46
-4.99
-4.38
-3.78
-3.64
-4.59
-7.18
-11.65
-17.88
-25.35
-33.22
-40.43
-45.77
-48.07
-46.41
-40.40
-30.39
-17.46
-3.23
10.52
22.32
31.26
37.03
39.77
39.75
37.20
32.33
25.42
17.08
8.21
-0.08
-6.84
-11.51
-14.05
-14.85
-14.48
-13.49
-12.21
-10.78
-9.20
-7.53
-5.96
-4.86
-4.69
-5.86
-8.66
-13.09
-18.84
-25.25
-31.35
-36.01
-38.09
-36.69
-31.42
-22.49
-10.76
2.48
15.78
27.80
37.57
44.51
48.34
49.06
46.81
41.91
34.84
26.29
17.14
8.37
0.85
-4.83
-8.37
-9.92
-9.85
-8.68
-6.89
-4.87
-2.89
-1.11
0.19
0.61
-0.36
-3.15
-8.00
-14.65
-22.29
-29.66
-35.33
-38.09
-37.15
-32.35
-24.07
-13.11
-0.45
12.85
25.68
36.90
45.44
50.47
51.59
49.03
43.53
36.14
27.89
19.47
11.35
3.83
-2.69
-7.72
-10.85
-11.97
-11.40
-9.92
-8.38
-7.39
-7.17
-7.59
-8.44
-9.72
-11.69
-14.87
-19.69
-26.19
-33.74
-41.11
-46.66
-48.80
-46.42
-39.34
-28.24
-14.46
0.37
14.79
27.67
38.30
46.26
51.23
52.98
51.41
46.69
39.33
30.26
20.61
11.62
4.20
-1.11
-4.33
-5.87
-6.32
-6.15
-5.67
-4.99
-4.22
-3.51
-3.15
-3.45
-4.74
-7.22
-11.08
-16.38
-22.99
-30.53
-38.18
-44.76
-48.85
-49.19
-45.01
-36.30
-23.88
-9.16
6.19
20.56
32.72
41.84
47.50
49.56
48.13
43.52
36.30
27.34
17.72
8.58
0.91
-4.68
-8.05
-9.45
-9.39
-8.43
-7.06
-5.60
-4.26
-3.23
-2.67
-2.82
-3.92
-6.22
-9.90
-15.06
-21.62
-29.18
-36.94
-43.67
-47.90
-48.29
-44.00
-35.03
-22.27
-7.27
8.11
22.17
33.72
42.05
46.93
48.42
46.73
42.24
35.43
26.95
17.62
8.33
0.01
-6.61
-11.09
-13.34
-13.66
-12.61
-10.83
-8.93
-7.23
-5.91
-4.98
-4.42
-4.35
-5.03
-6.84
-10.14
-15.10
-21.46
-28.46
-34.83
-39.01
-39.58
-35.65
-27.21
-15.12
-0.81
14.08
28.22
40.71
51.07
59.01
64.28
66.73
66.32
63.31
58.31
52.09
45.53
39.34
34.01
29.75
26.51
24.16
22.49
21.39
20.73
20.34
19.99
19.32
17.85
15.14
10.86
4.90
-2.57
-11.11
-19.92
-27.91
-33.82
-36.54
-35.33
-30.13
-21.67
-11.22
-0.32
9.67
17.81
23.66
27.16
28.46
27.71
25.06
20.69
15.02
8.68
2.48
-2.79
-6.67
-9.14
-10.58
-11.57
-12.52
-13.55
-14.44
-14.91
-14.83
-14.52
-14.65
-16.09
-19.52
-25.17
-32.64
-40.91
-48.59
-54.21
-56.59
-55.14
-49.97
-41.81
-31.82
-21.29
-11.37
-3.03
3.01
6.25
6.38
3.42
-2.25
-9.86
-18.36
-26.63
-33.68
-38.85
-41.85
-42.73
-41.80
-39.52
-36.35
-32.77
-29.14
-25.82
-23.11
-21.26
-20.52
-21.08
-23.07
-26.52
-31.24
-36.64
-41.70
-45.07
-45.31
-41.40
-33.06
-20.97
-6.56
8.35
22.12
33.58
42.23
48.02
51.11
51.67
49.82
45.80
40.06
33.38
26.70
20.85
16.40
13.45
11.72
10.78
10.28
10.06
10.20
10.83
11.99
13.47
14.75
15.12
13.86
10.47
4.91
-2.29
-10.03
-16.84
-21.14
-21.66
-17.74
-9.54
1.93
15.06
28.09
39.55
48.54
54.75
58.19
59.01
57.23
52.84
46.02
37.28
27.53
17.83
9.17
2.13
-3.14
-6.85
-9.29
-10.74
-11.27
-10.90
-9.69
-7.85
-5.87
-4.46
-4.41
-6.34
-10.47
-16.49
-23.45
-29.98
-34.54
-35.84
-33.13
-26.43
-16.44
-4.41
8.23
20.15
30.34
38.14
43.15
45.19
44.20
40.37
34.18
26.47
18.27
10.64
4.27
-0.64
-4.31
-7.25
-9.84
-12.21
-14.17
-15.42
-15.79
-15.47
-14.98
-15.11
-16.59
-19.93
-25.13
-31.64
-38.35
-43.74
-46.25
-44.67
-38.52
-28.21
-14.97
-0.52
13.44
25.52
34.86
41.08
44.17
44.28
41.73
36.97
30.61
23.36
15.93
8.87
2.57
-2.77
-7.04
-10.15
-12.08
-12.82
-12.50
-11.39
-9.87
-8.43
-7.58
-7.84
-9.59
-13.00
-17.82
-23.26
-28.07
-30.73
-29.84
-24.66
-15.32
-2.92
10.84
24.11
35.38
43.69
48.74
50.66
49.76
46.44
41.11
34.25
26.52
18.63
11.28
4.94
-0.18
-4.16
-7.19
-9.45
-10.98
-11.75
-11.73
-11.14
-10.50
-10.59
-12.23
-15.94
-21.70
-28.67
-35.42
-40.16
-41.29
-37.84
-29.74
-17.85
-3.67
11.07
24.83
36.46
45.25
50.82
53.06
52.08
48.22
42.14
34.70
26.73
18.96
11.79
5.35
-0.32
-5.14
-8.94
-11.52
-12.90
-13.30
-13.21
-13.25
-14.01
-15.94
-19.34
-24.34
-30.81
-38.22
-45.47
-51.02
-53.12
-50.45
-42.61
-30.29
-15.33
0.08
13.90
24.84
32.46
36.99
38.89
38.53
35.98
31.27
24.71
17.09
9.52
3.13
-1.38
-4.00
-5.45
-6.68
-8.33
-10.45
-12.50
-13.74
-13.76
-12.84
-11.99
-12.52
-15.38
-20.74
-27.68
-34.45
-39.01
-39.63
-35.46
-26.72
-14.50
-0.43
13.85
26.96
37.96
46.28
51.52
53.43
51.88
47.05
39.60
30.63
21.49
13.42
7.17
2.83
-0.01
-2.04
-3.78
-5.41
-6.71
-7.29
-6.94
-5.82
-4.51
-3.91
-4.91
-8.12
-13.62
-20.80
-28.45
-35.04
-38.98
-39.07
-34.77
-26.36
-14.79
-1.48
12.01
24.33
34.43
41.62
45.60
46.37
44.19
39.54
33.15
25.78
18.25
11.21
5.10
0.09
-3.85
-6.83
-8.98
-10.39
-11.08
-11.11
-10.63
-9.95
-9.47
-9.69
-11.10
-14.06
-18.71
-24.86
-31.83
-38.45
-43.19
-44.60
-41.63
-34.09
-22.68
-8.88
5.56
19.02
30.33
38.88
44.49
47.13
46.90
43.89
38.41
31.05
22.73
14.52
7.37
1.77
-2.28
-5.22
-7.60
-9.77
-11.73
-13.15
-13.74
-13.44
-12.57
-11.72
-11.65
-12.97
-16.04
-20.84
-27.01
-33.74
-39.91
-44.22
-45.49
-42.89
-36.27
-26.12
-13.55
-0.01
12.98
24.07
32.28
37.08
38.42
36.69
32.52
26.67
19.90
12.84
6.08
0.01
-5.05
-8.98
-11.80
-13.66
-14.74
-15.17
-15.02
-14.31
-13.16
-11.79
-10.67
-10.37
-11.47
-14.34
-19.00
-24.89
-30.94
-35.70
-37.72
-35.95
-30.08
-20.63
-8.83
3.86
16.06
26.79
35.42
41.62
45.11
45.67
43.27
38.16
31.00
22.82
14.68
7.40
1.38
-3.44
-7.38
-10.72
-13.49
-15.45
-16.29
-15.83
-14.28
-12.16
-10.28
-9.47
-10.37
-13.27
-17.96
-23.79
-29.65
-34.24
-36.27
-34.79
-29.44
-20.55
-9.05
3.68
16.20
27.21
35.78
41.41
43.94
43.51
40.49
35.40
28.90
21.75
14.69
8.35
3.14
-0.79
-3.47
-5.06
-5.68
-5.49
-4.62
-3.25
-1.69
-0.33
0.29
-0.38
-2.82
-7.24
-13.41
-20.45
-26.96
-31.23
-31.74
-27.68
-19.21
-7.43
5.97
19.29
31.14
40.71
47.61
51.69
52.84
51.03
46.42
39.51
31.20
22.60
14.75
8.34
3.56
0.17
-2.27
-4.19
-5.77
-7.02
-7.81
-8.15
-8.25
-8.55
-9.63
-12.03
-16.13
-21.97
-29.18
-36.88
-43.76
-48.32
-49.20
-45.63
-37.62
-26.09
-12.52
1.44
14.37
25.31
33.77
39.51
42.44
42.54
39.93
35.00
28.48
21.34
14.55
8.83
4.48
1.34
-1.00
-2.92
-4.59
-5.92
-6.69
-6.77
-6.27
-5.62
-5.53
-6.71
-9.72
-14.70
-21.29
-28.60
-35.35
-40.12
-41.65
-39.19
-32.63
-22.59
-10.23
3.06
15.91
27.19
36.07
42.04
44.87
44.57
41.43
35.98
28.92
21.04
13.12
5.85
-0.26
-4.98
-8.32
-10.51
-11.83
-12.48
-12.56
-12.07
-11.07
-9.82
-8.79
-8.56
-9.67
-12.41
-16.79
-22.48
-28.79
-34.70
-38.95
-40.33
-37.97
-31.66
-21.97
-10.11
2.39
14.11
23.98
31.34
35.92
37.68
36.69
33.17
27.54
20.43
12.67
5.16
-1.28
-6.19
-9.45
-11.31
-12.18
-12.38
-12.07
-11.21
-9.81
-8.02
-6.23
-4.99
-4.90
-6.42
-9.70
-14.49
-20.13
-25.54
-29.43
-30.61
-28.23
-22.08
-12.68
-1.13
11.17
22.89
32.93
40.59
45.43
47.27
46.13
42.26
36.20
28.75
20.78
13.11
6.37
0.87
-3.36
-6.39
-8.35
-9.33
-9.38
-8.55
-7.05
-5.23
-3.64
-2.82
-3.31
-5.47
-9.41
-14.95
-21.54
-28.29
-33.98
-37.30
-37.14
-32.93
-24.87
-13.91
-1.57
10.56
21.21
29.58
35.31
38.31
38.60
36.25
31.57
25.18
18.02
11.12
5.35
1.12
-1.65
-3.35
-4.45
-5.21
-5.67
-5.68
-5.13
-4.13
-3.08
-2.56
-3.20
-5.51
-9.72
-15.74
-23.03
-30.78
-37.77
-42.69
-44.36
-42.03
-35.52
-25.42
-12.88
0.45
12.93
23.21
30.46
34.54
35.79
34.75
31.93
27.48
21.50
14.25
6.38
-1.05
-6.90
-10.49
-11.83
-11.70
-11.16
-10.99
-11.31
-11.66
-11.41
-10.25
-8.56
-7.39
-7.98
-11.17
-16.97
-24.49
-32.16
-38.24
-41.24
-40.33
-35.39
-26.94
-15.90
-3.41
9.42
21.54
32.05
40.18
45.37
47.33
46.13
42.22
36.31
29.27
21.98
15.14
9.28
4.69
1.51
-0.32
-1.01
-0.89
-0.29
0.46
1.09
1.45
1.33
0.59
-0.93
-3.33
-6.67
-10.95
-16.12
-21.98
-27.97
-33.22
-36.50
-36.61
-32.65
-24.53
-12.99
0.56
14.46
27.23
37.86
45.86
51.07
53.50
53.20
50.35
45.28
38.55
30.96
23.39
16.72
11.59
8.28
6.73
6.56
7.21
8.15
9.03
9.65
10.01
10.11
9.88
9.03
7.22
4.05
-0.72
-7.05
-14.50
-22.24
-29.22
-34.25
-36.35
-34.93
-29.96
-21.96
-11.89
-0.97
9.56
18.61
25.32
29.15
29.89
27.66
22.89
16.26
8.61
0.82
-6.31
-12.20
-16.53
-19.27
-20.62
-20.86
-20.28
-19.11
-17.50
-15.58
-13.48
-11.46
-9.83
-9.04
-9.56
-11.80
-15.90
-21.59
-28.00
-33.74
-37.22
-37.07
-32.60
-24.02
-12.40
0.72
13.74
25.39
34.90
41.89
46.22
47.83
46.70
42.93
36.90
29.29
21.00
12.99
6.05
0.63
-3.21
-5.73
-7.29
-8.27
-8.87
-9.18
-9.20
-9.08
-9.09
-9.67
-11.36
-14.63
-19.74
-26.56
-34.46
-42.32
-48.69
-52.03
-51.15
-45.51
-35.42
-21.99
-6.84
8.23
21.67
32.37
39.76
43.76
44.59
42.65
38.38
32.26
24.85
16.80
8.87
1.82
-3.78
-7.66
-9.91
-10.88
-11.07
-10.92
-10.72
-10.58
-10.56
-10.69
-11.17
-12.34
-14.67
-18.60
-24.29
-31.37
-38.89
-45.40
-49.31
-49.28
-44.68
-35.67
-23.21
-8.71
6.26
20.26
32.19
41.32
47.23
49.81
49.20
45.77
40.08
32.90
25.08
17.46
10.68
5.14
0.94
-2.09
-4.20
-5.65
-6.58
-7.05
-7.07
-6.70
-6.09
-5.53
-5.41
-6.26
-8.56
-12.66
-18.57
-25.79
-33.23
-39.35
-42.52
-41.45
-35.60
-25.43
-12.19
2.33
16.44
28.78
38.60
45.58
49.69
51.05
49.78
46.12
40.48
33.49
25.95
18.68
12.36
7.34
3.68
1.16
-0.55
-1.78
-2.72
-3.47
-4.07
-4.58
-5.13
-5.97
-7.38
-9.70
-13.19
-18.03
-24.15
-31.16
-38.26
-44.29
-47.90
-47.95
-43.78
-35.55
-24.07
-10.72
3.00
15.75
26.55
34.79
40.15
42.50
41.89
38.51
32.84
25.58
17.67
10.11
3.72
-1.01
-4.01
-5.59
-6.24
-6.39
-6.30
-6.07
-5.71
-5.28
-4.95
-4.99
-5.75
-7.54
-10.56
-14.95
-20.52
-26.79
-32.84
-37.48
-39.49
-37.98
-32.66
-23.94
-12.81
-0.59
11.37
21.95
30.33
36.02
38.85
38.89
36.43
31.90
25.92
19.15
12.33
6.08
0.91
-2.92
-5.41
-6.78
-7.29
-7.21
-6.72
-5.91
-4.83
-3.66
-2.71
-2.44
-3.37
-5.97
-10.46
-16.66
-23.85
-30.82
-36.00
-37.93
-35.65
-29.05
-18.92
-6.66
6.15
18.21
28.66
37.08
43.19
46.73
47.42
45.15
40.21
33.38
25.71
18.21
11.64
6.28
2.06
-1.29
-3.99
-6.16
-7.81
-8.94
-9.58
-9.88
-10.09
-10.49
-11.40
-13.17
-16.13
-20.54
-26.37
-33.16
-39.93
-45.23
-47.50
-45.57
-38.97
-28.24
-14.71
-0.15
13.74
25.69
34.97
41.31
44.73
45.33
43.31
38.99
32.91
25.81
18.55
11.93
6.50
2.54
0.05
-1.14
-1.24
-0.48
0.92
2.65
4.35
5.63
6.05
5.38
3.48
0.34
-4.08
-9.82
-16.87
-24.91
-33.09
-40.06
-44.12
-43.79
-38.30
-27.98
-14.16
1.11
15.74
28.05
37.08
42.64
45.02
44.69
42.08
37.46
31.12
23.39
14.94
6.64
-0.57
-6.14
-9.93
-12.23
-13.55
-14.22
-14.30
-13.67
-12.25
-10.41
-8.84
-8.33
-9.42
-12.18
-16.23
-21.06
-26.25
-31.63
-36.85
-41.22
-43.53
-42.32
-36.47
-25.83
-11.45
4.50
19.57
31.80
40.32
45.33
47.68
48.19
47.19
44.34
39.16
31.53
22.11
12.29
3.78
-2.15
-5.06
-5.49
-4.59
-3.50
-2.91
-2.85
-2.93
-2.76
-2.14
-1.44
-1.24
-2.18
-4.66
-8.77
-14.24
-20.62
-27.20
-33.14
-37.44
-39.08
-37.19
-31.36
-21.86
-9.58
4.07
17.52
29.41
38.75
45.08
48.36
48.77
46.63
42.37
36.47
29.57
22.39
15.63
9.87
5.40
2.26
0.29
-0.75
-1.09
-0.96
-0.56
-0.13
0.10
-0.07
-0.81
-2.23
-4.40
-7.45
-11.53
-16.69
-22.81
-29.35
-35.36
-39.59
-40.82
-38.25
-31.82
-22.25
-10.82
1.02
12.07
21.49
28.87
34.02
36.83
37.16
34.99
30.54
24.38
17.32
10.30
4.12
-0.76
-4.20
-6.37
-7.54
-7.95
-7.78
-7.20
-6.34
-5.38
-4.54
-4.02
-4.07
-4.91
-6.79
-9.92
-14.37
-19.91
-25.95
-31.46
-35.25
-36.11
-33.26
-26.55
-16.54
-4.40
8.42
20.52
30.81
38.59
43.50
45.39
44.31
40.53
34.56
27.23
19.53
12.39
6.47
2.02
-1.11
-3.32
-5.09
-6.76
-8.42
-9.88
-10.90
-11.25
-11.01
-10.55
-10.54
-11.70
-14.60
-19.37
-25.64
-32.44
-38.45
-42.25
-42.64
-38.98
-31.40
-20.75
-8.34
4.36
16.08
25.87
33.20
37.81
39.68
38.99
36.02
31.23
25.17
18.45
11.71
5.53
0.34
-3.61
-6.35
-8.07
-9.10
-9.70
-10.02
-10.04
-9.75
-9.19
-8.63
-8.57
-9.57
-12.15
-16.55
-22.62
-29.67
-36.55
-41.88
-44.26
-42.71
-37.01
-27.74
-16.13
-3.72
8.17
18.62
27.22
33.83
38.31
40.40
39.83
36.59
31.12
24.31
17.24
10.87
5.79
2.12
-0.32
-1.83
-2.64
-2.87
-2.60
-1.96
-1.16
-0.49
-0.32
-0.96
-2.70
-5.74
-10.21
-16.14
-23.25
-30.97
-38.28
-43.87
-46.34
-44.64
-38.39
-28.12
-15.11
-1.06
12.36
23.91
32.95
39.32
43.08
44.37
43.27
39.92
34.68
28.15
21.14
14.47
8.70
4.14
0.78
-1.53
-2.98
-3.69
-3.76
-3.31
-2.55
-1.81
-1.48
-1.96
-3.50
-6.21
-10.02
-14.75
-20.08
-25.68
-31.02
-35.29
-37.56
-36.79
-32.33
-24.10
-12.79
0.33
13.74
26.08
36.38
44.11
49.02
51.05
50.26
46.81
41.09
33.71
25.43
17.09
9.39
2.86
-2.22
-5.77
-7.88
-8.75
-8.66
-7.88
-6.73
-5.48
-4.36
-3.62
-3.47
-4.15
-5.92
-9.01
-13.52
-19.22
-25.47
-31.23
-35.22
-36.29
-33.74
-27.56
-18.42
-7.52
3.78
14.26
22.99
29.44
33.32
34.54
33.16
29.38
23.66
16.65
9.13
1.89
-4.48
-9.60
-13.33
-15.67
-16.67
-16.45
-15.16
-13.04
-10.44
-7.76
-5.38
-3.67
-3.00
-3.71
-6.13
-10.39
-16.21
-22.85
-29.04
-33.38
-34.64
-32.15
-26.00
-16.97
-6.25
4.92
15.54
24.89
32.55
38.16
41.44
42.18
40.33
36.18
30.43
23.99
17.82
12.62
8.67
5.90
3.96
2.56
1.58
1.06
1.11
1.71
2.63
3.41
3.49
2.27
-0.66
-5.50
-12.08
-19.86
-27.88
-34.86
-39.46
-40.49
-37.31
-29.95
-19.26
-6.63
6.29
18.05
27.69
34.79
39.41
41.70
41.79
39.68
35.44
29.39
22.23
14.92
8.43
3.48
0.25
-1.55
-2.47
-3.09
-3.70
-4.34
-4.81
-4.93
-4.75
-4.60
-5.08
-6.87
-10.45
-15.90
-22.79
-30.20
-36.87
-41.47
-42.85
-40.34
-33.92
-24.18
-12.26
0.46
12.61
23.06
31.04
36.14
38.31
37.71
34.69
29.73
23.42
16.50
9.71
3.74
-0.97
-4.23
-6.22
-7.27
-7.77
-8.00
-8.04
-7.84
-7.33
-6.54
-5.80
-5.61
-6.62
-9.40
-14.15
-20.51
-27.59
-34.04
-38.56
-40.09
-38.10
-32.57
-23.90
-12.80
-0.21
12.71
24.61
34.19
40.46
42.94
41.85
37.92
32.15
25.57
18.83
12.44
6.71
1.97
-1.46
-3.28
-3.47
-2.32
-0.52
1.15
2.11
2.17
1.60
0.84
0.14
-0.69
-2.44
-6.04
-12.16
-20.58
-30.14
-38.94
-44.95
-46.62
-43.40
-35.71
-24.70
-11.79
1.69
14.63
26.18
35.65
42.43
46.15
46.70
44.40
39.91
34.09
27.72
21.50
15.77
10.77
6.62
3.46
1.37
0.39
0.39
1.11
2.17
3.21
3.90
4.07
3.62
2.56
0.82
-1.66
-5.07
-9.57
-15.15
-21.41
-27.51
-32.18
-34.06
-32.14
-26.07
-16.35
-4.21
8.78
21.08
31.52
39.41
44.53
46.89
46.63
43.91
38.94
32.13
24.09
15.69
7.88
1.46
-3.14
-5.98
-7.48
-8.24
-8.78
-9.34
-9.96
-10.57
-11.15
-11.81
-12.76
-14.27
-16.56
-19.75
-23.81
-28.50
-33.27
-37.22
-39.33
-38.57
-34.36
-26.70
-16.32
-4.41
7.63
18.55
27.47
33.92
37.71
38.81
37.34
33.46
27.56
20.18
12.09
4.21
-2.62
-7.79
-11.09
-12.69
-13.11
-12.89
-12.48
-12.13
-11.93
-11.88
-12.02
-12.55
-13.75
-15.94
-19.37
-24.16
-30.16
-36.83
-43.23
-48.07
-49.94
-47.76
-41.17
-30.65
-17.48
-3.33
10.19
21.86
30.98
37.26
40.60
40.98
38.51
33.56
26.79
19.18
11.73
5.30
0.38
-2.95
-4.89
-5.80
-5.99
-5.71
-5.11
-4.37
-3.67
-3.22
-3.29
-4.10
-5.79
-8.43
-12.08
-16.75
-22.43
-28.87
-35.50
-41.27
-44.81
-44.77
-40.31
-31.44
-19.09
-4.88
9.37
22.02
32.01
38.82
42.42
42.98
40.86
36.44
30.22
22.87
15.19
8.05
2.18
-1.92
-4.19
-4.89
-4.55
-3.61
-2.41
-1.05
0.40
1.81
2.86
3.11
2.20
-0.02
-3.45
-7.85
-13.07
-19.06
-25.75
-32.80
-39.32
-43.91
-44.98
-41.36
-32.81
-20.22
-5.38
9.60
22.99
33.75
41.59
46.65
49.13
49.19
46.95
42.66
36.77
30.00
23.07
16.64
11.19
6.98
4.14
2.59
2.13
2.39
2.98
3.54
3.79
3.61
2.88
1.57
-0.44
-3.18
-6.73
-11.11
-16.34
-22.36
-28.85
-35.23
-40.52
-43.54
-43.21
-38.88
-30.54
-18.95
-5.39
8.63
21.65
32.56
40.63
45.52
47.23
46.05
42.43
36.97
30.30
23.04
15.78
9.03
3.21
-1.32
-4.36
-5.97
-6.40
-6.07
-5.48
-5.00
-4.87
-5.16
-5.93
-7.23
-9.14
-11.75
-15.08
-19.12
-23.78
-28.91
-34.26
-39.31
-43.27
-45.12
-43.89
-39.02
-30.60
-19.44
-6.91
5.47
16.37
24.96
30.90
34.22
35.20
34.17
31.44
27.32
22.12
16.20
9.99
3.98
-1.29
-5.37
-7.97
-9.07
-8.91
-7.94
-6.67
-5.51
-4.70
-4.29
-4.21
-4.40
-4.90
-5.89
-7.68
-10.63
-14.92
-20.37
-26.29
-31.56
-34.86
-35.05
-31.51
-24.39
-14.49
-3.04
8.63
19.30
28.12
34.54
38.41
39.80
39.00
36.40
32.43
27.55
22.25
17.05
12.43
8.72
6.07
4.30
3.04
1.89
0.63
-0.73
-1.91
-2.71
-3.08
-3.33
-3.95
-5.57
-8.62
-13.23
-19.15
-25.80
-32.38
-37.88
-41.24
-41.54
-38.12
-30.83
-20.18
-7.26
6.51
19.62
30.83
39.32
44.70
47.03
46.60
43.85
39.26
33.30
26.47
19.29
12.37
6.28
1.53
-1.70
-3.52
-4.32
-4.61
-4.71
-4.74
-4.57
-4.07
-3.31
-2.59
-2.46
-3.43
-5.88
-9.88
-15.21
-21.43
-27.87
-33.63
-37.66
-38.87
-36.36
-29.80
-19.58
-6.86
6.76
19.61
30.36
38.27
43.14
45.17
44.66
41.96
37.36
31.18
23.89
16.04
8.37
1.57
-3.69
-7.04
-8.45
-8.25
-7.01
-5.36
-3.84
-2.74
-2.15
-2.09
-2.61
-3.88
-6.15
-9.67
-14.54
-20.66
-27.59
-34.68
-41.02
-45.54
-47.16
-45.02
-38.72
-28.50
-15.32
-0.72
13.54
25.86
35.23
41.26
44.18
44.48
42.71
39.22
34.29
28.24
21.53
14.93
9.23
5.09
2.74
1.86
1.78
1.77
1.42
0.75
0.13
-0.08
0.22
0.55
0.20
-1.52
-4.88
-9.64
-15.21
-21.02
-26.66
-31.96
-36.61
-39.90
-40.75
-38.00
-30.99
-20.02
-6.45
7.57
19.89
29.04
34.56
36.97
37.18
36.00
33.75
30.24
25.14
18.46
10.76
3.07
-3.52
-8.28
-10.97
-11.92
-11.67
-10.70
-9.26
-7.47
-5.44
-3.45
-1.89
-1.22
-1.80
-3.82
-7.28
-12.08
-17.98
-24.59
-31.26
-37.05
-40.89
-41.81
-39.22
-33.16
-24.22
-13.41
-1.91
9.18
19.00
26.91
32.46
35.40
35.66
33.43
29.11
23.27
16.54
9.57
2.94
-2.83
-7.32
-10.24
-11.53
-11.33
-9.99
-7.95
-5.60
-3.27
-1.19
0.47
1.49
1.53
0.17
-2.97
-8.02
-14.72
-22.26
-29.30
-34.34
-36.01
-33.49
-26.80
-16.76
-4.77
7.64
19.09
28.65
35.82
40.39
42.38
41.87
39.10
34.40
28.30
21.45
14.55
8.20
2.82
-1.39
-4.45
-6.48
-7.67
-8.10
-7.85
-7.02
-5.79
-4.47
-3.48
-3.28
-4.22
-6.55
-10.35
-15.52
-21.74
-28.45
-34.79
-39.62
-41.76
-40.24
-34.63
-25.23
-13.10
0.29
13.33
24.68
33.50
39.43
42.52
43.01
41.23
37.47
32.07
25.48
18.26
11.19
4.99
0.22
-2.92
-4.60
-5.25
-5.38
-5.34
-5.25
-5.10
-4.84
-4.56
-4.55
-5.18
-6.86
-9.84
-14.18
-19.74
-26.05
-32.44
-37.85
-41.12
-41.13
-37.18
-29.20
-17.87
-4.53
9.22
21.87
32.29
39.90
44.60
46.57
46.12
43.55
39.18
33.39
26.69
19.71
13.08
7.35
2.83
-0.41
-2.48
-3.61
-4.08
-4.17
-4.13
-4.18
-4.42
-4.90
-5.71
-7.00
-9.06
-12.25
-16.89
-22.97
-30.07
-37.31
-43.53
-47.51
-48.27
-45.27
-38.50
-28.44
-16.03
-2.51
10.73
22.42
31.56
37.66
40.75
41.26
39.73
36.71
32.51
27.35
21.51
15.46
9.84
5.29
2.28
0.91
0.95
1.85
3.10
4.25
5.08
5.53
5.57
5.18
4.19
2.44
-0.29
-4.12
-9.11
-15.21
-22.19
-29.60
-36.64
-42.23
-45.14
-44.31
-39.16
-29.89
-17.41
-3.22
11.04
23.94
34.48
42.14
46.81
48.61
47.75
44.52
39.28
32.54
24.97
17.31
10.30
4.53
0.36
-2.13
-3.10
-2.84
-1.81
-0.44
0.89
1.85
2.23
1.94
0.91
-0.90
-3.49
-6.84
-10.90
-15.64
-21.09
-27.24
-33.97
-40.79
-46.77
-50.61
-50.98
-46.98
-38.50
-26.41
-12.24
2.22
15.37
26.14
34.04
39.04
41.37
41.30
39.16
35.29
30.08
23.98
17.49
11.07
5.16
0.16
-3.57
-5.79
-6.43
-5.65
-3.85
-1.62
0.43
1.84
2.33
1.88
0.58
-1.41
-3.99
-7.17
-11.07
-15.80
-21.44
-27.74
-34.05
-39.39
-42.48
-42.20
-37.87
-29.62
-18.38
-5.66
6.88
17.88
26.60
32.93
37.06
39.27
39.69
38.27
34.97
29.99
23.86
17.38
11.41
6.57
3.16
1.12
0.19
0.11
0.73
1.94
3.60
5.42
6.94
7.58
6.81
4.32
0.02
-5.82
-12.79
-20.36
-27.94
-34.78
-40.05
-42.84
-42.36
-38.20
-30.51
-20.09
-8.21
3.67
14.29
22.83
28.90
32.46
33.61
32.46
29.10
23.72
16.69
8.64
0.35
-7.35
-13.80
-18.67
-21.99
-24.03
-25.12
-25.54
-25.41
-24.76
-23.64
-22.18
-20.65
-19.36
-18.68
-18.90
-20.21
-22.63
-25.96
-29.64
-32.81
-34.37
-33.31
-28.91
-21.06
-10.24
2.53
15.95
28.73
39.73
48.15
53.54
55.73
54.84
51.22
45.40
38.03
29.86
21.66
14.09
7.69
2.75
-0.63
-2.51
-3.09
-2.60
-1.33
0.41
2.30
3.95
4.96
4.97
3.66
0.81
-3.63
-9.51
-16.32
-23.21
-29.01
-32.45
-32.52
-28.75
-21.39
-11.34
0.20
11.96
22.94
32.46
39.99
45.17
47.76
47.67
45.12
40.48
34.32
27.26
19.86
12.70
6.32
1.14
-2.62
-5.10
-6.74
-8.01
-9.18
-10.15
-10.57
-10.15
-9.04
-8.01
-8.17
-10.46
-15.19
-21.79
-28.96
-35.18
-39.15
-40.30
-38.59
-34.31
-27.84
-19.40
-9.23
2.10
13.59
23.75
31.05
34.45
33.81
29.92
24.15
17.83
11.86
6.36
1.07
-4.33
-9.84
-15.05
-19.34
-22.16
-23.28
-22.89
-21.46
-19.57
-17.78
-16.53
-16.15
-16.90
-18.88
-22.08
-26.24
-30.77
-34.74
-37.01
-36.52
-32.58
-25.10
-14.71
-2.64
9.69
20.91
30.02
36.48
40.16
41.18
39.86
36.54
31.63
25.61
18.96
12.24
5.93
0.45
-3.98
-7.33
-9.66
-11.05
-11.57
-11.28
-10.33
-9.05
-7.95
-7.66
-8.76
-11.65
-16.35
-22.45
-29.05
-34.84
-38.36
-38.36
-34.16
-25.91
-14.56
-1.59
11.42
23.21
32.96
40.26
44.96
46.95
46.20
42.79
37.12
29.94
22.17
14.67
8.06
2.55
-1.91
-5.47
-8.20
-9.99
-10.70
-10.29
-8.98
-7.26
-5.80
-5.27
-6.16
-8.67
-12.73
-17.94
-23.54
-28.57
-31.81
-32.18
-28.96
-22.04
-12.07
-0.27
11.81
22.79
31.66
37.88
41.30
42.04
40.30
36.41
30.84
24.19
17.15
10.38
4.38
-0.56
-4.35
-7.00
-8.58
-9.14
-8.79
-7.68
-6.08
-4.39
-3.10
-2.80
-3.98
-7.02
-11.90
-18.17
-24.86
-30.56
-33.79
-33.35
-28.71
-20.21
-8.90
3.80
16.45
27.93
37.39
44.23
48.05
48.61
46.02
40.76
33.71
25.89
18.27
11.50
5.92
1.52
-1.75
-3.98
-5.26
-5.65
-5.26
-4.27
-2.88
-1.42
-0.30
-0.07
-1.23
-4.17
-8.91
-15.00
-21.48
-27.03
-30.30
-30.23
-26.35
-18.82
-8.49
3.35
15.25
25.90
34.27
39.78
42.19
41.59
38.28
32.74
25.66
17.83
10.03
2.94
-2.97
-7.53
-10.74
-12.73
-13.66
-13.70
-13.03
-11.86
-10.45
-9.10
-8.18
-8.11
-9.32
-12.12
-16.54
-22.11
-27.92
-32.64
-34.91
-33.70
-28.66
-20.23
-9.49
2.13
13.23
22.78
30.18
35.15
37.61
37.55
35.04
30.26
23.66
15.97
8.08
0.85
-5.08
-9.42
-12.21
-13.70
-14.21
-13.98
-13.15
-11.86
-10.34
-8.95
-8.21
-8.63
-10.55
-14.08
-18.92
-24.48
-29.81
-33.87
-35.60
-34.25
-29.53
-21.73
-11.72
-0.68
10.09
19.43
26.51
30.89
32.44
31.31
27.83
22.57
16.25
9.70
3.78
-0.89
-4.01
-5.66
-6.20
-6.02
-5.43
-4.53
-3.29
-1.72
-0.01
1.38
1.81
0.64
-2.54
-7.73
-14.32
-21.18
-26.85
-29.87
-29.18
-24.43
-16.06
-5.14
6.93
18.77
29.22
37.45
42.90
45.29
44.61
41.15
35.51
28.50
21.00
13.80
7.45
2.23
-1.82
-4.82
-6.96
-8.44
-9.35
-9.75
-9.69
-9.29
-8.88
-9.02
-10.36
-13.45
-18.50
-25.14
-32.40
-38.87
-42.96
-43.39
-39.51
-31.51
-20.41
-7.67
5.14
16.74
26.28
33.35
37.77
39.47
38.48
34.99
29.48
22.68
15.53
8.88
3.33
-0.89
-3.84
-5.72
-6.72
-7.00
-6.68
-5.84
-4.70
-3.57
-2.86
-3.03
-4.57
-7.82
-12.82
-19.16
-25.89
-31.62
-34.83
-34.29
-29.41
-20.47
-8.60
4.64
17.57
28.86
37.67
43.70
46.96
47.58
45.71
41.49
35.26
27.63
19.50
11.87
5.63
1.21
-1.44
-2.79
-3.48
-3.99
-4.54
-5.08
-5.47
-5.61
-5.72
-6.25
-7.77
-10.79
-15.55
-21.86
-29.03
-35.97
-41.35
-43.90
-42.68
-37.33
-28.20
-16.24
-2.87
10.39
22.17
31.50
37.84
41.01
41.14
38.50
33.57
26.97
19.51
12.10
5.63
0.76
-2.24
-3.54
-3.64
-3.18
-2.73
-2.57
-2.73
-3.06
-3.39
-3.80
-4.62
-6.38
-9.62
-14.61
-21.14
-28.40
-35.03
-39.55
-40.66
-37.66
-30.70
-20.64
-8.81
3.44
15.03
25.16
33.35
39.19
42.42
42.86
40.69
36.36
30.65
24.29
17.97
12.19
7.33
3.71
1.56
0.91
1.52
2.77
3.96
4.51
4.19
3.12
1.66
-0.06
-2.19
-5.40
-10.36
-17.33
-25.73
-34.04
-40.21
-42.36
-39.54
-32.16
-21.73
-10.16
0.94
10.81
19.38
26.77
32.84
36.83
37.75
34.91
28.52
19.77
10.45
2.28
-3.69
-7.41
-9.59
-11.05
-12.33
-13.43
-13.96
-13.58
-12.23
-10.39
-8.77
-8.07
-8.73
-10.81
-14.20
-18.71
-24.03
-29.76
-35.20
-39.33
-40.98
-39.17
-33.45
-24.08
-12.07
1.06
13.71
24.53
32.70
37.86
40.06
39.50
36.53
31.57
25.22
18.27
11.56
5.90
1.78
-0.64
-1.54
-1.26
-0.22
1.23
2.76
4.07
4.89
5.01
4.38
3.00
0.86
-2.18
-6.38
-11.99
-19.01
-26.92
-34.59
-40.48
-43.01
-41.07
-34.42
-23.74
-10.48
3.59
16.84
28.05
36.51
41.97
44.42
44.05
41.19
36.29
29.96
22.95
16.01
9.79
4.74
1.03
-1.43
-2.84
-3.46
-3.50
-3.15
-2.55
-1.89
-1.41
-1.38
-2.08
-3.70
-6.40
-10.31
-15.46
-21.78
-28.86
-35.92
-41.74
-44.95
-44.35
-39.40
-30.39
-18.41
-5.08
7.99
19.48
28.68
35.34
39.49
41.26
40.72
37.97
33.21
26.93
19.84
12.82
6.65
1.81
-1.53
-3.54
-4.50
-4.68
-4.29
-3.44
-2.34
-1.20
-0.39
-0.27
-1.14
-3.17
-6.38
-10.67
-15.86
-21.68
-27.71
-33.32
-37.58
-39.47
-38.04
-32.80
-23.93
-12.31
0.66
13.44
24.72
33.62
39.73
42.99
43.54
41.56
37.34
31.27
23.92
16.00
8.32
1.65
-3.41
-6.61
-8.09
-8.30
-7.83
-7.17
-6.58
-6.13
-5.80
-5.60
-5.65
-6.18
-7.43
-9.58
-12.67
-16.64
-21.22
-25.95
-30.10
-32.79
-33.07
-30.27
-24.20
-15.20
-4.23
7.47
18.59
28.04
35.16
39.69
41.70
41.42
39.10
34.96
29.31
22.58
15.45
8.71
3.20
-0.57
-2.47
-2.84
-2.30
-1.46
-0.78
-0.42
-0.34
-0.44
-0.70
-1.33
-2.63
-5.02
-8.78
-14.03
-20.43
-27.23
-33.30
-37.33
-38.14
-35.11
-28.28
-18.47
-6.94
4.87
15.74
24.85
31.79
36.46
38.91
39.22
37.52
33.94
28.75
22.35
15.30
8.27
1.84
-3.48
-7.52
-10.30
-12.09
-13.25
-14.09
-14.77
-15.36
-15.84
-16.21
-16.61
-17.32
-18.71
-21.22
-25.13
-30.43
-36.65
-42.78
-47.43
-49.17
-46.89
-40.23
-29.70
-16.55
-2.40
11.20
23.08
32.53
39.22
42.95
43.69
41.47
36.63
29.77
21.81
13.72
6.31
0.07
-4.82
-8.47
-11.09
-12.90
-14.02
-14.54
-14.52
-14.04
-13.25
-12.35
-11.67
-11.55
-12.32
-14.27
-17.50
-21.89
-26.91
-31.65
-34.96
-35.63
-32.73
-25.89
-15.43
-2.38
11.80
25.52
37.33
46.24
51.77
53.94
53.08
49.67
44.20
37.15
29.04
20.58
12.57
5.78
0.71
-2.53
-4.21
-4.80
-4.74
-4.37
-3.86
-3.35
-3.00
-3.10
-3.96
-5.84
-8.88
-13.04
-18.18
-23.93
-29.86
-35.33
-39.56
-41.66
-40.83
-36.60
-28.97
-18.57
-6.56
5.70
16.99
26.47
33.69
38.47
40.78
40.58
37.87
32.90
26.19
18.51
10.71
3.58
-2.38
-7.02
-10.42
-12.78
-14.31
-15.14
-15.34
-14.97
-14.22
-13.48
-13.24
-14.09
-16.45
-20.38
-25.57
-31.25
-36.45
-40.07
-41.18
-39.16
-33.89
-25.78
-15.69
-4.74
5.97
15.54
23.34
29.01
32.33
33.20
31.65
27.93
22.54
16.15
9.41
2.93
-2.88
-7.72
-11.39
-13.76
-14.79
-14.63
-13.56
-11.96
-10.20
-8.61
-7.50
-7.21
-8.15
-10.68
-14.89
-20.37
-26.17
-30.92
-33.20
-31.91
-26.63
-17.77
-6.37
6.11
18.24
28.84
37.18
42.85
45.78
46.04
43.85
39.52
33.53
26.43
18.82
11.20
4.02
-2.39
-7.71
-11.67
-14.10
-15.01
-14.53
-13.09
-11.14
-9.29
-8.10
-8.11
-9.70
-13.05
-18.02
-24.05
-30.18
-35.14
-37.67
-36.73
-31.87
-23.35
-12.06
0.59
13.12
24.24
33.06
39.10
42.25
42.59
40.36
35.85
29.44
21.71
13.35
5.25
-1.71
-6.83
-9.82
-10.97
-10.95
-10.56
-10.29
-10.19
-9.90
-9.14
-8.01
-7.25
-7.97
-11.10
-16.82
-24.27
-31.80
-37.43
-39.58
-37.60
-31.76
-23.00
-12.46
-1.15
10.25
21.15
31.03
39.08
44.40
46.31
44.57
39.60
32.36
24.06
15.81
8.31
1.85
-3.54
-7.91
-11.26
-13.52
-14.67
-14.76
-14.05
-12.93
-11.89
-11.46
-12.09
-14.07
-17.48
-22.10
-27.41
-32.59
-36.62
-38.45
-37.17
-32.22
-23.67
-12.08
1.43
15.54
28.95
40.59
49.79
56.13
59.48
59.85
57.37
52.35
45.34
37.08
28.48
20.40
13.50
8.15
4.37
1.95
0.55
-0.13
-0.35
-0.29
-0.10
0.03
-0.13
-0.91
-2.64
-5.62
-9.96
-15.38
-21.16
-26.11
-28.95
-28.58
-24.49
-16.91
-6.72
4.84
16.50
27.26
36.38
43.32
47.68
49.13
47.55
43.11
36.37
28.22
19.71
11.79
5.06
-0.17
-3.98
-6.58
-8.21
-8.94
-8.81
-7.85
-6.30
-4.67
-3.58
-3.72
-5.56
-9.27
-14.65
-21.19
-28.01
-34.06
-38.21
-39.41
-37.01
-30.87
-21.52
-10.00
2.29
13.97
23.92
31.45
36.24
38.29
37.77
34.94
30.20
24.05
17.14
10.16
3.77
-1.58
-5.67
-8.52
-10.30
-11.16
-11.28
-10.77
-9.83
-8.73
-7.84
-7.67
-8.68
-11.18
-15.24
-20.45
-25.98
-30.61
-33.03
-32.23
-27.76
-19.89
-9.51
2.16
13.88
24.59
33.54
40.20
44.22
45.43
43.88
39.86
33.93
26.84
19.42
12.37
6.18
1.03
-3.13
-6.46
-9.07
-10.94
-11.91
-11.87
-10.93
-9.52
-8.35
-8.29
-10.02
-13.82
-19.43
-25.99
-32.23
-36.78
-38.43
-36.41
-30.62
-21.55
-10.17
2.26
14.44
25.17
33.52
38.87
40.95
39.87
36.12
30.43
23.62
16.47
9.58
3.35
-2.02
-6.43
-9.85
-12.28
-13.73
-14.29
-14.07
-13.32
-12.38
-11.69
-11.77
-13.12
-16.06
-20.61
-26.35
-32.31
-37.15
-39.45
-38.07
-32.57
-23.32
-11.38
1.79
14.75
26.35
35.76
42.51
46.27
46.94
44.66
39.83
33.18
25.54
17.75
10.45
4.01
-1.45
-5.95
-9.47
-11.99
-13.46
-13.80
-13.10
-11.60
-9.74
-8.10
-7.30
-7.90
-10.24
-14.32
-19.69
-25.45
-30.41
-33.30
-33.07
-29.17
-21.68
-11.30
0.84
13.40
25.10
34.92
42.19
46.55
47.97
46.58
42.71
36.86
29.67
21.85
14.15
7.20
1.43
-2.92
-5.84
-7.37
-7.62
-6.79
-5.12
-3.00
-0.94
0.54
0.94
-0.12
-2.86
-7.29
-13.16
-19.91
-26.65
-32.21
-35.40
-35.22
-31.23
-23.63
-13.25
-1.38
10.66
21.65
30.72
37.32
41.19
42.19
40.41
36.10
29.74
22.08
13.94
6.11
-0.79
-6.51
-11.07
-14.61
-17.28
-19.13
-20.09
-20.16
-19.47
-18.38
-17.40
-17.08
-17.90
-20.10
-23.67
-28.19
-32.88
-36.67
-38.38
-37.06
-32.26
-24.18
-13.67
-1.96
9.63
19.96
28.22
33.95
37.00
37.43
35.49
31.56
26.11
19.63
12.62
5.57
-1.07
-6.84
-11.40
-14.52
-16.24
-16.78
-16.47
-15.68
-14.67
-13.67
-12.90
-12.73
-13.63
-15.98
-19.83
-24.65
-29.31
-32.33
-32.32
-28.47
-20.80
-10.18
1.98
14.13
24.99
33.74
40.00
43.67
44.75
43.28
39.39
33.45
26.11
18.25
10.75
4.24
-1.03
-5.14
-8.32
-10.74
-12.38
-13.12
-12.90
-11.88
-10.51
-9.46
-9.41
-10.92
-14.24
-19.18
-25.11
-30.95
-35.32
-36.85
-34.51
-28.00
-17.82
-5.21
8.22
20.92
31.70
39.86
45.08
47.34
46.71
43.43
37.90
30.78
22.86
15.02
8.00
2.25
-2.09
-5.11
-7.04
-8.11
-8.52
-8.40
-7.89
-7.16
-6.50
-6.29
-7.08
-9.39
-13.46
-19.04
-25.20
-30.42
-32.96
-31.41
-25.23
-14.96
-2.07
11.56
24.18
34.67
42.47
47.35
49.17
47.84
43.44
36.49
28.02
19.31
11.52
5.19
0.25
-3.80
-7.40
-10.64
-13.19
-14.55
-14.52
-13.47
-12.18
-11.59
-12.35
-14.69
-18.38
-23.03
-28.17
-33.46
-38.35
-41.97
-43.11
-40.49
-33.39
-21.97
-7.51
7.82
21.67
32.28
38.85
41.61
41.36
39.00
35.09
29.75
22.94
14.80
5.98
-2.46
-9.37
-13.92
-15.85
-15.60
-13.92
-11.53
-8.76
-5.49
-1.50
3.25
8.39
13.06
16.32
17.63
17.16
16.02
15.86
18.43
25.17
36.56
52.22
70.85
90.70
109.91
126.88
140.44
149.94
155.12
156.11
153.33
147.47
139.49
130.38
120.95
111.64
102.31
92.38
81.04
67.58
51.69
33.61
14.02
-6.06
-25.53
-43.45
-59.18
-72.46
-83.40
-92.24
-99.20
-104.07
-106.15
-104.40
-97.81
-85.83
-68.82
-48.06
-25.47
-3.06
17.40
34.63
47.74
56.11
59.34
57.37
50.66
40.23
27.56
14.18
1.35
-10.23
-20.45
-29.56
-37.87
-45.53
-52.43
-58.30
-62.94
-66.37
-68.91
-71.17
-73.79
-77.31
-81.87
-87.13
-92.35
-96.46
-98.43
-97.50
-93.45
-86.63
-77.92
-68.39
-59.10
-50.90
-44.39
-39.94
-37.81
-38.09
-40.64
-45.02
-50.50
-56.22
-61.36
-65.38
-67.95
-68.99
-68.52
-66.60
-63.33
-58.90
-53.67
-48.15
-42.87
-38.30
-34.75
-32.38
-31.16
-30.90
-31.14
-31.14
-29.86
-26.17
-19.19
-8.48
5.74
22.63
40.97
59.36
76.51
91.42
103.41
112.14
117.59
120.03
119.88
117.64
113.82
108.87
103.17
97.09
90.93
84.84
78.90
73.05
67.23
61.50
56.04
50.99
46.29
41.45
35.70
28.24
18.77
7.77
-3.40
-12.78
-18.43
-18.91
-13.80
-3.74
9.69
24.40
38.24
49.53
57.28
61.21
61.51
58.55
52.69
44.22
33.48
20.99
7.41
-6.62
-20.58
-34.13
-47.03
-58.99
-69.59
-78.38
-85.01
-89.50
-92.19
-93.77
-95.10
-97.03
-100.19
-104.73
-110.11
-115.10
-118.05
-117.28
-111.75
-101.31
-86.81
-69.75
-51.86
-34.75
-19.65
-7.37
1.61
7.15
9.44
8.91
6.22
2.07
-2.86
-8.08
-13.26
-18.26
-23.03
-27.47
-31.32
-34.18
-35.62
-35.43
-33.86
-31.64
-29.89
-29.79
-32.09
-36.83
-43.23
-49.77
-54.60
-55.96
-52.67
-44.44
-31.96
-16.63
-0.28
15.31
28.72
38.96
45.47
48.11
47.12
43.05
36.78
29.29
21.47
13.92
6.85
0.21
-6.10
-12.03
-17.31
-21.47
-24.12
-25.17
-24.90
-24.02
-23.48
-24.27
-27.13
-32.27
-39.19
-46.72
-53.16
-56.68
-55.85
-49.98
-39.35
-25.11
-8.88
7.62
22.92
35.94
45.94
52.43
55.18
54.28
50.24
43.89
36.33
28.58
21.39
15.13
9.83
5.35
1.58
-1.57
-4.11
-6.13
-7.71
-9.10
-10.55
-12.49
-15.38
-19.77
-25.93
-33.63
-41.91
-49.17
-53.50
-53.21
-47.41
-36.30
-21.06
-3.58
14.11
30.24
43.55
53.36
59.43
61.72
60.39
55.79
48.60
39.78
30.53
22.00
14.98
9.70
5.90
2.99
0.49
-1.83
-3.86
-5.28
-5.84
-5.60
-5.03
-4.95
-6.33
-9.96
-16.09
-24.18
-32.88
-40.26
-44.25
-43.27
-36.61
-24.68
-8.92
8.64
25.89
41.12
53.26
61.83
66.80
68.30
66.52
61.84
54.84
46.43
37.67
29.62
22.98
17.97
14.37
11.70
9.50
7.50
5.63
4.02
2.80
1.96
1.36
0.59
-0.91
-3.75
-8.40
-15.03
-23.22
-31.97
-39.74
-44.78
-45.54
-41.15
-31.69
-18.19
-2.32
14.03
29.18
41.96
51.69
58.03
60.90
60.35
56.65
50.38
42.44
33.89
25.78
18.88
13.49
9.45
6.41
3.88
1.64
-0.37
-1.96
-2.91
-3.16
-2.93
-2.76
-3.37
-5.50
-9.60
-15.66
-23.06
-30.61
-36.78
-39.91
-38.74
-32.74
-22.28
-8.58
6.67
21.79
35.41
46.66
55.00
60.13
61.83
60.07
55.17
47.87
39.28
30.60
22.75
16.13
10.64
5.91
1.58
-2.43
-5.85
-8.27
-9.40
-9.33
-8.51
-7.74
-7.86
-9.47
-12.85
-17.82
-23.73
-29.55
-33.96
-35.60
-33.46
-27.11
-16.90
-3.95
10.23
24.09
36.31
46.04
52.75
56.21
56.37
53.37
47.65
39.93
31.08
22.01
13.42
5.70
-1.00
-6.66
-11.27
-14.75
-17.02
-18.04
-17.96
-17.11
-15.94
-14.96
-14.72
-15.71
-18.35
-22.76
-28.68
-35.19
-40.84
-43.91
-42.92
-37.11
-26.76
-13.14
1.85
16.30
28.72
38.36
45.07
49.04
50.48
49.54
46.26
40.88
33.91
26.18
18.60
11.95
6.58
2.48
-0.65
-3.14
-5.20
-6.79
-7.81
-8.20
-8.13
-7.98
-8.37
-9.95
-13.23
-18.45
-25.40
-33.32
-40.98
-46.81
-49.31
-47.44
-40.95
-30.52
-17.50
-3.52
9.97
21.99
31.98
39.65
44.72
46.93
46.10
42.38
36.34
28.94
21.27
14.26
8.47
4.01
0.73
-1.64
-3.30
-4.28
-4.57
-4.17
-3.27
-2.23
-1.57
-1.78
-3.25
-6.17
-10.61
-16.49
-23.47
-30.91
-37.77
-42.72
-44.45
-42.00
-35.19
-24.68
-11.81
1.80
14.65
25.62
34.08
39.77
42.68
42.94
40.78
36.54
30.75
24.01
16.98
10.27
4.37
-0.47
-4.18
-6.84
-8.58
-9.56
-9.95
-9.87
-9.52
-9.15
-9.02
-9.39
-10.50
-12.56
-15.70
-19.92
-24.97
-30.26
-34.83
-37.52
-37.24
-33.25
-25.52
-14.63
-1.73
11.80
24.67
35.85
44.74
51.07
54.83
56.14
55.18
52.19
47.48
41.54
35.01
28.66
23.18
19.06
16.44
15.14
14.78
15.05
15.73
16.75
18.11
19.71
21.39
22.79
23.52
23.16
21.36
17.99
13.15
7.24
1.00
-4.57
-8.37
-9.42
-7.13
-1.47
6.94
16.93
27.03
35.69
41.63
43.99
42.48
37.27
29.01
18.64
7.26
-3.96
-13.95
-21.85
-27.10
-29.54
-29.30
-26.86
-22.87
-18.06
-13.06
-8.39
-4.36
-1.15
1.14
2.42
2.61
1.64
-0.48
-3.60
-7.35
-11.05
-13.74
-14.27
-11.61
-5.13
5.19
18.61
33.86
49.50
64.22
77.11
87.56
95.26
99.99
101.72
100.59
97.00
91.66
85.33
78.75
72.43
66.58
61.21
56.16
51.22
46.24
41.20
36.16
31.30
26.77
22.55
18.49
14.22
9.25
3.12
-4.48
-13.60
-23.85
-34.37
-43.91
-51.06
-54.61
-53.87
-48.94
-40.63
-30.24
-19.23
-8.93
-0.34
5.82
9.10
9.28
6.41
0.79
-6.96
-16.02
-25.52
-34.67
-42.95
-50.09
-56.05
-60.96
-64.95
-68.10
-70.33
-71.65
-72.09
-71.93
-71.67
-71.98
-73.51
-76.72
-81.76
-88.33
-95.74
-102.85
-108.24
-110.45
-108.31
-101.23
-89.49
-74.16
-56.92
-39.66
-24.05
-11.31
-2.06
3.62
6.03
5.74
3.35
-0.49
-5.18
-10.14
-14.95
-19.29
-23.06
-26.26
-28.87
-30.87
-32.02
-32.04
-30.74
-28.15
-24.62
-20.80
-17.51
-15.54
-15.53
-17.76
-22.03
-27.45
-32.51
-35.30
-34.04
-27.60
-15.88
0.11
18.63
37.75
55.85
71.87
85.32
95.97
103.62
108.06
109.05
106.51
100.58
91.65
80.36
67.35
53.29
38.71
24.06
9.73
-3.84
-16.20
-26.89
-35.58
-42.20
-47.02
-50.60
-53.67
-56.93
-60.89
-65.75
-71.42
-77.46
-83.18
-87.61
-89.60
-88.01
-81.99
-71.32
-56.53
-38.87
-20.05
-1.81
14.40
27.61
37.30
43.33
45.80
44.99
41.41
35.79
28.97
21.85
15.10
9.13
3.96
-0.49
-4.37
-7.68
-10.29
-12.01
-12.82
-12.94
-12.90
-13.41
-15.25
-19.00
-24.90
-32.63
-41.29
-49.47
-55.48
-57.77
-55.32
-47.99
-36.49
-22.26
-6.93
7.92
21.13
31.96
40.01
45.13
47.35
46.88
44.15
39.68
34.10
27.93
21.54
15.09
8.60
2.16
-3.94
-9.25
-13.20
-15.49
-16.19
-15.94
-15.75
-16.57
-19.05
-23.28
-28.82
-34.77
-39.96
-43.03
-42.59
-37.41
-26.85
-11.17
8.35
29.62
50.33
68.38
82.47
92.05
97.23
98.44
96.21
91.10
83.63
74.43
64.13
53.41
42.85
32.98
24.13
16.44
9.95
4.54
0.05
-3.68
-6.82
-9.65
-12.52
-15.90
-20.27
-26.04
-33.38
-42.02
-51.25
-59.84
-66.25
-68.95
-66.89
-59.80
-48.37
-34.11
-18.88
-4.43
7.94
17.53
24.07
27.62
28.35
26.54
22.62
17.21
11.09
5.09
-0.12
-4.10
-6.78
-8.35
-9.08
-9.16
-8.62
-7.29
-4.99
-1.70
2.29
6.39
9.83
11.91
12.18
10.72
8.24
5.92
5.13
6.96
11.87
19.48
28.77
38.48
47.55
55.33
61.53
65.95
68.27
68.07
64.96
58.94
50.51
40.50
29.88
19.36
9.39
0.12
-8.43
-16.22
-23.11
-28.88
-33.27
-36.12
-37.40
-37.27
-36.15
-34.67
-33.56
-33.50
-34.90
-37.75
-41.46
-44.98
-46.96
-46.18
-41.83
-33.76
-22.58
-9.42
4.41
17.66
29.37
38.82
45.48
48.96
49.00
45.62
39.25
30.69
20.97
11.05
1.64
-7.03
-14.99
-22.36
-29.13
-34.99
-39.58
-42.57
-44.01
-44.31
-44.16
-44.33
-45.37
-47.49
-50.52
-53.93
-56.85
-58.12
-56.46
-50.70
-40.08
-24.55
-4.93
17.30
40.23
62.06
81.22
96.73
108.01
114.96
117.79
116.96
113.11
106.88
98.86
89.53
79.38
68.92
58.77
49.62
42.09
36.49
32.80
30.59
29.21
27.99
26.29
23.58
19.42
13.49
5.80
-3.18
-12.29
-19.86
-24.05
-23.46
-17.56
-6.91
6.99
22.13
36.45
48.29
56.44
60.22
59.34
53.92
44.49
31.95
17.56
2.61
-11.75
-24.75
-36.10
-45.89
-54.26
-61.24
-66.67
-70.29
-71.94
-71.78
-70.37
-68.53
-67.13
-66.89
-68.07
-70.51
-73.52
-76.05
-76.85
-74.77
-68.99
-59.28
-46.13
-30.70
-14.56
0.64
13.53
23.25
29.52
32.44
32.41
29.80
24.99
18.36
10.47
2.03
-6.14
-13.24
-18.72
-22.33
-24.09
-24.19
-22.87
-20.36
-16.93
-12.98
-9.07
-5.95
-4.42
-5.11
-8.24
-13.48
-19.85
-25.90
-30.04
-30.95
-27.88
-20.87
-10.69
1.37
13.87
25.52
35.30
42.53
46.82
47.94
45.87
40.84
33.40
24.41
14.90
5.87
-2.02
-8.53
-13.85
-18.30
-22.10
-25.25
-27.50
-28.59
-28.46
-27.45
-26.21
-25.64
-26.56
-29.51
-34.47
-40.83
-47.35
-52.34
-54.13
-51.46
-43.92
-31.95
-16.89
-0.44
15.64
29.90
41.37
49.46
53.97
54.90
52.51
47.31
40.11
31.93
23.79
16.59
10.87
6.80
4.21
2.85
2.50
3.06
4.47
6.67
9.48
12.48
15.13
16.77
16.75
14.50
9.77
2.84
-5.36
-13.24
-18.92
-20.74
-17.78
-10.19
0.93
13.85
26.80
38.26
47.26
53.22
55.86
55.07
50.92
43.69
33.97
22.62
10.55
-1.35
-12.46
-22.36
-30.86
-37.86
-43.26
-47.03
-49.23
-50.02
-49.64
-48.39
-46.61
-44.75
-43.36
-43.06
-44.49
-47.85
-52.78
-58.18
-62.42
-63.75
-60.83
-53.13
-41.11
-26.01
-9.54
6.56
20.85
32.30
40.36
44.88
45.94
43.85
39.09
32.27
24.17
15.63
7.44
0.28
-5.45
-9.59
-12.15
-13.22
-12.76
-10.70
-6.97
-1.71
4.67
11.44
17.68
22.53
25.26
25.53
23.40
19.49
14.85
10.95
9.23
10.78
16.02
24.51
35.16
46.54
57.27
66.31
72.99
76.95
77.99
76.06
71.29
64.07
55.08
45.22
35.37
26.17
17.96
10.79
4.50
-0.97
-5.52
-8.87
-10.74
-11.09
-10.21
-8.72
-7.43
-7.00
-7.92
-10.33
-14.15
-19.01
-24.21
-28.79
-31.51
-31.20
-27.03
-18.88
-7.38
6.14
20.04
32.72
42.90
49.80
53.13
53.02
49.84
44.11
36.35
27.09
16.77
5.80
-5.40
-16.48
-27.07
-36.78
-45.26
-52.14
-57.18
-60.32
-61.80
-62.18
-62.26
-62.88
-64.76
-68.21
-72.95
-78.01
-81.88
-82.87
-79.48
-71.00
-57.62
-40.55
-21.62
-2.85
13.95
27.48
37.04
42.40
43.71
41.43
36.25
29.04
20.72
12.13
3.92
-3.57
-10.23
-16.06
-21.02
-25.00
-27.82
-29.34
-29.63
-29.02
-28.12
-27.77
-28.79
-31.71
-36.51
-42.42
-47.98
-51.37
-50.92
-45.64
-35.54
-21.62
-5.58
10.67
25.47
37.55
46.17
51.03
52.18
49.95
44.89
37.67
29.13
20.10
11.33
3.37
-3.47
-9.13
-13.65
-17.09
-19.44
-20.66
-20.76
-19.94
-18.73
-17.85
-18.22
-20.63
-25.48
-32.45
-40.34
-47.20
-50.82
-49.32
-41.90
-29.11
-12.65
5.19
22.22
36.83
48.14
55.93
60.27
61.38
59.58
55.22
48.85
41.12
32.74
24.33
16.40
9.25
3.04
-2.12
-6.12
-8.82
-10.15
-10.19
-9.29
-8.09
-7.54
-8.60
-11.98
-17.86
-25.59
-33.73
-40.27
-43.16
-40.92
-33.06
-20.29
-4.24
13.04
29.62
44.09
55.63
63.86
68.67
69.99
67.91
62.76
55.20
46.26
37.01
28.47
21.26
15.59
11.37
8.42
6.62
5.95
6.44
7.91
9.93
11.75
12.48
11.25
7.54
1.47
-6.16
-13.79
-19.51
-21.47
-18.45
-10.23
2.40
17.79
33.99
49.10
61.64
70.59
75.39
75.85
72.15
64.83
54.79
43.12
31.00
19.44
9.21
0.75
-5.79
-10.57
-13.87
-16.07
-17.42
-18.08
-18.12
-17.60
-16.78
-16.14
-16.37
-18.13
-21.79
-27.22
-33.57
-39.40
-42.81
-41.97
-35.57
-23.25
-5.84
14.93
36.89
57.91
76.34
91.10
101.56
107.36
108.37
104.73
96.94
85.88
72.71
58.58
44.44
30.99
18.66
7.85
-1.19
-8.22
-13.17
-16.29
-18.14
-19.62
-21.73
-25.39
-31.14
-38.90
-47.88
-56.68
-63.53
-66.82
-65.42
-59.07
-48.45
-34.85
-19.90
-5.11
8.32
19.49
27.75
32.67
34.01
31.93
27.01
20.26
12.90
6.06
0.52
-3.37
-5.65
-6.52
-6.19
-4.86
-2.72
0.02
2.94
5.48
6.97
6.70
4.06
-1.26
-9.04
-18.46
-28.05
-35.99
-40.52
-40.44
-35.45
-26.33
-14.56
-1.97
9.67
19.04
25.32
28.19
27.68
24.12
18.04
10.20
1.51
-7.07
-14.73
-20.99
-25.71
-29.09
-31.45
-33.03
-33.95
-34.19
-33.76
-32.76
-31.44
-30.24
-29.80
-30.85
-34.08
-39.87
-47.88
-56.95
-65.07
-69.96
-69.79
-63.76
-52.38
-37.26
-20.47
-4.00
10.71
22.73
31.58
37.02
39.01
37.78
33.90
28.26
21.92
15.88
10.89
7.31
5.15
4.15
4.04
4.58
5.68
7.29
9.33
11.44
13.03
13.30
11.46
7.05
0.08
-8.74
-18.09
-26.23
-31.38
-32.05
-27.52
-17.98
-4.54
11.11
27.08
41.73
53.89
62.87
68.38
70.34
68.87
64.27
57.11
48.22
38.62
29.35
21.31
15.02
10.57
7.69
5.89
4.66
3.53
2.03
-0.36
-4.13
-9.72
-17.27
-26.51
-36.90
-47.72
-58.28
-67.91
-75.85
-81.22
-83.10
-80.86
-74.52
-64.91
-53.46
-41.79
-31.21
-22.48
-15.92
-11.56
-9.39
-9.41
-11.51
-15.38
-20.43
-25.89
-31.02
-35.20
-38.11
-39.72
-40.12
-39.56
-38.17
-36.03
-33.22
-29.92
-26.58
-23.84
-22.55
-23.42
-26.86
-32.69
-40.09
-47.63
-53.56
-56.16
-54.15
-47.07
-35.35
-20.22
-3.39
13.41
28.65
41.12
49.96
54.59
54.73
50.65
43.12
33.48
23.28
13.98
6.57
1.40
-1.70
-3.23
-3.70
-3.47
-2.69
-1.49
-0.04
1.24
1.75
0.82
-2.19
-7.61
-15.28
-24.41
-33.59
-40.97
-44.68
-43.32
-36.37
-24.37
-8.80
8.35
25.03
39.53
50.63
57.67
60.35
58.80
53.45
45.19
35.22
24.94
15.58
7.94
2.32
-1.55
-4.15
-5.98
-7.28
-8.06
-8.26
-7.90
-7.29
-7.02
-7.92
-10.81
-16.31
-24.54
-34.80
-45.54
-54.53
-59.48
-58.66
-51.51
-38.78
-22.31
-4.37
12.89
27.85
39.45
47.08
50.50
49.70
45.11
37.57
28.30
18.62
9.71
2.27
-3.47
-7.62
-10.49
-12.30
-13.12
-12.91
-11.65
-9.50
-6.91
-4.56
-3.25
-3.78
-6.79
-12.59
-20.99
-31.09
-41.23
-49.23
-52.92
-50.72
-42.30
-28.65
-11.77
5.96
22.45
36.27
46.68
53.39
56.26
55.23
50.53
42.85
33.42
23.85
15.65
9.82
6.56
5.30
5.13
5.22
5.17
5.11
5.37
6.16
7.25
7.95
7.34
4.60
-0.73
-8.52
-18.19
-28.58
-38.18
-45.27
-48.14
-45.58
-37.22
-23.81
-7.06
10.77
27.45
41.27
51.27
57.19
59.20
57.70
53.15
46.13
37.39
27.88
18.71
10.91
5.18
1.69
0.12
-0.20
0.05
0.42
0.76
1.14
1.60
1.98
1.81
0.46
-2.75
-8.22
-15.89
-25.09
-34.47
-42.19
-46.31
-45.32
-38.68
-26.94
-11.65
5.19
21.64
36.28
48.23
57.04
62.44
64.25
62.39
57.11
49.06
39.28
29.10
19.79
12.34
7.22
4.33
3.14
2.91
2.95
2.89
2.66
2.47
2.47
2.56
2.36
1.18
-1.62
-6.46
-13.29
-21.48
-29.85
-36.82
-40.68
-40.01
-34.05
-23.01
-8.02
9.05
26.13
41.40
53.54
61.84
66.05
66.23
62.72
56.10
47.30
37.48
27.86
19.47
12.96
8.50
5.84
4.51
3.98
3.78
3.62
3.34
2.91
2.30
1.43
0.08
-2.11
-5.49
-10.41
-16.93
-24.78
-33.17
-40.83
-46.15
-47.60
-44.09
-35.43
-22.41
-6.65
9.85
25.22
38.07
47.57
53.40
55.43
53.76
48.65
40.76
31.13
21.05
11.82
4.45
-0.61
-3.49
-4.76
-5.17
-5.32
-5.56
-5.95
-6.37
-6.75
-7.21
-8.10
-9.94
-13.28
-18.44
-25.40
-33.58
-41.90
-48.84
-52.75
-52.27
-46.70
-36.31
-22.21
-6.14
10.07
24.88
37.17
46.31
51.88
53.69
51.74
46.45
38.71
29.82
21.21
14.02
8.86
5.71
4.10
3.41
3.12
2.91
2.68
2.41
2.08
1.59
0.70
-0.84
-3.33
-7.11
-12.43
-19.38
-27.59
-36.18
-43.68
-48.35
-48.59
-43.49
-33.19
-18.88
-2.50
13.86
28.50
40.31
48.78
53.75
55.22
53.27
48.22
40.76
31.93
22.94
14.92
8.63
4.36
1.99
1.15
1.42
2.36
3.59
4.73
5.48
5.61
5.02
3.72
1.63
-1.34
-5.47
-11.02
-18.05
-26.15
-34.31
-41.01
-44.56
-43.57
-37.38
-26.36
-11.75
4.63
20.90
35.45
47.14
55.28
59.52
59.78
56.29
49.57
40.51
30.22
19.84
10.38
2.53
-3.36
-7.29
-9.52
-10.42
-10.41
-9.93
-9.29
-8.75
-8.47
-8.55
-9.17
-10.58
-13.08
-16.99
-22.46
-29.31
-36.96
-44.43
-50.48
-53.80
-53.34
-48.55
-39.49
-26.97
-12.32
2.84
16.92
28.67
37.27
42.33
43.85
42.09
37.53
30.91
23.06
14.92
7.30
0.79
-4.31
-7.93
-10.14
-11.18
-11.29
-10.82
-10.11
-9.53
-9.34
-9.71
-10.75
-12.55
-15.30
-19.24
-24.56
-31.18
-38.48
-45.28
-49.99
-51.06
-47.46
-39.09
-26.78
-12.10
3.12
17.32
29.42
38.89
45.51
49.15
49.74
47.27
41.99
34.51
25.78
16.88
8.80
2.25
-2.46
-5.46
-7.13
-7.96
-8.38
-8.66
-8.88
-9.05
-9.22
-9.58
-10.51
-12.49
-15.87
-20.80
-27.04
-33.95
-40.52
-45.50
-47.63
-45.91
-39.90
-29.91
-16.93
-2.48
11.85
24.73
35.19
42.70
47.00
47.99
45.70
40.38
32.64
23.40
13.87
5.20
-1.64
-6.22
-8.60
-9.32
-9.06
-8.43
-7.77
-7.14
-6.44
-5.71
-5.17
-5.23
-6.37
-8.95
-13.11
-18.72
-25.41
-32.51
-39.06
-43.84
-45.59
-43.35
-36.75
-26.27
-13.04
1.40
15.51
28.03
38.08
45.14
49.00
49.60
47.16
42.01
34.77
26.25
17.46
9.42
2.99
-1.31
-3.44
-3.80
-3.10
-2.08
-1.32
-1.14
-1.57
-2.47
-3.61
-4.85
-6.20
-7.89
-10.29
-13.75
-18.38
-23.80
-29.12
-33.06
-34.28
-31.77
-25.20
-14.98
-2.20
11.65
25.07
36.76
45.88
51.99
54.92
54.72
51.52
45.67
37.80
28.81
19.80
11.78
5.45
0.98
-1.86
-3.60
-4.72
-5.58
-6.32
-6.94
-7.44
-7.87
-8.38
-9.21
-10.63
-12.96
-16.54
-21.52
-27.84
-35.01
-42.13
-47.92
-51.00
-50.30
-45.28
-36.16
-23.92
-9.95
4.15
16.98
27.48
34.99
39.25
40.29
38.38
33.98
27.77
20.54
13.17
6.52
1.22
-2.44
-4.56
-5.56
-5.98
-6.26
-6.58
-6.82
-6.77
-6.32
-5.65
-5.24
-5.74
-7.68
-11.31
-16.42
-22.39
-28.23
-32.83
-35.07
-34.08
-29.40
-21.14
-10.02
2.79
15.90
27.96
37.87
44.86
48.53
48.82
45.95
40.42
32.92
24.33
15.57
7.47
0.70
-4.39
-7.72
-9.53
-10.19
-10.15
-9.70
-9.06
-8.29
-7.48
-6.85
-6.82
-7.93
-10.73
-15.56
-22.35
-30.45
-38.65
-45.37
-48.98
-48.21
-42.53
-32.37
-18.99
-4.17
10.22
22.76
32.58
39.38
43.22
44.26
42.65
38.51
32.21
24.38
15.95
7.96
1.29
-3.60
-6.69
-8.36
-9.13
-9.45
-9.60
-9.66
-9.70
-9.77
-10.07
-10.89
-12.53
-15.28
-19.41
-24.94
-31.64
-38.86
-45.48
-50.07
-51.22
-47.89
-39.79
-27.58
-12.71
2.95
17.57
29.78
38.84
44.60
47.25
47.06
44.28
39.18
32.22
24.12
15.90
8.54
2.78
-1.08
-3.25
-4.17
-4.36
-4.20
-3.86
-3.41
-2.96
-2.63
-2.65
-3.27
-4.74
-7.30
-11.10
-16.25
-22.61
-29.73
-36.76
-42.48
-45.56
-44.80
-39.55
-29.93
-16.87
-1.85
13.36
27.18
38.47
46.63
51.50
53.15
51.86
47.90
41.76
34.06
25.65
17.48
10.41
5.02
1.55
-0.14
-0.49
-0.01
0.78
1.56
2.16
2.53
2.54
2.02
0.74
-1.52
-4.85
-9.21
-14.53
-20.69
-27.48
-34.51
-40.96
-45.68
-47.28
-44.61
-37.16
-25.38
-10.61
5.30
20.43
33.28
42.99
49.27
52.29
52.33
49.76
44.97
38.44
30.81
22.85
15.38
9.08
4.43
1.62
0.58
1.00
2.44
4.37
6.24
7.63
8.20
7.85
6.65
4.72
2.21
-0.87
-4.61
-9.19
-14.76
-21.22
-28.11
-34.57
-39.40
-41.30
-39.29
-32.96
-22.75
-9.82
4.21
17.69
29.32
38.26
44.20
47.11
47.15
44.56
39.72
33.19
25.68
18.03
10.99
5.13
0.70
-2.31
-4.11
-5.02
-5.37
-5.46
-5.54
-5.83
-6.51
-7.70
-9.47
-11.82
-14.72
-18.16
-22.18
-26.91
-32.44
-38.58
-44.73
-49.85
-52.60
-51.76
-46.62
-37.31
-24.76
-10.51
3.77
16.66
27.21
34.93
39.71
41.60
40.73
37.35
31.83
24.76
16.94
9.24
2.49
-2.77
-6.30
-8.24
-8.96
-8.90
-8.47
-7.95
-7.49
-7.16
-7.08
-7.45
-8.55
-10.71
-14.17
-19.08
-25.28
-32.36
-39.59
-45.97
-50.35
-51.60
-48.89
-41.90
-31.02
-17.32
-2.33
12.32
25.18
35.26
42.09
45.66
46.22
44.20
39.98
33.97
26.60
18.40
10.09
2.51
-3.56
-7.61
-9.65
-10.10
-9.71
-9.19
-8.96
-9.11
-9.50
-9.99
-10.58
-11.49
-13.01
-15.50
-19.23
-24.27
-30.39
-36.95
-42.82
-46.51
-46.53
-41.90
-32.49
-19.24
-3.88
11.56
25.29
36.20
43.86
48.38
50.01
48.97
45.44
39.68
32.20
23.83
15.60
8.47
3.12
-0.21
-1.71
-1.83
-1.10
-0.01
1.08
1.94
2.40
2.32
1.59
0.04
-2.47
-6.04
-10.74
-16.52
-23.21
-30.37
-37.26
-42.78
-45.63
-44.60
-38.96
-28.78
-15.04
0.57
16.11
29.88
40.73
48.14
52.11
52.87
50.68
45.83
38.67
29.80
20.06
10.45
1.98
-4.59
-8.90
-10.99
-11.19
-9.94
-7.73
-5.03
-2.27
0.12
1.76
2.40
1.98
0.54
-1.89
-5.29
-9.81
-15.56
-22.47
-30.01
-37.13
-42.39
-44.24
-41.55
-33.97
-22.14
-7.51
8.04
22.72
35.24
44.89
51.51
55.20
56.17
54.64
50.89
45.39
38.77
31.85
25.43
20.14
16.35
14.15
13.42
13.87
15.22
17.09
19.14
20.94
22.09
22.24
21.15
18.78
15.24
10.71
5.45
-0.35
-6.48
-12.60
-18.14
-22.19
-23.62
-21.32
-14.67
-3.80
10.24
25.69
40.57
53.17
62.41
67.94
69.87
68.51
64.20
57.23
48.02
37.29
26.03
15.37
6.37
-0.27
-4.27
-5.79
-5.28
-3.31
-0.45
2.78
5.92
8.52
10.09
10.19
8.51
4.94
-0.38
-7.11
-14.76
-22.79
-30.53
-37.11
-41.46
-42.45
-39.17
-31.36
-19.62
-5.33
9.65
23.55
35.07
43.53
48.75
50.78
49.73
45.75
39.19
30.75
21.46
12.46
4.75
-1.11
-5.04
-7.34
-8.47
-8.83
-8.69
-8.19
-7.48
-6.74
-6.22
-6.24
-7.17
-9.34
-13.02
-18.33
-25.11
-32.81
-40.48
-46.89
-50.72
-50.90
-46.92
-38.96
-27.93
-15.14
-2.13
9.73
19.42
26.31
30.17
31.04
29.16
24.89
18.71
11.23
3.23
-4.47
-11.11
-16.19
-19.57
-21.45
-22.31
-22.69
-23.01
-23.48
-24.06
-24.62
-25.11
-25.69
-26.71
-28.67
-32.03
-37.08
-43.77
-51.70
-60.09
-67.79
-73.42
-75.68
-73.61
-66.99
-56.40
-43.20
-29.12
-15.84
-4.61
3.85
9.33
11.92
11.82
9.32
4.85
-0.97
-7.28
-13.16
-17.80
-20.70
-21.80
-21.43
-20.17
-18.65
-17.32
-16.39
-15.85
-15.54
-15.38
-15.45
-15.97
-17.30
-19.79
-23.65
-28.95
-35.43
-42.50
-49.15
-54.06
-55.78
-53.15
-45.63
-33.66
-18.50
-2.01
13.83
27.41
37.76
44.57
48.06
48.63
46.71
42.61
36.64
29.23
21.13
13.34
6.92
2.59
0.56
0.42
1.37
2.58
3.48
3.86
3.74
3.15
2.02
0.10
-2.84
-6.95
-12.28
-18.75
-26.26
-34.63
-43.37
-51.65
-58.22
-61.72
-61.12
-56.04
-46.96
-35.16
-22.21
-9.68
1.20
9.65
15.23
17.76
17.31
14.16
8.85
2.11
-5.16
-12.13
-18.12
-22.67
-25.65
-27.16
-27.50
-27.10
-26.42
-25.78
-25.42
-25.40
-25.67
-26.22
-27.10
-28.50
-30.67
-33.84
-38.11
-43.29
-48.86
-53.93
-57.32
-57.88
-54.71
-47.52
-36.74
-23.45
-9.11
4.80
17.05
26.79
33.59
37.30
37.96
35.83
31.34
25.24
18.40
11.80
6.26
2.32
0.12
-0.56
-0.12
1.00
2.39
3.76
4.88
5.59
5.71
5.02
3.23
0.06
-4.77
-11.27
-19.05
-27.18
-34.27
-38.75
-39.19
-34.82
-25.69
-12.72
2.56
18.41
33.18
45.64
55.03
61.00
63.50
62.62
58.62
51.94
43.36
33.91
24.80
17.09
11.40
7.81
5.94
5.09
4.71
4.44
4.20
4.13
4.27
4.54
4.64
4.13
2.53
-0.58
-5.38
-11.77
-19.11
-26.34
-32.05
-34.77
-33.45
-27.73
-18.09
-5.72
7.85
21.11
32.88
42.42
49.29
53.22
54.06
51.78
46.65
39.36
31.00
22.79
15.80
10.55
7.02
4.78
3.28
2.17
1.40
1.09
1.37
2.09
2.90
3.21
2.55
0.55
-2.85
-7.56
-13.26
-19.45
-25.33
-29.91
-32.03
-30.72
-25.46
-16.41
-4.48
8.93
22.24
34.07
43.45
49.86
53.11
53.24
50.46
45.12
37.84
29.43
20.83
12.87
6.14
0.87
-3.00
-5.68
-7.38
-8.20
-8.16
-7.32
-5.81
-3.91
-2.07
-0.73
-0.36
-1.31
-3.81
-7.85
-13.13
-18.91
-24.10
-27.35
-27.53
-23.97
-16.81
-6.83
4.78
16.81
28.28
38.52
46.96
53.11
56.50
56.79
53.97
48.45
40.98
32.51
23.95
16.06
9.33
4.07
0.32
-1.96
-2.98
-2.95
-2.16
-0.91
0.45
1.42
1.53
0.30
-2.61
-7.28
-13.54
-20.81
-28.15
-34.33
-38.07
-38.29
-34.42
-26.61
-15.69
-2.93
10.22
22.51
32.98
40.96
46.07
48.11
47.10
43.27
37.17
29.60
21.50
13.82
7.25
2.16
-1.46
-3.82
-5.22
-5.87
-5.90
-5.39
-4.51
-3.61
-3.15
-3.70
-5.75
-9.64
-15.38
-22.57
-30.33
-37.38
-42.26
-43.60
-40.58
-33.09
-21.79
-7.89
7.13
21.80
34.92
45.56
53.10
57.16
57.67
54.85
49.25
41.74
33.30
24.91
17.33
11.00
6.01
2.26
-0.49
-2.44
-3.81
-4.76
-5.47
-6.12
-6.92
-8.17
-10.20
-13.36
-17.94
-23.95
-31.01
-38.23
-44.37
-48.00
-47.95
-43.57
-35.03
-23.24
-9.67
4.01
16.30
26.07
32.67
35.79
35.43
31.85
25.56
17.45
8.67
0.46
-6.15
-10.67
-13.14
-14.04
-13.98
-13.43
-12.62
-11.58
-10.35
-9.15
-8.36
-8.45
-9.90
-13.01
-17.85
-24.13
-31.21
-38.08
-43.43
-45.90
-44.35
-38.27
-27.93
-14.41
0.73
15.77
29.21
40.00
47.57
51.76
52.63
50.40
45.47
38.38
29.92
21.00
12.51
5.19
-0.55
-4.64
-7.19
-8.50
-8.79
-8.29
-7.20
-5.80
-4.50
-3.85
-4.43
-6.67
-10.71
-16.18
-22.21
-27.53
-30.67
-30.37
-25.91
-17.37
-5.55
8.16
22.25
35.35
46.48
55.10
60.91
63.74
63.42
59.88
53.33
44.38
34.06
23.61
14.22
6.60
1.03
-2.73
-5.09
-6.41
-6.90
-6.58
-5.57
-4.11
-2.74
-2.18
-3.20
-6.31
-11.63
-18.71
-26.50
-33.55
-38.24
-39.30
-36.07
-28.69
-18.01
-5.33
7.99
20.74
32.00
41.10
47.49
50.83
50.95
48.04
42.65
35.57
27.68
19.74
12.31
5.69
0.03
-4.58
-8.05
-10.30
-11.30
-11.13
-10.10
-8.65
-7.33
-6.68
-7.18
-9.15
-12.71
-17.68
-23.51
-29.22
-33.52
-35.07
-32.83
-26.43
-16.28
-3.57
10.15
23.35
34.81
43.76
49.80
52.72
52.44
49.02
42.74
34.17
24.17
13.71
3.74
-4.98
-11.97
-17.04
-20.20
-21.65
-21.70
-20.69
-18.99
-16.93
-14.89
-13.32
-12.75
-13.74
-16.64
-21.43
-27.48
-33.59
-38.24
-39.98
-37.85
-31.65
-22.02
-10.17
2.47
14.59
25.18
33.60
39.37
42.11
41.59
37.83
31.27
22.84
13.76
5.21
-1.95
-7.36
-11.15
-13.70
-15.37
-16.39
-16.87
-16.84
-16.39
-15.77
-15.35
-15.57
-16.94
-19.84
-24.44
-30.46
-37.12
-43.19
-47.20
-47.87
-44.40
-36.82
-25.87
-12.87
0.66
13.39
24.36
33.03
39.16
42.67
43.48
41.54
37.04
30.47
22.72
14.90
8.08
2.88
-0.58
-2.70
-4.07
-5.13
-6.04
-6.64
-6.73
-6.28
-5.60
-5.33
-6.20
-8.85
-13.53
-20.02
-27.54
-34.84
-40.42
-42.81
-40.97
-34.54
-23.99
-10.51
4.27
18.70
31.39
41.44
48.37
52.02
52.45
49.82
44.47
36.99
28.23
19.18
10.79
3.69
-1.91
-6.17
-9.41
-11.84
-13.46
-14.10
-13.62
-12.15
-10.18
-8.45
-7.73
-8.65
-11.53
-16.37
-22.81
-30.14
-37.27
-42.79
-45.17
-43.19
-36.35
-25.06
-10.65
5.06
20.26
33.51
43.99
51.35
55.52
56.45
54.16
48.80
40.76
30.89
20.20
9.87
0.87
-6.12
-10.86
-13.43
-14.19
-13.61
-12.23
-10.52
-8.85
-7.50
-6.67
-6.56
-7.44
-9.64
-13.48
-19.02
-25.94
-33.33
-39.80
-43.71
-43.66
-38.86
-29.43
-16.44
-1.53
13.45
26.87
37.72
45.49
50.19
51.97
51.00
47.46
41.59
33.92
25.33
16.91
9.74
4.56
1.61
0.62
1.00
2.10
3.39
4.57
5.48
6.03
6.08
5.34
3.44
0.02
-5.16
-12.08
-20.36
-29.20
-37.48
-43.90
-47.20
-46.42
-41.22
-31.90
-19.44
-5.25
9.09
22.17
32.93
40.69
45.12
46.18
44.06
39.13
32.03
23.59
14.76
6.48
-0.46
-5.60
-8.82
-10.33
-10.57
-10.01
-9.04
-7.88
-6.70
-5.68
-5.07
-5.26
-6.66
-9.63
-14.31
-20.53
-27.78
-35.13
-41.33
-44.99
-44.94
-40.55
-31.97
-20.12
-6.41
7.59
20.58
31.58
40.01
45.45
47.65
46.44
41.88
34.45
24.99
14.76
5.09
-2.87
-8.48
-11.70
-13.05
-13.28
-13.02
-12.68
-12.31
-11.87
-11.37
-11.01
-11.18
-12.29
-14.76
-18.80
-24.39
-31.18
-38.36
-44.69
-48.65
-48.82
-44.35
-35.25
-22.47
-7.60
7.58
21.56
33.34
42.39
48.51
51.59
51.50
48.26
42.11
33.75
24.24
14.83
6.67
0.51
-3.46
-5.56
-6.40
-6.60
-6.56
-6.38
-6.01
-5.39
-4.74
-4.49
-5.24
-7.53
-11.63
-17.53
-24.88
