1553101559.00
64.000000
-0.00
-0.00
-0.00
-0.00
-0.00
-0.00
-0.00
-0.00
-0.00
-0.00
0.00
0.01
0.01
-0.00
-0.03
-0.05
-0.05
0.00
0.13
0.36
0.66
1.01
1.37
1.72
2.06
2.40
2.79
3.24
3.80
4.42
5.06
5.66
6.20
6.68
7.15
7.68
8.31
9.14
10.09
11.04
11.88
12.56
13.14
13.76
14.65
15.96
17.91
20.32
22.90
25.38
27.58
29.57
31.68
34.32
37.81
42.54
48.15
54.10
59.83
64.97
69.58
74.14
79.34
85.71
93.76
103.00
112.62
121.73
129.77
136.75
143.30
150.75
157.77
166.64
177.95
191.79
206.97
220.57
228.25
225.36
208.53
176.87
132.76
80.05
23.07
-34.94
-92.44
-149.16
-205.23
-260.37
-313.74
-363.87
-409.83
-450.91
-486.50
-515.74
-537.23
-549.22
-549.96
-538.37
-514.21
-478.67
-433.88
-382.45
-327.02
-269.84
-212.63
-156.66
-102.95
-52.37
-5.90
35.58
71.43
101.35
125.50
144.38
158.69
169.15
176.37
180.75
182.57
182.07
179.51
175.23
169.65
163.18
156.15
148.81
141.30
133.69
126.02
118.33
110.69
103.16
95.80
88.68
81.83
75.25
68.95
62.95
57.25
51.86
46.78
42.03
37.59
33.45
29.61
26.07
22.81
19.83
17.11
14.67
12.48
10.54
8.83
7.35
6.07
4.97
4.05
3.27
2.62
2.09
1.65
1.30
1.01
0.79
0.61
0.47
0.37
0.29
0.23
0.19
0.16
0.14
0.14
0.15
0.16
0.18
0.21
0.24
0.28
0.32
0.37
0.41
0.46
0.51
0.55
0.60
0.66
0.73
0.81
0.89
0.95
0.98
0.98
0.97
0.97
1.01
1.11
1.26
1.45
1.65
1.83
1.97
2.11
2.26
2.49
2.81
3.22
3.67
4.11
4.50
4.81
5.08
5.40
5.85
6.49
7.31
8.19
8.98
9.57
9.90
10.09
10.32
10.84
11.77
13.07
14.50
15.71
16.39
16.39
15.82
14.96
14.12
13.43
12.73
11.53
9.22
5.33
-0.20
-7.01
-14.27
-21.16
-27.05
-31.78
-35.58
-38.95
-42.34
-46.09
-50.43
-55.38
-60.47
-64.53
-65.72
-62.13
-52.72
-38.08
-20.63
-3.82
9.19
16.71
19.07
18.08
15.99
14.40
13.79
13.84
13.91
13.66
13.14
12.58
12.10
11.59
10.82
9.52
7.61
5.31
3.10
1.46
0.61
0.41
0.34
-0.16
-1.35
-2.90
-3.95
-3.43
-0.62
4.45
10.90
17.34
22.36
25.00
25.05
22.96
19.58
15.77
12.16
8.98
6.23
3.82
1.68
-0.09
-1.31
-1.89
-1.63
-0.40
1.84
5.03
8.97
13.33
17.66
21.45
24.19
25.54
25.39
23.87
21.35
18.38
15.52
13.20
11.61
10.58
9.62
8.05
5.25
0.97
-4.48
-10.26
-15.21
-18.17
-18.35
-15.48
-9.86
-2.22
6.47
15.26
23.22
29.66
34.16
36.59
37.16
36.26
34.29
31.63
28.40
24.67
20.52
16.17
12.00
8.49
6.01
4.75
4.54
5.01
5.63
5.92
5.54
4.33
2.29
-0.45
-3.70
-7.21
-10.73
-14.00
-16.79
-19.07
-20.96
-22.71
-24.53
-26.37
-27.76
-27.90
-25.92
-21.22
-13.86
-4.58
5.33
14.45
21.52
25.77
26.97
25.34
21.46
16.12
10.20
4.48
-0.37
-3.96
-6.09
-6.76
-6.08
-4.22
-1.48
1.78
5.07
7.88
9.72
10.25
9.28
6.86
3.23
-1.23
-6.09
-10.98
-15.72
-20.28
-24.66
-28.77
-32.32
-34.73
-35.39
-33.77
-29.78
-23.77
-16.55
-9.16
-2.61
2.32
5.27
6.21
5.35
3.03
-0.41
-4.56
-8.92
-12.81
-15.47
-16.22
-14.74
-11.13
-5.98
-0.16
5.43
10.12
13.58
15.81
17.04
17.51
17.43
16.90
15.96
14.65
12.95
10.83
8.21
4.91
0.84
-4.01
-9.31
-14.38
-18.27
-20.06
-19.12
-15.40
-9.53
-2.63
3.96
9.17
12.43
13.78
13.59
12.37
10.43
7.89
4.76
1.18
-2.45
-5.54
-7.48
-7.96
-7.09
-5.45
-3.81
-2.81
-2.73
-3.39
-4.35
-5.16
-5.56
-5.68
-5.88
-6.58
-7.98
-10.04
-12.55
-15.24
-17.95
-20.58
-22.96
-24.69
-25.09
-23.48
-19.43
-13.14
-5.39
2.51
9.26
13.95
16.34
16.81
16.07
14.85
13.57
12.33
10.94
9.26
7.28
5.22
3.37
1.90
0.81
-0.09
-0.99
-1.95
-2.86
-3.51
-3.81
-3.88
-4.05
-4.76
-6.32
-8.87
-12.30
-16.33
-20.52
-24.33
-27.17
-28.44
-27.73
-24.89
-20.22
-14.36
-8.15
-2.44
2.18
5.47
7.48
8.48
8.76
8.59
8.10
7.35
6.36
5.12
3.66
2.00
0.22
-1.61
-3.37
-4.92
-6.10
-6.78
-6.89
-6.41
-5.44
-4.14
-2.73
-1.51
-0.79
-0.95
-2.33
-5.20
-9.63
-15.36
-21.70
-27.59
-31.75
-33.09
-31.00
-25.64
-17.86
-9.00
-0.45
6.66
11.70
14.53
15.39
14.65
12.70
9.83
6.38
2.70
-0.72
-3.35
-4.77
-4.77
-3.57
-1.64
0.32
1.75
2.27
1.81
0.51
-1.45
-3.91
-6.76
-9.83
-12.86
-15.49
-17.42
-18.57
-19.15
-19.69
-20.70
-22.45
-24.70
-26.77
-27.74
-26.83
-23.76
-18.81
-12.75
-6.42
-0.55
4.50
8.62
11.79
13.99
15.10
14.95
13.49
10.84
7.31
3.35
-0.61
-4.22
-7.24
-9.49
-10.84
-11.23
-10.72
-9.63
-8.50
-7.97
-8.59
-10.60
-13.86
-17.89
-22.12
-26.10
-29.65
-32.90
-36.19
-40.00
-44.67
-50.29
-56.54
-62.76
-68.05
-71.55
-72.66
-71.21
-67.51
-62.22
-56.15
-50.13
-44.76
-40.34
-36.73
-33.47
-29.80
-25.01
-18.57
-10.35
-0.56
10.33
21.73
33.08
43.80
53.36
61.23
66.89
70.00
70.44
68.44
64.54
59.49
54.08
48.97
44.50
40.68
37.23
33.77
29.91
25.35
19.91
13.58
6.58
-0.64
-7.35
-12.60
-15.46
-15.29
-12.01
-6.24
0.86
7.89
13.69
17.66
19.87
20.88
21.39
21.85
22.31
22.52
22.20
21.26
19.86
18.38
17.12
16.25
15.66
15.19
14.70
14.12
13.54
13.07
12.72
12.45
12.09
11.40
10.19
8.38
6.14
3.84
1.87
0.47
-0.52
-1.63
-3.60
-7.02
-12.05
-18.37
-25.20
-31.57
-36.54
-39.39
-39.63
-37.10
-31.95
-24.67
-16.05
-6.99
1.58
9.00
14.87
19.16
22.00
23.64
24.33
24.29
23.77
23.08
22.65
22.88
24.10
26.37
29.46
32.91
36.11
38.52
39.78
39.72
38.34
35.75
32.09
27.51
22.19
16.34
10.22
4.09
-1.71
-6.83
-10.92
-13.73
-15.18
-15.47
-15.05
-14.54
-14.46
-15.10
-16.37
-17.73
-18.46
-17.84
-15.44
-11.30
-5.93
-0.07
5.54
10.44
14.44
17.63
20.09
21.80
22.68
22.68
21.93
20.82
19.86
19.47
19.80
20.68
21.76
22.61
22.93
22.64
21.76
20.47
18.95
17.36
15.77
14.19
12.58
10.88
9.09
7.16
5.07
2.73
0.05
-3.07
-6.66
-10.71
-15.25
-20.33
-25.99
-32.10
-38.12
-43.09
-45.81
-45.18
-40.62
-32.34
-21.25
-8.78
3.53
14.35
22.73
28.19
30.60
30.21
27.60
23.60
19.24
15.56
13.41
13.21
14.91
17.93
21.43
24.50
26.49
27.08
26.37
24.68
22.45
19.98
17.39
14.67
11.74
8.63
5.48
2.54
0.02
-2.14
-4.24
-6.72
-9.97
-14.17
-19.14
-24.47
-29.59
-33.91
-36.88
-37.97
-36.74
-32.94
-26.65
-18.37
-9.02
0.21
8.20
14.14
17.73
19.14
18.84
17.45
15.48
13.34
11.30
9.57
8.35
7.79
7.91
8.60
9.61
10.57
11.18
11.26
10.82
9.97
8.90
7.76
6.53
5.12
3.39
1.30
-1.07
-3.54
-5.81
-7.79
-9.52
-11.34
-13.68
-16.85
-20.77
-24.88
-28.21
-29.76
-28.78
-25.10
-19.12
-11.58
-3.36
4.79
12.26
18.48
22.92
25.15
24.99
22.67
18.84
14.40
10.30
7.22
5.51
5.12
5.78
7.11
8.73
10.27
11.45
11.98
11.66
10.39
8.23
5.35
2.02
-1.44
-4.75
-7.75
-10.36
-12.58
-14.52
-16.33
-18.24
-20.48
-23.22
-26.51
-30.10
-33.47
-35.81
-36.29
-34.27
-29.53
-22.44
-13.84
-4.85
3.45
10.30
15.37
18.71
20.56
21.24
20.98
19.93
18.25
16.20
14.17
12.56
11.64
11.44
11.70
11.97
11.87
11.25
10.17
8.89
7.60
6.34
4.95
3.20
0.95
-1.79
-4.79
-7.81
-10.62
-13.17
-15.60
-18.16
-21.15
-24.71
-28.78
-32.91
-36.35
-38.19
-37.63
-34.28
-28.32
-20.44
-11.64
-2.94
4.91
11.43
16.40
19.71
21.36
21.40
20.10
17.91
15.44
13.28
11.86
11.31
11.46
11.99
12.53
12.83
12.84
12.64
12.46
12.37
12.33
12.04
11.15
9.39
6.77
3.56
0.19
-2.92
-5.59
-7.88
-10.09
-12.63
-15.87
-19.97
-24.83
-29.96
-34.63
-37.93
-39.07
-37.54
-33.30
-26.81
-18.86
-10.39
-2.33
4.62
10.00
13.64
15.65
16.29
15.99
15.12
14.06
13.00
12.04
11.21
10.50
9.97
9.69
9.69
9.92
10.23
10.38
10.13
9.36
8.05
6.26
4.10
1.66
-1.07
-4.05
-7.21
-10.39
-13.47
-16.43
-19.45
-22.92
-27.18
-32.37
-38.13
-43.60
-47.60
-48.97
-47.05
-41.81
-33.93
-24.47
-14.56
-5.15
3.14
9.94
15.04
18.30
19.75
19.59
18.26
16.41
14.72
13.70
13.49
13.96
14.69
15.31
15.62
15.64
15.57
15.46
15.23
14.55
13.07
10.59
7.23
3.40
-0.44
-3.94
-7.08
-10.06
-13.28
-17.04
-21.49
-26.59
-32.13
-37.79
-43.05
-47.26
-49.59
-49.26
-45.71
-38.87
-29.29
-18.07
-6.61
3.76
12.05
17.85
21.20
22.53
22.41
21.35
19.73
17.83
15.93
14.33
13.35
13.19
13.88
15.19
16.65
17.80
18.34
18.19
17.47
16.38
15.01
13.29
11.02
8.05
4.40
0.35
-3.71
-7.45
-10.82
-14.09
-17.74
-22.21
-27.70
-33.92
-40.07
-44.95
-47.25
-45.98
-40.76
-32.03
-20.92
-8.93
2.46
12.17
19.64
24.72
27.53
28.29
27.28
24.95
21.87
18.80
16.41
15.12
14.94
15.48
16.16
16.41
15.94
14.75
13.08
11.16
9.00
6.41
3.04
-1.30
-6.58
-12.44
-18.41
-24.11
-29.46
-34.68
-40.21
-46.51
-53.82
-62.12
-70.93
-79.39
-86.36
-90.63
-91.26
-87.87
-80.70
-70.54
-58.44
-45.35
-32.03
-18.90
-6.22
5.86
17.19
27.74
37.53
46.63
55.10
62.89
69.75
75.33
79.34
81.61
82.27
81.64
80.12
77.96
75.23
71.81
67.54
62.41
56.58
50.45
44.41
38.73
33.43
28.32
23.06
17.33
10.91
3.73
-4.02
-11.92
-19.24
-24.98
-28.13
-27.87
-23.89
-16.51
-6.71
4.20
14.78
23.82
30.51
34.53
36.01
35.40
33.40
30.66
27.72
24.93
22.50
20.57
19.34
18.95
19.42
20.52
21.67
22.27
21.81
20.12
17.41
14.08
10.55
7.00
3.48
-0.06
-3.59
-6.97
-10.01
-12.76
-15.48
-18.68
-22.76
-27.72
-32.97
-37.41
-39.74
-38.91
-34.48
-26.75
-16.62
-5.29
6.06
16.41
25.00
31.26
34.80
35.49
33.47
29.26
23.73
17.94
12.90
9.37
7.64
7.56
8.70
10.47
12.42
14.22
15.74
16.94
17.75
18.04
17.58
16.10
13.44
9.65
4.98
-0.16
-5.32
-10.24
-14.84
-19.23
-23.58
-27.81
-31.50
-33.91
-34.19
-31.73
-26.38
-18.60
-9.28
0.50
9.78
17.82
24.19
28.59
30.91
31.15
29.55
26.62
23.16
20.05
18.07
17.62
18.62
20.58
22.81
24.74
26.06
26.78
27.03
26.83
26.02
24.27
21.41
17.57
13.26
9.18
5.93
3.70
2.22
0.90
-0.94
-3.77
-7.82
-13.05
-19.14
-25.52
-31.34
-35.58
-37.23
-35.61
-30.61
-22.81
-13.44
-4.03
3.91
9.30
11.69
11.32
9.00
5.74
2.51
-0.11
-1.95
-3.18
-4.09
-4.90
-5.65
-6.24
-6.53
-6.24
-5.06
-2.51
1.75
7.81
15.07
22.32
28.07
31.01
30.64
27.39
22.33
16.61
10.89
5.15
-1.11
-8.30
-16.30
-24.22
-30.69
-34.36
-34.37
-30.73
-24.18
-15.90
-7.10
1.32
8.83
15.13
19.99
23.16
24.43
23.85
21.77
18.85
15.83
13.30
11.51
10.34
9.45
8.51
7.33
5.98
4.64
3.48
2.55
1.71
0.75
-0.51
-2.15
-4.12
-6.25
-8.38
-10.40
-12.38
-14.49
-17.06
-20.42
-24.74
-29.79
-34.84
-38.83
-40.56
-39.22
-34.60
-27.24
-18.23
-8.83
-0.14
7.12
12.63
16.37
18.41
18.92
18.14
16.42
14.26
12.21
10.75
10.08
10.10
10.49
10.86
10.91
10.59
10.01
9.25
8.30
6.97
5.06
2.47
-0.72
-4.20
-7.65
-10.83
-13.69
-16.41
-19.28
-22.67
-26.86
-31.82
-37.10
-41.86
-44.98
-45.47
-42.72
-36.80
-28.42
-18.66
-8.72
0.46
8.23
14.22
18.33
20.57
21.14
20.39
18.78
16.77
14.71
12.70
10.71
8.63
6.43
4.28
2.45
1.20
0.64
0.60
0.76
0.72
0.18
-0.93
-2.52
-4.42
-6.50
-8.73
-11.18
-14.02
-17.37
-21.37
-26.02
-31.10
-36.11
-40.18
-42.34
-41.70
-37.83
-30.89
-21.68
-11.39
-1.28
7.57
14.53
19.35
22.17
23.28
23.02
21.75
19.78
17.39
14.85
12.39
10.20
8.37
6.89
5.69
4.70
3.90
3.36
3.08
2.97
2.80
2.27
1.18
-0.50
-2.57
-4.67
-6.42
-7.68
-8.54
-9.38
-10.80
-13.37
-17.50
-23.16
-29.74
-36.17
-40.98
-42.89
-41.12
-35.67
-27.36
-17.52
-7.50
1.58
9.12
14.89
18.94
21.39
22.42
22.25
21.25
19.87
18.55
17.56
16.96
16.57
16.14
15.47
14.57
13.61
12.81
12.28
11.93
11.51
10.74
9.50
7.78
5.71
3.41
0.88
-1.90
-4.97
-8.21
-11.41
-14.42
-17.27
-20.29
-23.97
-28.69
-34.33
-40.12
-44.75
-46.81
-45.27
-39.94
-31.54
-21.44
-11.17
-1.96
5.58
11.33
15.52
18.37
20.00
20.39
19.62
17.92
15.78
13.77
12.43
12.02
12.43
13.29
14.07
14.36
14.02
13.20
12.27
11.58
11.30
11.31
11.20
10.52
8.97
6.52
3.45
0.16
-2.97
-5.79
-8.32
-10.72
-13.23
-16.12
-19.67
-24.11
-29.38
-35.06
-40.26
-43.81
-44.56
-41.86
-35.80
-27.18
-17.29
-7.49
1.15
7.99
12.84
15.83
17.25
17.43
16.68
15.34
13.74
12.16
10.92
10.25
10.23
10.79
11.68
12.53
13.05
13.13
12.89
12.58
12.42
12.44
12.43
12.02
10.92
9.09
6.76
4.34
2.16
0.32
-1.33
-3.11
-5.35
-8.29
-12.11
-16.85
-22.50
-28.76
-35.01
-40.28
-43.43
-43.53
-40.22
-33.82
-25.31
-15.89
-6.71
1.41
8.01
12.89
16.03
17.47
17.39
16.17
14.33
12.47
11.10
10.52
10.72
11.48
12.41
13.19
13.59
13.55
13.18
12.64
12.16
11.83
11.62
11.33
10.67
9.34
7.19
4.33
1.08
-2.10
-4.83
-6.93
-8.56
-10.06
-11.97
-14.74
-18.68
-23.79
-29.63
-35.36
-39.75
-41.60
-40.03
-34.89
-26.82
-17.05
-7.00
2.17
9.82
15.76
20.07
22.84
24.09
23.90
22.49
20.35
18.14
16.41
15.50
15.39
15.77
16.30
16.70
16.97
17.24
17.68
18.32
19.04
19.52
19.44
18.53
16.72
14.05
10.70
6.87
2.78
-1.36
-5.36
-9.11
-12.61
-16.00
-19.54
-23.55
-28.22
-33.46
-38.83
-43.46
-46.28
-46.31
-42.98
-36.34
-27.14
-16.53
-5.82
3.91
11.97
18.06
22.14
24.26
24.58
23.40
21.23
18.73
16.59
15.35
15.21
16.07
17.59
19.33
20.94
22.16
22.95
23.34
23.39
23.10
22.39
21.08
19.02
16.14
12.63
8.82
5.11
1.77
-1.16
-3.94
-6.95
-10.62
-15.20
-20.76
-27.05
-33.57
-39.54
-44.06
-46.25
-45.45
-41.44
-34.50
-25.38
-15.14
-4.97
4.11
11.36
16.42
19.23
19.99
19.06
16.85
13.92
10.94
8.60
7.50
7.90
9.62
12.14
14.83
17.22
19.14
20.64
21.75
22.34
22.03
20.44
17.39
13.07
7.97
2.72
-2.18
-6.54
-10.46
-14.26
-18.25
-22.68
-27.58
-32.75
-37.73
-41.82
-44.22
-44.10
-40.89
-34.46
-25.27
-14.31
-2.87
7.71
16.35
22.38
25.63
26.31
24.93
22.14
18.62
14.99
11.66
8.96
7.01
5.87
5.51
5.88
6.84
8.12
9.34
10.07
9.91
8.70
6.49
3.60
0.41
-2.68
-5.55
-8.21
-10.98
-14.18
-18.14
-23.00
-28.69
-34.91
-41.12
-46.55
-50.24
-51.27
-48.91
-42.97
-33.97
-23.02
-11.59
-1.10
7.44
13.58
17.36
19.14
19.46
18.80
17.60
16.21
14.93
13.92
13.25
12.97
13.11
13.69
14.65
15.77
16.66
16.89
16.10
14.20
11.39
8.07
4.68
1.50
-1.43
-4.27
-7.26
-10.66
-14.67
-19.41
-24.95
-31.09
-37.33
-42.73
-46.07
-46.16
-42.24
-34.36
-23.43
-11.03
1.12
11.55
19.53
24.96
28.21
29.81
30.13
29.37
27.60
24.97
21.79
18.58
15.91
14.21
13.61
13.98
14.94
16.05
16.87
17.03
16.27
14.41
11.42
7.48
2.96
-1.64
-5.73
-8.89
-10.99
-12.28
-13.36
-14.94
-17.53
-21.16
-25.27
-28.82
-30.61
-29.62
-25.39
-18.14
-8.71
1.72
11.94
20.99
28.28
33.63
37.06
38.69
38.65
37.04
34.04
29.95
25.24
20.42
15.95
12.16
9.21
7.12
5.86
5.38
5.62
6.44
7.61
8.78
9.58
9.67
8.82
6.98
4.14
0.35
-4.37
-10.06
-16.74
-24.18
-31.79
-38.56
-43.19
-44.53
-41.89
-35.41
-25.94
-14.89
-3.68
6.54
15.06
21.55
25.88
27.96
27.80
25.60
21.93
17.67
13.84
11.31
10.55
11.46
13.45
15.67
17.25
17.59
16.45
13.95
10.44
6.42
2.31
-1.54
-5.00
-8.10
-11.00
-14.00
-17.42
-21.46
-26.03
-30.68
-34.59
-36.78
-36.38
-32.97
-26.72
-18.36
-9.01
0.16
8.16
14.37
18.48
20.43
20.32
18.37
15.00
10.75
6.33
2.43
-0.38
-1.82
-1.96
-1.16
0.03
1.04
1.47
1.12
0.07
-1.44
-3.15
-4.85
-6.52
-8.32
-10.44
-13.10
-16.38
-20.23
-24.38
-28.36
-31.44
-32.75
-31.52
-27.28
-20.14
-10.80
-0.45
9.59
18.20
24.75
29.09
31.41
32.02
31.22
29.22
26.25
22.65
18.85
15.30
12.35
10.13
8.51
7.15
5.67
3.75
1.23
-1.80
-5.12
-8.44
-11.54
-14.30
-16.79
-19.24
-21.97
-25.28
-29.39
-34.25
-39.50
-44.32
-47.64
-48.30
-45.48
-38.99
-29.42
-17.98
-6.14
4.83
14.07
21.24
26.36
29.65
31.39
31.90
31.52
30.63
29.57
28.59
27.82
27.22
26.68
26.10
25.38
24.52
23.48
22.22
20.63
18.57
15.95
12.75
9.05
5.04
0.90
-3.24
-7.44
-11.87
-16.79
-22.34
-28.37
-34.34
-39.30
-42.12
-41.82
-37.92
-30.56
-20.56
-9.21
2.15
12.37
20.72
26.96
31.16
33.58
34.60
34.61
34.03
33.19
32.33
31.53
30.69
29.65
28.33
26.73
24.98
23.24
21.62
20.12
18.58
16.79
14.55
11.74
8.38
4.60
0.65
-3.24
-6.91
-10.31
-13.57
-16.93
-20.67
-25.01
-29.98
-35.23
-40.01
-43.30
-44.00
-41.32
-35.10
-25.92
-14.90
-3.42
7.29
16.40
23.52
28.63
31.91
33.63
34.04
33.45
32.19
30.57
28.93
27.52
26.47
25.81
25.41
25.13
24.74
24.12
23.24
22.20
21.08
19.94
18.63
16.87
14.38
10.97
6.73
2.01
-2.69
-6.92
-10.45
-13.26
-15.50
-17.40
-19.22
-21.23
-23.70
-26.80
-30.49
-34.32
-37.47
-38.89
-37.75
-33.69
-27.04
-18.64
-9.57
-0.78
7.11
13.82
19.32
23.68
26.92
29.04
30.04
29.92
28.78
26.81
24.31
21.58
18.92
16.54
14.55
12.98
11.82
11.06
10.69
10.59
10.58
10.41
9.83
8.66
6.86
4.46
1.55
-1.77
-5.38
-9.06
-12.56
-15.60
-18.00
-19.86
-21.56
-23.69
-26.82
-31.14
-36.26
-41.20
-44.60
-45.19
-42.23
-35.81
-26.78
-16.45
-6.17
3.09
10.80
16.84
21.25
24.14
25.77
26.58
27.24
28.51
30.98
34.79
39.63
44.82
49.62
53.50
56.19
57.57
57.56
55.93
52.44
46.92
39.44
30.38
20.31
9.89
-0.25
-9.64
-18.02
-25.28
-31.46
-36.72
-41.32
-45.54
-49.62
-53.65
-57.43
-60.45
-61.91
-60.98
-57.04
-49.96
-40.25
-28.96
-17.45
-6.97
1.62
8.01
12.36
15.06
16.56
17.21
17.27
17.00
16.61
16.32
16.22
16.30
16.47
16.65
16.82
16.93
16.91
16.50
15.41
13.40
10.42
6.69
2.63
-1.33
-4.90
-7.95
-10.56
-12.89
-15.09
-17.30
-19.62
-22.19
-25.13
-28.50
-32.13
-35.54
-37.92
-38.26
-35.76
-30.11
-21.81
-12.02
-2.24
6.20
12.49
16.52
18.63
19.32
18.99
17.86
16.12
14.04
12.04
10.56
9.86
9.95
10.55
11.22
11.63
11.64
11.34
10.87
10.33
9.60
8.44
6.56
3.87
0.51
-3.15
-6.67
-9.72
-12.23
-14.41
-16.68
-19.56
-23.39
-28.22
-33.59
-38.63
-42.16
-43.11
-40.83
-35.36
-27.40
-18.08
-8.61
0.00
7.12
12.42
15.81
17.37
17.29
15.95
13.83
11.48
9.38
7.84
6.94
6.57
6.50
6.48
6.40
6.20
5.92
5.57
5.04
4.18
2.75
0.68
-1.97
-4.96
-7.98
-10.74
-13.17
-15.32
-17.39
-19.61
-22.23
-25.42
-29.13
-32.99
-36.24
-37.91
-37.02
-33.02
-25.99
-16.67
-6.31
3.76
12.44
19.09
23.52
25.87
26.43
25.50
23.41
20.54
17.36
14.38
12.04
10.55
9.87
9.73
9.77
9.73
9.49
9.05
8.37
7.33
5.74
3.44
0.48
-2.89
-6.29
-9.40
-12.11
-14.55
-16.97
-19.68
-22.85
-26.45
-30.17
-33.40
-35.35
-35.19
-32.37
-26.84
-19.06
-9.98
-0.74
7.62
14.40
19.20
21.90
22.59
21.47
18.92
15.51
11.94
8.91
6.99
6.45
7.15
8.69
10.46
11.94
12.75
12.77
12.05
10.79
9.10
7.09
4.76
2.13
-0.76
-3.84
-7.06
-10.46
-14.17
-18.34
-23.03
-28.00
-32.70
-36.25
-37.58
-35.73
-30.14
-20.83
-8.51
5.64
20.19
33.83
45.60
54.93
61.64
65.73
67.35
66.76
64.31
60.50
55.86
50.96
46.29
42.14
38.65
35.76
33.28
31.02
28.85
26.80
24.95
23.39
22.03
20.56
18.46
15.29
10.84
5.25
-1.00
-7.32
-13.20
-18.41
-22.99
-27.07
-30.73
-33.82
-35.97
-36.69
-35.63
-32.83
-28.75
-24.26
-20.43
-18.22
-18.25
-20.68
-25.27
-31.43
-38.35
-45.11
-50.81
-54.62
-56.04
-55.06
-52.23
-48.51
-45.11
-43.10
-43.21
-45.73
-50.55
-57.25
-65.27
-73.99
-82.93
-91.84
-100.79
-110.14
-120.42
-132.05
-145.04
-158.76
-171.98
-183.01
-190.22
-192.45
-189.31
-181.22
-169.15
-154.31
-137.86
-120.81
-104.05
-88.37
-74.32
-62.14
-51.44
-41.40
-31.04
-19.83
-8.05
3.10
11.85
16.64
16.79
12.85
6.50
-0.14
-5.28
-8.04
-8.46
-7.07
-4.43
-0.84
3.64
8.81
14.03
18.34
20.89
21.39
20.41
19.12
18.70
19.99
23.31
28.78
36.69
47.49
61.59
78.68
97.34
115.03
128.86
136.67
137.99
134.26
128.22
122.56
118.85
117.12
116.31
115.21
113.22
110.57
107.89
105.44
102.73
98.84
93.05
85.46
77.09
69.39
63.40
59.28
56.26
53.11
48.77
42.87
35.95
29.13
23.70
20.52
19.76
20.94
23.27
26.09
29.05
32.04
34.96
37.45
39.00
39.20
38.02
35.90
33.50
31.33
29.55
27.98
26.48
25.17
24.53
25.27
27.91
32.51
38.57
45.13
51.11
55.68
58.50
59.88
60.62
61.58
63.32
65.76
68.32
70.19
70.72
69.76
67.57
64.75
61.99
59.82
58.63
58.67
60.03
62.73
66.66
71.50
76.74
81.59
85.17
86.62
85.48
81.78
76.15
69.50
62.81
56.74
51.56
47.25
43.61
40.41
37.31
33.76
28.95
21.91
11.89
-1.40
-17.57
-35.64
-54.37
-72.62
-89.65
-105.16
-119.22
-131.96
-143.48
-153.71
-162.46
-169.35
-173.87
-175.31
-172.86
-165.88
-154.11
-138.01
-118.76
-97.93
-77.21
-57.91
-40.85
-26.47
-15.06
-6.89
-2.20
-0.93
-2.59
-6.19
-10.39
-13.85
-15.56
-15.04
-12.44
-8.36
-3.69
0.70
4.19
6.57
7.97
8.69
8.99
8.93
8.41
7.30
5.61
3.55
1.32
-1.04
-3.89
-7.76
-13.05
-19.67
-26.83
-33.17
-37.18
-37.80
-34.66
-28.29
-19.79
-10.55
-1.84
5.37
10.57
13.66
14.97
15.08
14.68
14.29
14.16
14.21
14.20
13.92
13.31
12.49
11.66
10.91
10.22
9.51
8.73
8.01
7.50
7.29
7.17
6.70
5.36
2.84
-0.67
-4.49
-7.71
-9.60
-10.04
-9.67
-9.58
-10.89
-14.13
-18.94
-24.15
-28.18
-29.61
-27.62
-22.23
-14.11
-4.28
6.24
16.67
26.51
35.43
43.20
49.57
54.36
57.56
59.36
60.14
60.37
60.48
60.79
61.47
62.61
64.26
66.33
68.59
70.65
72.07
72.55
72.07
70.88
69.34
67.66
65.80
63.54
60.64
57.12
53.21
49.13
44.84
39.90
33.58
25.24
14.74
2.59
-10.08
-22.01
-32.04
-39.44
-43.96
-45.70
-44.98
-42.22
-37.93
-32.71
-27.31
-22.42
-18.66
-16.33
-15.44
-15.68
-16.60
-17.72
-18.60
-18.96
-18.71
-17.93
-16.82
-15.68
-14.81
-14.40
-14.54
-15.21
-16.27
-17.52
-18.72
-19.61
-20.02
-20.01
-19.92
-20.34
-21.81
-24.60
-28.42
-32.55
-36.06
-38.28
-39.10
-38.95
-38.64
-38.88
-40.00
-41.81
-43.68
-44.72
-44.00
-40.86
-35.00
-26.61
-16.35
-5.12
6.14
16.73
26.33
34.92
42.53
49.08
54.23
57.59
58.90
58.23
55.96
52.53
48.32
43.51
38.19
32.58
27.14
22.49
19.15
17.26
16.46
16.00
15.10
13.27
10.47
7.00
3.33
-0.25
-3.63
-6.86
-9.88
-12.55
-14.64
-16.11
-17.20
-18.46
-20.51
-23.59
-27.45
-31.29
-34.10
-35.03
-33.71
-30.38
-25.65
-20.28
-14.91
-9.95
-5.66
-2.10
0.68
2.63
3.78
4.27
4.30
4.12
3.95
3.89
3.89
3.82
3.47
2.69
1.45
-0.13
-1.78
-3.17
-4.03
-4.23
-3.87
-3.21
-2.64
-2.46
-2.90
-3.96
-5.47
-7.17
-8.73
-9.96
-10.81
-11.47
-12.33
-13.76
-15.96
-18.69
-21.41
-23.34
-23.89
-22.80
-20.29
-16.86
-13.05
-9.25
-5.63
-2.26
0.72
3.05
4.40
4.52
3.39
1.30
-1.23
-3.67
-5.63
-7.01
-7.92
-8.58
-9.14
-9.62
-9.94
-10.05
-9.99
-9.93
-10.12
-10.73
-11.80
-13.30
-15.14
-17.31
-19.90
-22.97
-26.50
-30.29
-34.06
-37.58
-40.82
-44.00
-47.45
-51.45
-55.86
-60.06
-63.01
-63.58
-60.95
-54.98
-46.33
-36.23
-26.16
-17.43
-10.85
-6.68
-4.63
-4.01
-3.90
-3.30
-1.36
2.38
7.81
14.16
20.20
24.60
26.36
25.19
21.60
16.75
12.08
8.80
7.53
8.03
9.41
10.42
10.07
7.92
4.23
-0.29
-4.91
-9.23
-13.32
-17.63
-22.74
-29.12
-36.99
-46.25
-56.50
-67.05
-76.90
-84.84
-89.58
-89.99
-85.24
-75.02
-59.49
-39.23
-15.19
11.44
39.25
66.69
92.17
114.25
131.85
144.45
152.09
155.24
154.52
150.42
143.21
133.07
120.37
105.87
90.60
75.54
61.18
47.44
33.83
19.88
5.64
-8.35
-21.27
-32.54
-42.03
-50.09
-57.17
-63.50
-68.87
-72.81
-74.93
-75.13
-73.64
-70.85
-67.04
-62.36
-56.86
-50.63
-43.90
-36.92
-29.80
-22.42
-14.38
-5.25
5.19
16.79
28.97
40.84
51.42
59.90
65.75
68.85
69.40
67.84
64.65
60.31
55.23
49.84
44.63
40.04
36.41
33.80
31.91
30.19
27.99
24.85
20.65
15.58
10.04
4.59
-0.25
-4.05
-6.59
-7.96
-8.58
-9.06
-10.05
-12.05
-15.31
-19.91
-25.78
-32.76
-40.49
-48.34
-55.49
-61.17
-64.86
-66.46
-66.09
-63.87
-59.73
-53.49
-45.14
-35.13
-24.34
-13.72
-3.91
5.05
13.59
22.14
30.66
38.54
44.84
48.76
50.15
49.44
47.32
44.33
40.52
35.60
29.31
21.79
13.66
5.85
-0.98
-6.61
-11.34
-15.73
-20.25
-25.16
-30.52
-36.28
-42.39
-48.74
-55.06
-60.99
-66.21
-70.68
-74.65
-78.49
-82.47
-86.41
-89.67
-91.27
-90.28
-86.02
-78.39
-67.80
-55.29
-42.24
-30.19
-20.44
-13.82
-10.46
-9.94
-11.43
-14.04
-16.96
-19.59
-21.60
-22.93
-23.85
-24.98
-27.13
-31.13
-37.51
-46.32
-57.04
-68.71
-80.14
-90.17
-97.75
-101.94
-101.93
-96.99
-86.66
-71.04
-51.06
-28.57
-6.04
13.85
28.89
37.91
40.94
39.20
34.62
29.34
25.20
23.39
24.27
27.50
32.19
37.24
41.60
44.49
45.64
45.39
44.69
44.85
47.05
51.67
58.16
65.10
71.01
75.25
78.37
81.83
87.03
94.36
102.77
110.41
115.70
118.27
119.29
120.79
124.58
131.33
140.39
150.15
158.97
165.69
169.67
170.25
166.25
156.06
138.22
112.57
80.79
46.26
12.72
-17.14
-42.38
-63.47
-80.95
-94.27
-101.71
-101.59
-93.99
-81.86
-70.28
-64.32
-66.41
-75.01
-85.48
-92.73
-94.09
-90.50
-85.51
-82.68
-83.07
-84.69
-83.85
-77.56
-65.22
-48.68
-30.65
-12.91
4.55
22.74
42.21
61.91
79.29
91.48
96.71
95.01
87.86
77.27
65.01
52.24
39.57
27.44
16.21
6.24
-2.26
-9.16
-14.44
-18.14
-20.39
-21.46
-21.75
-21.66
-21.48
-21.31
-21.05
-20.61
-20.01
-19.46
-19.23
-19.49
-20.16
-20.92
-21.15
-20.28
-17.83
-13.70
-8.28
-2.34
3.29
7.94
11.36
13.58
14.77
15.10
14.65
13.55
11.97
10.08
7.87
5.02
1.02
-4.60
-11.81
-20.00
-28.01
-34.64
-39.08
-41.21
-41.39
-40.13
-37.64
-33.80
-28.32
-21.18
-12.83
-4.49
2.48
7.03
8.92
8.83
7.90
7.10
6.79
6.51
5.54
3.45
0.51
-2.44
-4.40
-4.93
-4.39
-4.01
-5.08
-8.41
-13.72
-19.76
-24.80
-27.51
-27.52
-25.76
-23.76
-23.03
-24.27
-27.12
-30.48
-33.17
-34.53
-34.58
-33.80
-32.44
-30.21
-26.22
-19.38
-9.10
4.41
19.91
35.56
49.47
60.34
67.77
72.06
73.90
73.80
71.71
67.23
60.27
51.67
43.35
37.64
36.03
38.21
41.81
43.65
41.43
35.17
27.25
21.15
19.36
21.88
26.12
28.24
25.23
16.30
2.94
-12.45
-28.14
-43.90
-60.58
-78.70
-97.34
-113.92
-125.46
-130.26
-129.07
-124.75
-120.77
-119.45
-120.90
-123.43
-124.78
-123.45
-119.28
-112.96
-105.38
-97.18
-88.75
-80.60
-73.47
-68.04
-64.40
-61.69
-58.35
-52.79
-44.18
-33.00
-20.73
-9.31
-0.37
5.40
8.24
9.02
8.64
7.87
7.36
7.73
9.56
13.15
18.19
23.64
28.00
30.01
29.37
27.12
25.36
26.54
32.49
43.76
59.33
76.85
93.15
104.88
109.44
105.52
93.53
75.41
54.10
32.66
13.86
-0.07
-7.58
-8.04
-2.19
7.69
18.21
26.03
29.16
27.76
23.65
18.98
14.77
10.31
3.78
-6.22
-19.40
-33.46
-45.10
-51.68
-52.43
-48.68
-42.84
-36.99
-31.74
-26.19
-18.75
-8.39
4.44
17.79
29.16
36.74
40.34
41.51
42.59
45.44
50.44
56.41
61.26
63.27
61.91
58.11
53.64
50.23
48.72
48.81
49.34
48.92
46.61
42.24
36.29
29.55
22.61
15.56
7.96
-0.94
-11.85
-25.08
-40.32
-56.60
-72.47
-86.31
-96.62
-102.27
-102.71
-97.92
-88.34
-74.73
-58.13
-39.76
-20.99
-3.20
12.36
24.74
33.48
38.61
40.56
39.96
37.55
34.13
30.47
27.35
25.37
24.86
25.72
27.49
29.45
30.97
31.64
31.43
30.54
29.25
27.70
25.78
23.13
19.31
13.94
6.93
-1.35
-9.98
-17.68
-22.99
-24.75
-22.40
-16.14
-6.85
4.25
15.86
26.90
36.51
44.01
48.87
50.79
49.78
46.28
41.14
35.36
29.87
25.21
21.51
18.57
16.09
13.81
11.67
9.74
8.12
6.87
5.97
5.31
4.66
3.70
2.01
-0.88
-5.39
-11.67
-19.38
-27.61
-34.92
-39.71
-40.61
-36.95
-29.03
-17.97
-5.50
6.69
17.29
25.66
31.66
35.50
37.39
37.46
35.88
33.00
29.47
26.11
23.59
22.15
21.51
21.07
20.23
18.80
16.99
15.25
13.91
12.92
11.87
10.16
7.30
3.05
-2.52
-9.16
-16.45
-23.67
-29.84
-33.70
-34.04
-30.10
-21.95
-10.49
2.64
15.64
27.04
36.01
42.39
46.47
48.65
49.19
48.17
45.64
41.88
37.46
33.18
29.75
27.49
26.15
25.00
23.25
20.43
16.60
12.29
8.09
4.41
1.20
-1.99
-5.74
-10.55
-16.63
-23.79
-31.45
-38.58
-43.83
-45.80
-43.53
-36.85
-26.58
-14.32
-1.88
9.30
18.48
25.52
30.59
33.81
35.12
34.42
31.85
27.94
23.49
19.33
15.95
13.38
11.24
9.05
6.46
3.45
0.36
-2.40
-4.50
-5.93
-6.98
-8.17
-10.06
-13.06
-17.33
-22.74
-28.85
-34.92
-40.01
-43.06
-43.18
-39.86
-33.16
-23.69
-12.55
-0.99
9.86
19.16
26.46
31.65
34.85
36.30
36.28
35.08
33.02
30.50
27.92
25.71
24.14
23.26
22.84
22.44
21.55
19.83
17.27
14.15
10.99
8.22
5.98
4.09
2.04
-0.67
-4.46
-9.43
-15.44
-22.06
-28.65
-34.38
-38.30
-39.48
-37.33
-31.80
-23.47
-13.45
-3.02
6.68
14.96
21.55
26.52
30.05
32.32
33.49
33.70
33.14
32.06
30.67
29.16
27.60
26.01
24.41
22.78
21.10
19.24
16.99
14.08
10.38
5.98
1.22
-3.46
-7.76
-11.62
-15.32
-19.26
-23.76
-28.85
-34.26
-39.50
-43.91
-46.83
-47.64
-45.77
-40.92
-33.16
-23.14
-12.01
-1.21
7.98
14.75
18.99
21.06
21.54
20.87
19.26
16.77
13.59
10.14
7.06
5.00
4.29
4.77
5.93
7.07
7.72
7.73
7.26
6.54
5.72
4.65
3.02
0.56
-2.78
-6.74
-10.85
-14.70
-18.11
-21.30
-24.69
-28.51
-32.50
-35.77
-37.09
-35.36
-30.16
-22.08
-12.46
-2.95
5.06
10.95
14.73
16.85
17.76
17.67
16.56
14.40
11.36
7.90
4.63
2.09
0.61
0.09
0.20
0.51
0.69
0.58
0.21
-0.33
-0.95
-1.67
-2.60
-3.86
-5.53
-7.59
-9.93
-12.42
-15.01
-17.78
-20.88
-24.45
-28.42
-32.35
-35.47
-36.83
-35.58
-31.39
-24.60
-16.19
-7.51
0.19
6.06
9.83
11.74
12.26
11.78
10.56
8.68
6.27
3.60
1.10
-0.77
-1.69
-1.65
-0.90
0.16
1.13
1.75
2.00
1.99
1.90
1.89
1.95
1.93
1.60
0.73
-0.82
-3.04
-5.89
-9.27
-13.05
-16.96
-20.46
-22.80
-23.17
-21.05
-16.42
-9.94
-2.70
4.11
9.56
13.16
14.86
14.89
13.52
11.06
7.75
3.87
-0.23
-4.11
-7.34
-9.63
-10.93
-11.50
-11.81
-12.43
-13.75
-15.85
-18.45
-21.12
-23.44
-25.26
-26.72
-28.15
-29.93
-32.22
-35.02
-38.10
-41.03
-43.32
-44.40
-43.70
-40.81
-35.57
-28.23
-19.47
-10.22
-1.49
5.82
11.18
14.40
15.62
15.15
13.44
10.94
8.08
5.27
2.80
0.87
-0.52
-1.47
-2.22
-3.04
-4.17
-5.76
-7.83
-10.27
-12.88
-15.38
-17.61
-19.53
-21.31
-23.33
-26.07
-29.91
-34.91
-40.67
-46.32
-50.69
-52.61
-51.33
-46.76
-39.46
-30.52
-21.18
-12.48
-5.11
0.64
4.79
7.40
8.60
8.51
7.30
5.29
2.92
0.61
-1.28
-2.60
-3.36
-3.77
-4.11
-4.60
-5.44
-6.69
-8.36
-10.40
-12.71
-15.17
-17.64
-20.05
-22.44
-25.07
-28.34
-32.68
-38.24
-44.66
-51.00
-55.88
-57.85
-55.98
-50.06
-40.78
-29.43
-17.48
-6.18
3.67
11.71
17.93
22.42
25.32
26.77
26.96
26.17
24.76
23.17
21.81
20.91
20.50
20.43
20.36
20.01
19.19
17.83
15.96
13.65
10.95
7.91
4.60
1.10
-2.47
-6.08
-9.90
-14.19
-19.28
-25.32
-32.07
-38.81
-44.36
-47.45
-47.01
-42.60
-34.50
-23.74
-11.67
0.33
11.18
20.22
27.14
31.88
34.54
35.38
34.82
33.46
31.96
30.87
30.46
30.68
31.27
31.91
32.41
32.72
32.86
32.80
32.35
31.25
29.26
26.28
22.44
18.07
13.56
9.27
5.39
1.85
-1.58
-5.34
-9.87
-15.48
-22.12
-29.22
-35.69
-40.14
-41.26
-38.25
-31.12
-20.62
-8.10
4.96
17.25
27.88
36.38
42.55
46.42
48.11
47.94
46.36
43.99
41.55
39.62
38.61
38.55
39.18
40.01
40.52
40.44
39.78
38.78
37.71
36.67
35.47
33.70
30.95
27.03
22.13
16.67
11.26
6.37
2.25
-1.17
-4.23
-7.39
-11.18
-15.93
-21.64
-27.86
-33.64
-37.75
-38.98
-36.56
-30.40
-21.18
-10.11
1.41
12.20
21.42
28.65
33.72
36.58
37.28
36.03
33.33
29.95
26.81
24.67
23.92
24.45
25.70
26.97
27.70
27.63
26.91
25.86
24.76
23.66
22.35
20.52
17.97
14.73
11.14
7.63
4.57
2.10
0.06
-1.84
-3.98
-6.59
-9.81
-13.67
-18.08
-22.78
-27.27
-30.71
-32.12
-30.65
-25.87
-18.11
-8.26
2.35
12.44
21.07
27.71
32.22
34.65
35.18
34.11
31.85
29.02
26.26
24.10
22.84
22.47
22.75
23.23
23.46
23.08
21.92
20.06
17.72
15.23
12.82
10.57
8.31
5.85
3.05
-0.04
-3.22
-6.18
-8.73
-10.87
-12.80
-14.89
-17.45
-20.65
-24.35
-28.04
-30.99
-32.37
-31.53
-28.17
-22.53
-15.26
-7.31
0.38
7.09
12.36
16.03
18.02
18.36
17.15
14.63
11.27
7.76
4.79
2.87
2.20
2.53
3.45
4.46
5.24
5.66
5.70
5.37
4.62
3.37
1.55
-0.78
-3.39
-5.94
-8.11
-9.78
-11.05
-12.24
-13.75
-15.90
-18.79
-22.24
-25.84
-28.97
-30.96
-31.18
-29.20
-24.93
-18.79
-11.55
-4.20
2.35
7.54
11.25
13.59
14.78
14.95
14.10
12.26
9.63
6.61
3.74
1.51
0.17
-0.38
-0.49
-0.60
-1.08
-2.02
-3.38
-4.98
-6.73
-8.67
-10.88
-13.38
-16.01
-18.47
-20.42
-21.76
-22.65
-23.58
-25.09
-27.50
-30.71
-34.15
-36.88
-37.91
-36.56
-32.69
-26.75
-19.66
-12.44
-5.99
-0.79
3.00
5.48
6.81
7.06
6.40
5.01
3.23
1.48
0.18
-0.37
-0.03
1.15
2.97
5.18
7.46
9.53
11.14
12.12
12.38
11.87
10.59
8.58
5.92
2.79
-0.55
-3.85
-6.98
-10.04
-13.32
-17.14
-21.59
-26.28
-30.36
-32.73
-32.41
-29.03
-22.99
-15.37
-7.57
-0.87
4.02
6.98
8.37
8.67
8.24
7.28
5.80
3.91
1.84
-0.03
-1.32
-1.87
-1.74
-1.21
-0.59
-0.12
0.14
0.22
0.15
-0.14
-0.86
-2.20
-4.25
-6.91
-9.92
-12.91
-15.67
-18.17
-20.62
-23.31
-26.37
-29.66
-32.63
-34.45
-34.31
-31.72
-26.75
-20.07
-12.69
-5.71
0.06
4.28
6.96
8.29
8.45
7.49
5.49
2.65
-0.55
-3.42
-5.29
-5.82
-5.06
-3.53
-1.92
-0.81
-0.53
-1.01
-1.98
-3.15
-4.38
-5.68
-7.18
-9.01
-11.20
-13.68
-16.34
-19.17
-22.29
-25.91
-30.08
-34.48
-38.27
-40.30
-39.49
-35.32
-28.14
-19.10
-9.66
-1.15
5.70
10.68
13.98
15.79
16.21
15.26
13.11
10.16
7.03
4.38
2.71
2.18
2.69
3.87
5.26
6.44
7.11
7.16
6.62
5.64
4.36
2.84
1.01
-1.19
-3.78
-6.76
-10.08
-13.82
-18.11
-22.97
-28.09
-32.72
-35.66
-35.69
-32.06
-24.86
-15.12
-4.44
5.55
13.67
19.46
23.02
24.72
24.85
23.58
21.02
17.46
13.46
9.78
7.20
6.20
6.82
8.64
10.94
12.97
14.23
14.55
14.07
13.11
11.95
10.66
9.14
7.19
4.69
1.61
-1.99
-6.01
-10.41
-15.08
-19.72
-23.65
-25.90
-25.46
-21.77
-15.02
-6.14
3.46
12.40
19.74
25.12
28.59
30.35
30.51
29.17
26.48
22.87
19.06
15.87
13.96
13.58
14.51
16.16
17.77
18.74
18.76
17.89
16.42
14.68
12.81
10.76
8.34
5.38
1.76
-2.48
-7.31
-12.62
-18.19
-23.53
-27.83
-30.04
-29.22
-24.89
-17.22
-7.12
4.07
14.97
24.42
31.62
36.15
37.86
36.87
33.52
28.47
22.63
16.97
12.37
9.37
8.06
8.09
8.81
9.50
9.58
8.75
7.01
4.59
1.85
-0.87
-3.43
-5.88
-8.51
-11.74
-15.92
-21.02
-26.51
-31.35
-34.29
-34.27
-30.69
-23.68
-13.97
-2.65
9.07
20.11
29.45
36.30
40.08
40.58
38.06
33.36
27.67
22.24
18.03
15.49
14.54
14.72
15.47
16.31
16.91
17.06
16.57
15.26
13.00
9.84
5.98
1.72
-2.76
-7.49
-12.68
-18.45
-24.46
-29.85
-33.32
-33.65
-30.14
-22.95
-13.03
-1.74
9.50
19.57
27.72
33.48
36.62
37.11
35.23
31.56
27.01
22.55
18.99
16.80
15.95
16.06
16.55
16.82
16.47
15.34
13.44
10.96
8.11
5.02
1.72
-1.95
-6.26
-11.47
-17.61
-24.24
-30.38
-34.70
-35.92
-33.25
-26.78
-17.42
-6.60
4.23
13.96
22.02
28.26
32.65
35.16
35.71
34.30
31.20
27.06
22.80
19.30
17.14
16.34
16.42
16.67
16.47
15.57
14.08
12.30
10.45
8.49
6.17
3.20
-0.62
-5.29
-10.66
-16.44
-22.19
-27.32
-30.98
-32.30
-30.60
-25.72
-18.12
-8.85
0.82
9.74
17.13
22.66
26.34
28.36
28.98
28.44
27.01
25.01
22.83
20.87
19.51
18.92
19.08
19.70
20.37
20.60
20.03
18.50
16.07
13.06
9.91
6.99
4.51
2.39
0.34
-2.04
-5.10
-9.04
-13.84
-19.22
-24.65
-29.37
-32.48
-33.13
-30.81
-25.56
-17.98
-9.13
-0.17
7.94
14.66
19.77
23.29
25.37
26.19
26.05
25.28
24.29
23.41
22.84
22.66
22.75
22.96
23.11
23.04
22.67
22.03
21.21
20.34
19.46
18.51
17.28
15.53
13.12
10.04
6.51
2.88
-0.47
-3.26
-5.47
-7.29
-9.15
-11.53
-14.80
-19.10
-24.21
-29.54
-34.28
-37.47
-38.30
-36.28
-31.43
-24.30
-15.82
-7.11
0.86
7.41
12.26
15.46
17.24
17.89
17.75
17.16
16.38
15.63
15.01
14.59
14.38
14.42
14.70
15.13
15.49
15.48
14.87
13.60
11.82
9.79
7.78
5.90
4.09
2.20
0.14
-2.06
-4.28
-6.38
-8.35
-10.33
-12.63
-15.53
-19.24
-23.71
-28.58
-33.16
-36.62
-38.09
-37.02
-33.37
-27.60
-20.59
-13.37
-6.82
-1.46
2.56
5.35
7.09
7.95
8.04
7.52
6.66
5.83
5.42
5.64
6.42
7.46
8.32
8.70
8.54
8.06
7.57
7.24
7.02
6.59
5.56
3.72
1.16
-1.75
-4.51
-6.71
-8.22
-9.25
-10.24
-11.72
-14.08
-17.50
-21.77
-26.41
-30.67
-33.73
-34.90
-33.76
-30.26
-24.78
-18.02
-10.87
-4.17
1.48
5.77
8.69
10.43
11.21
11.28
10.86
10.17
9.43
8.80
8.42
8.29
8.32
8.37
8.33
8.16
7.87
7.52
7.15
6.73
6.15
5.25
3.89
1.96
-0.54
-3.48
-6.64
-9.76
-12.62
-15.14
-17.43
-19.79
-22.61
-26.16
-30.42
-34.93
-38.86
-41.20
-41.13
-38.31
-33.02
-26.02
-18.39
-11.07
-4.70
0.43
4.34
7.17
9.01
9.91
9.97
9.40
8.54
7.83
7.54
7.78
8.34
8.92
9.18
8.97
8.35
7.54
6.82
6.32
6.02
5.70
5.09
3.94
2.19
-0.01
-2.36
-4.53
-6.29
-7.59
-8.55
-9.42
-10.47
-11.94
-14.08
-17.03
-20.75
-24.92
-28.91
-31.85
-32.92
-31.60
-27.89
-22.34
-15.85
-9.32
-3.43
1.46
5.34
8.33
10.56
12.07
12.86
12.88
12.23
11.14
9.93
8.97
8.47
8.48
8.81
9.15
9.25
8.95
8.29
7.40
6.46
5.56
4.73
3.97
3.22
2.45
1.57
0.54
-0.71
-2.14
-3.67
-5.16
-6.52
-7.78
-9.05
-10.54
-12.49
-15.04
-18.23
-21.91
-25.73
-29.10
-31.31
-31.70
-29.89
-25.90
-20.24
-13.70
-7.15
-1.23
3.67
7.39
9.88
11.12
11.12
10.07
8.30
6.32
4.66
3.66
3.36
3.62
4.09
4.50
4.72
4.72
4.60
4.44
4.29
4.06
3.61
2.75
1.38
-0.47
-2.65
-4.85
-6.82
-8.43
-9.74
-11.02
-12.56
-14.64
-17.36
-20.76
-24.74
-29.15
-33.70
-37.90
-41.05
-42.38
-41.29
-37.57
-31.60
-24.16
-16.28
-8.88
-2.53
2.50
6.18
8.54
9.62
9.58
8.70
7.43
6.32
5.77
5.88
6.49
7.20
7.66
7.73
7.51
7.28
7.29
7.61
7.98
7.98
7.19
5.40
2.75
-0.38
-3.50
-6.29
-8.71
-10.97
-13.41
-16.31
-19.82
-23.96
-28.59
-33.47
-38.18
-42.09
-44.38
-44.28
-41.28
-35.40
-27.29
-18.03
-8.84
-0.75
5.63
10.21
13.15
14.79
15.43
15.35
14.81
14.12
13.64
13.64
14.26
15.36
16.63
17.72
18.35
18.53
18.39
18.17
17.95
17.60
16.82
15.28
12.79
9.42
5.48
1.36
-2.55
-6.10
-9.35
-12.59
-16.23
-20.67
-26.15
-32.52
-39.21
-45.18
-49.17
-50.04
-47.14
-40.59
-31.19
-20.24
-9.13
0.99
9.44
15.98
20.65
23.67
25.26
25.66
25.22
24.34
23.52
23.18
23.53
24.52
25.89
27.23
28.23
28.71
28.72
28.40
27.90
27.29
26.52
25.43
23.84
21.61
18.70
15.24
11.47
7.68
4.10
0.81
-2.36
-5.78
-9.88
-14.93
-20.89
-27.20
-32.85
-36.57
-37.24
-34.22
-27.61
-18.24
-7.40
3.53
13.47
21.76
28.17
32.72
35.54
36.78
36.65
35.46
33.65
31.70
30.09
29.12
28.82
29.00
29.33
29.48
29.28
28.72
27.92
27.01
25.95
24.57
22.61
19.85
16.29
12.17
7.93
4.00
0.63
-2.19
-4.79
-7.68
-11.37
-16.15
-21.84
-27.82
-33.03
-36.29
-36.63
-33.59
-27.38
-18.76
-8.79
1.42
10.95
19.09
25.32
29.26
30.79
30.10
27.74
24.50
21.23
18.57
16.79
15.86
15.50
15.44
15.45
15.47
15.47
15.44
15.26
14.77
13.77
12.13
9.91
7.28
4.50
1.80
-0.80
-3.40
-6.24
-9.54
-13.44
-17.89
-22.70
-27.44
-31.50
-34.13
-34.55
-32.14
-26.75
-18.84
-9.41
0.16
8.51
14.64
18.11
19.13
18.32
16.50
14.39
12.43
10.76
9.37
8.22
7.37
6.98
7.17
7.87
8.80
9.57
9.80
9.34
8.28
6.88
5.38
3.85
2.22
0.30
-2.04
-4.88
-8.22
-12.01
-16.22
-20.72
-25.12
-28.79
-30.86
-30.53
-27.35
-21.41
-13.43
-4.51
4.16
11.65
17.43
21.42
23.82
24.89
24.86
23.85
21.94
19.34
16.42
13.74
11.82
10.96
11.12
11.89
12.70
13.06
12.71
11.67
10.16
8.41
6.53
4.48
2.16
-0.53
-3.63
-7.15
-11.12
-15.64
-20.74
-26.21
-31.46
-35.53
-37.33
-36.02
-31.41
-24.05
-15.12
-6.02
2.09
8.53
13.18
16.21
17.90
18.43
17.93
16.55
14.58
12.48
10.78
9.83
9.73
10.24
10.95
11.42
11.42
10.92
10.08
9.07
7.98
6.71
5.08
2.96
0.32
-2.76
-6.12
-9.68
-13.45
-17.52
-21.95
-26.59
-30.94
-34.22
-35.53
-34.18
-30.05
-23.61
-15.84
-7.88
-0.65
5.31
9.84
12.99
14.86
15.57
15.26
14.21
12.79
11.39
10.31
9.65
9.33
9.18
9.06
8.90
8.73
8.57
8.47
8.37
8.12
7.54
6.45
4.77
2.61
0.19
-2.23
-4.54
-6.80
-9.27
-12.25
-15.89
-20.00
-23.98
-26.95
-28.01
-26.58
-22.60
-16.59
-9.47
-2.26
4.22
9.44
13.25
15.68
16.84
16.90
16.03
14.57
12.90
11.45
10.49
10.12
10.27
10.72
11.31
11.90
12.45
12.95
13.30
13.35
12.92
11.94
10.51
8.88
7.34
6.00
4.82
3.54
1.86
-0.46
-3.52
-7.24
-11.34
-15.35
-18.64
-20.40
-19.98
-17.06
-11.91
-5.33
1.55
7.68
12.40
15.47
17.02
17.23
16.30
14.38
11.69
8.59
5.53
2.94
1.07
-0.05
-0.58
-0.76
-0.77
-0.75
-0.77
-0.95
-1.41
-2.25
-3.48
-5.00
-6.61
-8.11
-9.42
-10.63
-11.92
-13.54
-15.64
-18.28
-21.34
-24.57
-27.55
-29.72
-30.44
-29.19
-25.71
-20.21
-13.34
-6.11
0.41
5.38
8.33
9.26
8.52
6.65
4.21
1.65
-0.72
-2.76
-4.44
-5.85
-7.17
-8.54
-10.14
-11.93
-13.68
-14.90
-15.06
-13.73
-10.79
-6.54
-1.61
3.20
7.16
9.70
10.51
9.49
6.68
2.30
-3.21
-9.17
-14.68
-18.72
-20.45
-19.42
-15.76
-10.23
-3.96
1.85
6.34
9.16
10.49
10.70
10.19
9.13
7.48
5.22
2.50
-0.28
-2.56
-3.90
-4.08
-3.32
-2.10
-0.98
-0.37
-0.45
-1.15
-2.30
-3.69
-5.22
-6.82
-8.49
-10.26
-12.20
-14.43
-17.10
-20.27
-23.78
-27.17
-29.71
-30.59
-29.19
-25.31
-19.29
-11.89
-4.04
3.39
9.82
14.95
18.70
21.08
22.18
22.13
21.13
19.47
17.49
15.53
13.83
12.55
11.73
11.32
11.18
11.08
10.78
10.09
8.93
7.36
5.53
3.63
1.79
-0.02
-1.90
-4.00
-6.48
-9.49
-13.14
-17.47
-22.27
-27.06
-31.09
-33.46
-33.45
-30.76
-25.66
-18.92
-11.55
-4.51
1.51
6.18
9.42
11.34
12.09
11.91
11.07
9.87
8.59
7.42
6.45
5.70
5.20
4.96
5.05
5.45
6.00
6.45
6.47
5.82
4.42
2.38
-0.10
-2.84
-5.73
-8.70
-11.70
-14.65
-17.49
-20.31
-23.31
-26.65
-30.24
-33.58
-35.78
-35.85
-33.15
-27.68
-20.11
-11.57
-3.20
4.16
10.13
14.62
17.70
19.45
19.91
19.22
17.70
15.79
14.01
12.71
12.07
12.06
12.46
12.99
13.37
13.43
13.02
12.14
10.79
9.02
6.92
4.56
2.02
-0.60
-3.23
-5.87
-8.59
-11.54
-14.88
-18.65
-22.62
-26.27
-28.81
-29.36
-27.24
-22.23
-14.71
-5.65
3.72
12.24
19.16
24.26
27.78
30.06
31.33
31.59
30.73
28.77
26.00
22.99
20.41
18.71
17.93
17.75
17.69
17.34
16.57
15.49
14.30
13.08
11.73
9.99
7.64
4.59
1.04
-2.74
-6.51
-10.24
-14.17
-18.53
-23.30
-28.00
-31.67
-33.19
-31.71
-26.99
-19.60
-10.71
-1.71
6.27
12.58
17.05
19.74
20.81
20.27
18.20
14.93
11.08
7.53
5.09
4.18
4.66
5.90
7.01
7.29
6.41
4.55
2.17
-0.22
-2.22
-3.77
-5.04
-6.40
-8.22
-10.81
-14.30
-18.53
-23.06
-27.22
-30.19
-31.20
-29.66
-25.39
-18.66
-10.17
-0.85
8.25
16.28
22.66
27.14
29.78
30.81
30.53
29.23
27.24
24.91
22.63
20.81
19.73
19.45
19.77
20.28
20.54
20.24
19.29
17.82
16.05
14.17
12.33
10.52
8.67
6.59
4.03
0.75
-3.35
-8.11
-13.00
-17.15
-19.60
-19.56
-16.68
-11.21
-3.88
4.33
12.41
19.54
25.17
28.96
30.80
30.73
28.99
26.02
22.42
18.83
15.82
13.73
12.57
12.07
11.82
11.40
10.56
9.21
7.51
5.61
3.72
1.89
0.12
-1.76
-3.96
-6.71
-10.17
-14.35
-18.99
-23.59
-27.44
-29.77
-29.97
-27.74
-23.23
-16.93
-9.62
-2.13
4.75
10.45
14.55
16.84
17.28
16.03
13.44
10.08
6.58
3.58
1.51
0.48
0.32
0.63
0.98
1.04
0.68
-0.04
-0.95
-1.92
-2.92
-4.06
-5.54
-7.60
-10.37
-13.88
-18.01
-22.41
-26.51
-29.59
-30.88
-29.80
-26.21
-20.43
-13.23
-5.59
1.63
7.82
12.69
16.19
18.37
19.28
19.01
17.73
15.74
13.47
11.35
9.72
8.71
8.27
8.12
7.94
7.42
6.43
5.01
3.34
1.67
0.14
-1.27
-2.75
-4.55
-6.94
-10.01
-13.63
-17.40
-20.70
-22.80
-22.97
-20.75
-16.14
-9.57
-1.87
5.99
13.09
18.84
22.93
25.35
26.28
25.98
24.75
22.89
20.70
18.48
16.55
15.16
14.43
14.31
14.53
14.70
14.46
13.63
12.30
10.69
9.08
7.58
6.14
4.56
2.62
0.17
-2.83
-6.28
-9.95
-13.44
-16.23
-17.74
-17.47
-15.23
-11.21
-5.92
-0.08
5.59
10.56
14.48
17.16
18.48
18.47
17.30
15.33
13.06
10.95
9.35
8.37
7.89
7.66
7.44
7.04
6.33
5.24
3.76
1.94
-0.08
-2.11
-4.00
-5.67
-7.23
-8.89
-10.90
-13.41
-16.33
-19.32
-21.77
-22.99
-22.45
-19.93
-15.64
-10.15
-4.24
1.33
5.99
9.39
11.43
12.13
11.57
9.88
7.28
4.12
0.84
-2.05
-4.07
-5.00
-4.88
-4.07
-3.08
-2.45
-2.48
-3.19
-4.34
-5.57
-6.59
-7.27
-7.72
-8.29
-9.34
-11.18
-13.81
-16.97
-20.09
-22.51
-23.60
-23.00
-20.62
-16.72
-11.73
-6.24
-0.81
4.04
7.89
10.39
11.38
10.86
9.07
6.46
3.62
1.20
-0.32
-0.72
-0.17
0.88
1.86
2.29
1.91
0.77
-0.82
-2.52
-4.05
-5.34
-6.53
-7.93
-9.87
-12.59
-16.12
-20.22
-24.37
-27.83
-29.85
-29.81
-27.44
-22.93
-16.89
-10.25
-3.96
1.22
4.87
6.87
7.33
6.50
4.70
2.32
-0.17
-2.30
-3.72
-4.29
-4.18
-3.73
-3.33
-3.26
-3.57
-4.19
-5.00
-5.93
-6.97
-8.18
-9.61
-11.33
-13.46
-16.17
-19.64
-23.82
-28.38
-32.60
-35.51
-36.18
-34.14
-29.52
-23.06
-15.85
-8.97
-3.16
1.27
4.34
6.21
6.99
6.69
5.32
3.01
0.12
-2.79
-5.21
-6.82
-7.62
-7.98
-8.32
-9.03
-10.24
-11.83
-13.54
-15.16
-16.62
-18.04
-19.69
-21.85
-24.73
-28.43
-32.84
-37.61
-42.10
-45.50
-46.95
-45.85
-42.03
-35.82
-28.00
-19.53
-11.32
-4.10
1.65
5.66
7.87
8.32
7.28
5.17
2.57
0.06
-1.87
-2.94
-3.13
-2.63
-1.80
-1.08
-0.86
-1.35
-2.53
-4.21
-6.06
-7.84
-9.51
-11.26
-13.49
-16.62
-20.88
-26.16
-31.88
-37.05
-40.48
-41.10
-38.29
-32.15
-23.49
-13.52
-3.54
5.46
12.97
18.81
22.98
25.49
26.28
25.38
23.07
19.95
16.83
14.49
13.38
13.44
14.17
14.84
14.80
13.76
11.76
9.14
6.29
3.53
1.03
-1.20
-3.29
-5.46
-8.08
-11.57
-16.23
-21.98
-28.17
-33.57
-36.69
-36.27
-31.72
-23.44
-12.54
-0.55
11.17
21.65
30.41
37.24
41.99
44.53
44.79
42.96
39.58
35.45
31.42
28.17
25.94
24.60
23.76
23.02
22.14
21.10
19.94
18.71
17.29
15.44
12.99
9.86
6.21
2.28
-1.73
-5.81
-10.16
-15.06
-20.57
-26.34
-31.49
-34.75
-34.87
-31.01
-23.21
-12.34
0.07
12.32
23.05
31.51
37.51
41.25
43.00
42.95
41.29
38.33
34.60
30.84
27.80
26.02
25.58
26.16
27.06
27.56
27.12
25.59
23.18
20.27
17.26
14.36
11.58
8.78
5.80
2.56
-1.03
-5.08
-9.77
-15.23
-21.26
-27.18
-31.82
-33.81
-32.09
-26.33
-17.13
-5.84
5.90
16.62
25.40
31.87
35.98
37.90
37.78
35.91
32.74
28.98
25.47
22.95
21.84
22.09
23.27
24.73
25.86
26.28
25.89
24.78
23.12
21.07
18.72
16.11
13.29
10.25
6.93
3.14
-1.34
-6.72
-12.93
-19.44
-25.24
-29.07
-29.79
-26.76
-20.14
-10.78
0.02
10.85
20.61
28.52
34.23
37.61
38.79
38.08
35.99
33.15
30.25
27.86
26.33
25.75
25.94
26.56
27.15
27.33
26.78
25.42
23.37
20.90
18.31
15.82
13.50
11.24
8.83
5.97
2.39
-2.14
-7.70
-14.05
-20.55
-26.18
-29.76
-30.27
-27.23
-20.87
-12.09
-2.16
7.64
16.33
23.30
28.28
31.24
32.27
31.60
29.62
26.84
23.89
21.35
19.67
18.99
19.15
19.76
20.33
20.45
19.86
18.54
16.63
14.35
11.89
9.35
6.79
4.21
1.63
-0.95
-3.62
-6.57
-10.06
-14.33
-19.40
-24.93
-30.15
-33.98
-35.36
-33.62
-28.70
-21.28
-12.48
-3.57
4.40
10.80
15.40
18.23
19.45
19.26
17.95
15.90
13.57
11.45
9.88
8.99
8.71
8.80
9.00
9.16
9.22
9.24
9.20
9.04
8.54
7.52
5.87
3.62
0.97
-1.84
-4.57
-7.16
-9.66
-12.28
-15.29
-18.86
-22.93
-27.07
-30.53
-32.40
-31.93
-28.81
-23.35
-16.36
-8.91
-1.97
3.83
8.17
11.01
12.41
12.46
11.33
9.33
6.94
4.70
3.06
2.27
2.34
3.05
4.07
5.07
5.75
5.91
5.39
4.19
2.41
0.27
-1.92
-3.91
-5.57
-6.95
-8.19
-9.48
-10.96
-12.77
-15.04
-17.88
-21.27
-24.94
-28.27
-30.40
-30.53
-28.18
-23.47
-17.07
-9.99
-3.20
2.60
7.02
9.97
11.45
11.47
10.13
7.72
4.75
1.84
-0.43
-1.76
-2.16
-1.91
-1.35
-0.77
-0.30
0.00
0.05
-0.24
-1.04
-2.39
-4.16
-6.08
-7.82
-9.17
-10.11
-10.85
-11.77
-13.31
-15.75
-19.14
-23.19
-27.31
-30.66
-32.40
-31.93
-29.05
-24.04
-17.61
-10.70
-4.27
0.98
4.69
6.78
7.44
6.97
5.67
3.82
1.66
-0.59
-2.60
-4.10
-4.89
-4.90
-4.30
-3.43
-2.66
-2.30
-2.44
-3.03
-3.91
-4.95
-6.12
-7.51
-9.22
-11.28
-13.59
-16.04
-18.57
-21.27
-24.30
-27.69
-31.15
-33.97
-35.18
-33.92
-29.82
-23.21
-15.05
-6.57
1.08
7.17
11.46
14.05
15.12
14.88
13.46
11.09
8.12
5.12
2.67
1.24
0.94
1.52
2.51
3.33
3.58
3.08
1.92
0.34
-1.41
-3.13
-4.77
-6.36
-7.99
-9.75
-11.72
-14.00
-16.71
-19.97
-23.77
-27.85
-31.62
-34.22
-34.74
-32.57
-27.69
-20.70
-12.68
-4.79
2.06
7.37
11.11
13.44
14.52
14.42
13.18
10.91
7.94
4.81
2.13
0.39
-0.27
-0.06
0.51
0.85
0.52
-0.63
-2.43
-4.59
-6.77
-8.85
-10.85
-12.97
-15.43
-18.44
-22.14
-26.53
-31.52
-36.76
-41.66
-45.40
-47.13
-46.20
-42.43
-36.22
-28.41
-20.10
-12.27
-5.64
-0.57
2.83
4.61
4.87
3.80
1.72
-0.90
-3.47
-5.43
-6.36
-6.09
-4.83
-2.98
-1.07
0.43
1.26
1.39
1.01
0.34
-0.48
-1.46
-2.78
-4.67
-7.35
-10.89
-15.20
-19.90
-24.35
-27.62
-28.63
-26.43
-20.53
-11.14
0.80
13.85
26.42
37.19
45.36
50.66
53.18
53.16
50.90
46.77
41.27
35.08
29.02
23.88
20.19
18.03
17.01
16.44
15.55
13.87
11.30
8.23
5.17
2.56
0.47
-1.34
-3.38
-6.14
-9.82
-14.34
-19.25
-23.89
-27.49
-29.31
-28.76
-25.59
-19.91
-12.25
-3.42
5.63
14.01
21.02
26.18
29.27
30.32
29.60
27.61
24.99
22.40
20.40
19.31
19.16
19.72
20.63
21.45
21.82
21.53
20.53
18.93
16.82
14.27
11.24
7.57
3.09
-2.26
-8.25
-14.31
-19.57
-23.00
-23.75
-21.37
-16.05
-8.54
0.06
8.52
15.87
21.47
25.00
26.42
25.88
23.66
20.24
16.25
12.35
9.06
6.63
4.98
3.83
2.83
1.74
0.53
-0.74
-1.98
-3.24
-4.74
-6.81
-9.79
-13.96
-19.35
-25.64
-32.07
-37.52
-40.74
-40.77
-37.17
-30.24
-20.83
-10.14
0.61
10.42
18.59
24.67
28.47
30.05
29.69
27.97
25.58
23.18
21.21
19.80
18.79
17.83
16.67
15.15
13.41
11.62
9.98
8.47
6.88
4.86
2.01
-1.96
-7.14
-13.33
-19.96
-26.04
-30.36
-31.70
-29.31
-23.24
-14.34
-4.11
5.90
14.51
21.21
26.08
29.47
31.68
32.79
32.77
31.60
29.55
27.06
24.67
22.75
21.35
20.26
19.09
17.51
15.39
12.84
10.08
7.32
4.63
1.97
-0.83
-4.02
-7.81
-12.36
-17.57
-23.00
-27.77
-30.66
-30.55
-26.76
-19.46
-9.64
1.18
11.54
20.43
27.47
32.80
36.73
39.43
40.91
41.15
40.23
38.44
36.24
34.02
32.03
30.24
28.50
26.61
24.45
22.02
19.44
16.89
14.49
12.30
10.27
8.26
6.09
3.50
0.31
-3.68
-8.55
-14.26
-20.52
-26.75
-32.08
-35.49
-36.09
-33.41
-27.55
-19.26
-9.69
-0.08
8.55
15.61
20.97
24.71
27.09
28.35
28.67
28.28
27.40
26.34
25.30
24.40
23.59
22.70
21.58
20.21
18.74
17.43
16.45
15.73
14.90
13.50
11.16
7.90
4.06
0.22
-3.12
-5.81
-8.08
-10.39
-13.26
-17.02
-21.75
-27.25
-32.99
-38.20
-41.91
-43.19
-41.40
-36.50
-29.07
-20.22
-11.15
-2.88
4.00
9.35
13.28
16.02
17.75
18.60
18.70
18.23
17.45
16.64
16.00
15.64
15.53
15.51
15.45
15.22
14.77
14.13
13.30
12.17
10.62
8.52
5.84
2.74
-0.48
-3.52
-6.16
-8.43
-10.54
-12.83
-15.66
-19.25
-23.60
-28.39
-33.01
-36.65
-38.43
-37.72
-34.32
-28.57
-21.25
-13.35
-5.78
0.81
6.13
10.15
12.96
14.70
15.53
15.67
15.33
14.71
14.01
13.34
12.81
12.44
12.24
12.15
12.07
11.87
11.44
10.75
9.82
8.67
7.29
5.61
3.57
1.15
-1.53
-4.30
-6.93
-9.32
-11.50
-13.65
-16.02
-18.88
-22.35
-26.29
-30.23
-33.44
-35.07
-34.45
-31.29
-25.84
-18.83
-11.27
-4.07
2.09
6.91
10.39
12.74
14.14
14.74
14.61
13.84
12.57
11.05
9.60
8.46
7.71
7.22
6.67
5.81
4.49
2.83
1.07
-0.54
-1.92
-3.24
-4.77
-6.74
-9.14
-11.76
-14.21
-16.18
-17.55
-18.48
-19.35
-20.61
-22.59
-25.38
-28.68
-31.88
-34.07
-34.42
-32.34
-27.74
-21.04
-13.05
-4.74
3.00
9.53
14.55
17.95
19.86
20.49
20.13
19.14
17.89
16.74
15.86
15.24
14.62
13.64
12.02
9.69
6.91
4.11
1.75
0.08
-0.91
-1.50
-2.13
-3.18
-4.90
-7.25
-10.04
-12.96
-15.65
-17.90
-19.69
-21.22
-22.77
-24.70
-27.17
-30.15
-33.27
-35.89
-37.26
-36.69
-33.80
-28.67
-21.87
-14.32
-6.96
-0.54
4.58
8.40
11.14
12.99
14.14
14.64
14.61
14.18
13.63
13.20
13.05
13.17
13.37
13.36
12.88
11.87
10.45
8.89
7.51
6.50
5.81
5.14
4.09
2.31
-0.29
-3.51
-6.95
-10.15
-12.85
-15.06
-16.98
-18.90
-21.05
-23.59
-26.55
-29.87
-33.34
-36.50
-38.69
-39.09
-37.08
-32.40
-25.47
-17.24
-8.95
-1.67
3.99
7.97
10.63
12.42
13.66
14.40
14.56
14.12
13.20
12.15
11.34
11.04
11.22
11.61
11.82
11.58
10.83
9.76
8.64
7.70
6.94
6.11
4.86
2.93
0.34
-2.61
-5.51
-7.97
-9.89
-11.44
-12.95
-14.73
-16.93
-19.50
-22.29
-25.25
-28.49
-32.17
-36.36
-40.74
-44.56
-46.82
-46.62
-43.49
-37.65
-29.95
-21.58
-13.65
-6.85
-1.39
2.85
6.08
8.41
9.80
10.26
9.95
9.27
8.71
8.64
9.15
10.01
10.81
11.14
10.80
9.84
8.47
7.00
5.64
4.45
3.25
1.76
-0.33
-3.14
-6.60
-10.37
-14.02
-17.22
-19.83
-22.05
-24.22
-26.71
-29.84
-33.70
-38.19
-42.92
-47.24
-50.26
-51.09
-49.06
-44.03
-36.42
-27.16
-17.40
-8.18
-0.23
6.12
10.86
14.16
16.28
17.46
17.96
18.03
17.90
17.76
17.74
17.92
18.30
18.83
19.42
19.93
20.19
20.06
19.39
18.09
16.16
13.69
10.84
7.79
4.72
1.70
-1.29
-4.42
-7.93
-12.04
-16.85
-22.17
-27.44
-31.79
-34.19
-33.71
-29.91
-23.00
-13.81
-3.61
6.32
15.03
22.02
27.21
30.68
32.58
33.00
32.10
30.17
27.71
25.28
23.39
22.30
21.95
22.04
22.15
21.91
21.05
19.49
17.34
14.76
11.98
9.18
6.37
3.41
0.11
-3.79
-8.42
-13.72
-19.49
-25.25
-30.32
-33.88
-35.05
-33.19
-28.14
-20.33
-10.72
-0.57
8.94
16.91
22.89
26.72
28.44
28.16
26.13
22.82
18.90
15.15
12.20
10.36
9.53
9.30
9.14
8.66
7.71
6.35
4.78
3.16
1.53
-0.20
-2.21
-4.72
-7.93
-12.04
-17.11
-22.88
-28.71
-33.57
-36.28
-35.87
-31.91
-24.71
-15.22
-4.70
5.66
15.00
22.81
28.78
32.75
34.60
34.43
32.62
29.88
27.04
24.78
23.44
22.91
22.75
22.48
21.72
20.33
18.45
16.35
14.27
12.32
10.41
8.25
5.48
1.70
-3.32
-9.55
-16.56
-23.49
-29.18
-32.39
-32.13
-28.02
-20.44
-10.42
0.63
11.37
20.81
28.43
34.09
37.78
39.55
39.47
37.73
34.79
31.30
27.99
25.39
23.66
22.61
21.78
20.69
19.04
16.83
14.27
11.66
9.27
7.16
5.18
2.98
0.14
-3.69
-8.65
-14.54
-20.76
-26.38
-30.28
-31.46
-29.37
-24.06
-16.20
-6.84
2.91
12.08
20.06
26.48
31.16
34.01
35.10
34.63
33.03
30.82
28.52
26.53
25.02
23.99
23.30
22.75
22.13
21.25
19.93
18.08
15.71
12.96
10.14
7.58
5.49
3.82
2.19
-0.03
-3.41
-8.15
-13.82
-19.38
-23.45
-24.83
-22.91
-17.95
-10.87
-2.93
4.76
11.50
17.00
21.26
24.29
25.98
26.24
25.12
22.97
20.39
18.04
16.36
15.44
15.00
14.65
14.07
13.18
12.11
11.06
10.10
9.09
7.73
5.81
3.25
0.28
-2.79
-5.69
-8.37
-11.00
-13.93
-17.44
-21.55
-25.87
-29.66
-31.98
-31.96
-29.12
-23.56
-16.02
-7.61
0.48
7.29
12.36
15.60
17.17
17.31
16.20
14.02
11.09
7.84
4.82
2.51
1.20
0.89
1.28
1.87
2.19
1.86
0.79
-0.93
-3.01
-5.16
-7.20
-9.07
-10.86
-12.70
-14.78
-17.18
-19.98
-23.05
-26.08
-28.55
-29.76
-29.09
-26.15
-21.06
-14.39
-7.06
0.00
6.05
10.67
13.79
15.50
15.91
15.13
13.26
10.54
7.39
4.36
1.99
0.65
0.36
0.78
1.37
1.57
1.06
-0.19
-1.91
-3.70
-5.20
-6.31
-7.19
-8.19
-9.69
-11.93
-14.94
-18.52
-22.31
-25.83
-28.58
-30.04
-29.72
-27.29
-22.72
-16.40
-9.11
-1.84
4.48
9.25
12.30
13.79
14.00
13.25
11.72
9.61
7.18
4.83
2.96
1.87
1.61
1.91
2.34
2.46
2.02
1.00
-0.39
-1.89
-3.30
-4.62
-5.99
-7.68
-9.90
-12.79
-16.32
-20.27
-24.31
-27.93
-30.58
-31.68
-30.75
-27.59
-22.40
-15.78
-8.63
-1.84
3.92
8.34
11.41
13.34
14.31
14.43
13.75
12.38
10.58
8.71
7.16
6.16
5.70
5.58
5.51
5.23
4.63
3.72
2.57
1.25
-0.23
-1.87
-3.63
-5.53
-7.58
-9.89
-12.68
-16.12
-20.22
-24.64
-28.70
-31.49
-32.20
-30.35
-26.03
-19.84
-12.72
-5.62
0.73
5.92
9.86
12.62
14.29
14.93
14.60
13.45
11.75
9.91
8.32
7.27
6.81
6.73
6.72
6.44
5.76
4.69
3.34
1.90
0.42
-1.12
-2.78
-4.61
-6.62
-8.83
-11.33
-14.28
-17.88
-22.19
-26.98
-31.63
-35.26
-36.91
-35.88
-32.02
-25.73
-17.88
-9.52
-1.59
5.27
10.75
14.71
17.19
18.25
18.02
16.74
14.73
12.44
10.28
8.64
7.72
7.51
7.81
8.24
8.43
8.08
7.09
5.53
3.56
1.36
-0.96
-3.36
-5.81
-8.32
-10.91
-13.68
-16.79
-20.44
-24.58
-28.88
-32.58
-34.75
-34.54
-31.49
-25.72
-17.93
-9.17
-0.51
7.17
13.33
17.74
20.39
21.41
21.00
19.48
17.21
14.68
12.35
10.62
9.65
9.40
9.63
9.95
10.02
9.60
8.65
7.24
5.55
3.74
1.89
0.00
-2.01
-4.27
-6.92
-10.06
-13.78
-17.96
-22.26
-26.03
-28.39
-28.48
-25.74
-20.21
-12.52
-3.72
5.01
12.77
19.00
23.52
26.35
27.58
27.37
25.95
23.68
21.07
18.66
16.86
15.84
15.52
15.62
15.78
15.67
15.13
14.07
12.57
10.74
8.68
6.45
4.09
1.63
-0.92
-3.58
-6.46
-9.68
-13.44
-17.77
-22.48
-27.05
-30.64
-32.33
-31.37
-27.45
-20.86
-12.40
-3.17
5.74
13.49
19.61
23.92
26.47
27.41
27.05
25.76
23.99
22.13
20.44
18.99
17.73
16.55
15.42
14.37
13.44
12.63
11.79
10.72
9.25
7.29
4.91
2.27
-0.48
-3.28
-6.12
-9.12
-12.46
-16.28
-20.63
-25.30
-29.77
-33.23
-34.75
-33.59
-29.50
-22.88
-14.66
-5.99
2.09
8.92
14.26
18.11
20.57
21.71
21.62
20.49
18.73
16.86
15.34
14.45
14.16
14.21
14.31
14.25
13.98
13.53
12.95
12.22
11.23
9.87
8.11
6.01
3.71
1.34
-1.08
-3.64
-6.55
-10.05
-14.28
-19.10
-24.04
-28.32
-30.98
-31.19
-28.51
-23.07
-15.55
-6.96
1.62
9.28
15.47
19.95
22.76
24.07
24.09
23.13
21.47
19.48
17.49
15.82
14.67
14.11
14.04
14.21
14.33
14.11
13.42
12.22
10.58
8.62
6.46
4.18
1.84
-0.51
-2.84
-5.19
-7.65
-10.45
-13.79
-17.76
-22.13
-26.24
-29.12
-29.79
-27.58
-22.50
-15.25
-7.06
0.73
7.17
11.84
14.82
16.44
17.03
16.73
15.56
13.61
11.18
8.76
6.89
5.89
5.79
6.21
6.58
6.31
5.15
3.19
0.89
-1.21
-2.73
-3.65
-4.34
-5.33
-7.07
-9.77
-13.37
-17.59
-22.07
-26.35
-29.88
-32.03
-32.18
-29.86
-25.04
-18.15
-10.06
-1.80
5.64
11.57
15.68
18.00
18.77
18.32
17.01
15.11
12.87
10.52
8.34
6.63
5.63
5.37
5.62
5.96
5.92
5.21
3.85
2.10
0.34
-1.19
-2.49
-3.80
-5.48
-7.83
-10.98
-14.85
-19.12
-23.28
-26.68
-28.60
-28.37
-25.59
-20.31
-13.09
-4.89
3.14
10.03
15.23
18.66
20.60
21.41
21.38
20.61
19.18
17.21
15.02
13.01
11.56
10.77
10.41
9.99
9.02
7.23
4.74
1.94
-0.67
-2.80
-4.44
-5.94
-7.74
-10.23
-13.56
-17.60
-22.00
-26.22
-29.65
-31.64
-31.64
-29.33
-24.71
-18.22
-10.60
-2.77
4.48
10.61
15.39
18.77
20.77
21.42
20.81
19.10
16.69
14.06
11.68
9.88
8.74
8.09
7.64
7.11
6.33
5.25
3.92
2.42
0.79
-0.95
-2.84
-4.90
-7.15
-9.70
-12.62
-16.01
-19.83
-23.80
-27.33
-29.62
-29.91
-27.68
-22.98
-16.34
-8.67
-0.94
6.10
11.99
16.57
19.83
21.82
22.55
22.06
20.43
17.89
14.83
11.70
8.94
6.76
5.17
3.96
2.86
1.65
0.27
-1.23
-2.79
-4.41
-6.15
-8.09
-10.26
-12.60
-15.08
-17.72
-20.62
-23.82
-27.15
-30.10
-31.93
-31.88
-29.44
-24.58
-17.76
-9.80
-1.67
5.78
11.89
16.30
18.91
19.75
18.97
16.84
13.74
10.21
6.83
4.15
2.46
1.75
1.68
1.80
1.65
0.99
-0.20
-1.79
-3.57
-5.39
-7.19
-9.08
-11.26
-14.00
-17.50
-21.83
-26.76
-31.64
-35.63
-37.76
-37.33
-34.07
-28.30
-20.79
-12.52
-4.41
2.88
8.95
13.61
16.73
18.21
18.00
16.28
13.48
10.27
7.34
5.19
4.02
3.66
3.74
3.88
3.75
3.21
2.24
0.90
-0.69
-2.41
-4.20
-6.11
-8.30
-11.07
-14.65
-19.09
-24.03
-28.69
-32.05
-33.09
-31.21
-26.35
-19.12
-10.49
-1.52
6.93
14.35
20.47
25.16
28.21
29.44
28.82
26.60
23.40
20.08
17.40
15.79
15.17
15.04
14.78
13.95
12.41
10.33
8.02
5.69
3.40
1.06
-1.49
-4.36
-7.68
-11.62
-16.27
-21.61
-27.27
-32.43
-35.92
-36.57
-33.61
-27.03
-17.66
-6.89
3.82
13.32
20.99
26.70
30.54
32.63
33.09
32.05
29.82
26.87
23.79
21.07
19.00
17.58
16.57
15.63
14.41
12.69
10.46
7.91
5.36
3.08
1.18
-0.61
-2.75
-5.79
-10.05
-15.47
-21.52
-27.31
-31.85
-34.16
-33.62
-30.01
-23.58
-14.97
-5.10
5.03
14.54
22.68
28.93
32.97
34.72
34.39
32.47
29.59
26.42
23.43
20.88
18.78
17.08
15.71
14.59
13.56
12.43
10.99
9.13
6.95
4.69
2.57
0.66
-1.28
-3.73
-7.19
-11.95
-17.90
-24.38
-30.37
-34.62
-36.05
-33.97
-28.36
-19.76
-9.17
2.24
13.40
23.45
31.75
37.88
41.61
42.91
42.10
39.75
36.67
33.65
31.25
29.65
28.59
27.56
25.99
23.59
20.38
16.75
13.18
10.02
7.32
4.83
2.20
-0.87
-4.51
-8.69
-13.40
-18.54
-23.92
-29.00
-32.90
-34.53
-33.01
-28.08
-20.25
-10.75
-1.01
7.65
14.44
19.10
21.74
22.61
21.97
20.07
17.17
13.66
10.04
6.78
4.25
2.55
1.49
0.64
-0.39
-1.84
-3.60
-5.33
-6.64
-7.37
-7.69
-8.08
-9.15
-11.36
-14.82
-19.23
-23.91
-27.98
-30.54
-30.82
-28.44
-23.41
-16.16
-7.46
1.81
10.73
18.53
24.63
28.68
30.59
30.59
29.14
26.85
24.26
21.78
19.59
17.67
15.94
14.29
12.66
11.00
9.25
7.37
5.36
3.26
1.16
-0.87
-2.89
-5.09
-7.86
-11.59
-16.48
-22.30
-28.37
-33.61
-36.86
-37.26
-34.52
-28.96
-21.41
-12.96
-4.63
2.75
8.66
12.84
15.23
15.95
15.29
13.70
11.74
10.01
8.92
8.57
8.72
8.92
8.75
8.02
6.88
5.64
4.59
3.77
2.94
1.78
-0.07
-2.75
-6.28
-10.57
-15.37
-20.28
-24.65
-27.66
-28.48
-26.55
-21.79
-14.70
-6.22
2.48
10.31
16.44
20.46
22.35
22.39
21.08
18.93
16.39
13.80
11.35
9.13
7.17
5.42
3.79
2.20
0.60
-0.97
-2.39
-3.54
-4.40
-5.10
-5.90
-7.15
-9.21
-12.28
-16.35
-21.09
-25.79
-29.47
-31.11
-29.96
-25.79
-19.07
-10.78
-2.13
5.83
12.37
17.19
20.27
21.72
21.70
20.40
18.12
15.29
12.38
9.86
8.01
6.83
6.06
5.31
4.17
2.49
0.36
-1.85
-3.73
-5.08
-6.01
-6.99
-8.63
-11.43
-15.57
-20.78
-26.39
-31.47
-35.07
-36.41
-35.05
-30.92
-24.40
-16.20
-7.27
1.46
9.11
15.09
19.14
21.26
21.65
20.62
18.49
15.64
12.45
9.33
6.60
4.42
2.69
1.13
-0.57
-2.58
-4.86
-7.21
-9.45
-11.55
-13.65
-16.04
-18.98
-22.66
-27.05
-31.91
-36.67
-40.45
-42.27
-41.20
-36.80
-29.28
-19.46
-8.59
2.11
11.73
19.66
25.60
29.33
30.73
29.91
27.28
23.60
19.74
16.43
13.95
12.20
10.76
9.22
7.37
5.22
2.94
0.66
-1.61
-3.94
-6.52
-9.54
-13.17
-17.52
-22.48
-27.66
-32.33
-35.49
-36.14
-33.62
-27.85
-19.43
-9.43
0.86
10.34
18.25
24.22
28.11
29.96
29.87
28.07
25.04
21.40
17.89
15.06
13.12
11.87
10.87
9.73
8.23
6.47
4.69
3.10
1.66
0.11
-1.94
-4.88
-8.91
-14.02
-19.92
-25.99
-31.31
-34.80
-35.50
-32.79
-26.76
-18.15
-8.19
1.79
10.72
17.92
23.17
26.48
27.99
27.85
26.32
23.75
20.62
17.47
14.68
12.44
10.71
9.28
7.92
6.48
4.91
3.29
1.69
0.15
-1.43
-3.28
-5.70
-9.03
-13.47
-18.95
-24.95
-30.54
-34.50
-35.63
-33.13
-26.87
-17.48
-6.21
5.51
16.32
25.32
32.08
36.54
38.86
39.30
38.18
35.86
32.85
29.72
26.95
24.83
23.37
22.26
21.11
19.59
17.60
15.26
12.84
10.57
8.50
6.47
4.15
1.12
-2.93
-8.10
-14.20
-20.65
-26.50
-30.63
-31.99
-29.92
-24.46
-16.30
-6.59
3.39
12.65
20.53
26.76
31.17
33.67
34.17
32.74
29.80
26.02
22.22
19.02
16.71
15.12
13.85
12.49
10.85
8.98
7.07
5.24
3.47
1.58
-0.67
-3.46
-6.93
-11.13
-16.04
-21.51
-27.09
-31.99
-35.20
-35.72
-32.99
-27.02
-18.50
-8.55
1.55
10.73
18.23
23.64
26.85
27.93
27.10
24.73
21.31
17.46
13.83
10.91
8.97
7.96
7.52
7.20
6.58
5.46
3.91
2.13
0.34
-1.37
-3.12
-5.23
-8.11
-12.07
-17.13
-22.92
-28.56
-32.91
-34.85
-33.69
-29.40
-22.59
-14.30
-5.60
2.64
9.85
15.74
20.09
22.71
23.47
22.45
20.05
16.95
13.91
11.51
9.94
8.99
8.17
7.05
5.38
3.27
1.04
-0.98
-2.67
-4.18
-5.83
-7.98
-10.88
-14.64
-19.17
-24.17
-29.12
-33.24
-35.61
-35.36
-32.05
-25.77
-17.30
-7.74
1.71
10.13
16.98
22.03
25.27
26.76
26.61
25.03
22.33
18.95
15.40
12.11
9.40
7.39
5.97
4.88
3.79
2.46
0.83
-1.01
-2.85
-4.59
-6.33
-8.44
-11.36
-15.44
-20.72
-26.77
-32.78
-37.64
-40.30
-39.98
-36.44
-30.04
-21.67
-12.49
-3.56
4.35
10.88
15.90
19.39
21.29
21.53
20.19
17.61
14.41
11.31
8.93
7.50
6.84
6.48
5.92
4.87
3.30
1.46
-0.39
-2.09
-3.65
-5.27
-7.15
-9.50
-12.47
-16.19
-20.77
-26.10
-31.74
-36.87
-40.39
-41.28
-38.97
-33.54
-25.74
-16.68
-7.51
0.88
7.97
13.48
17.30
19.37
19.64
18.23
15.43
11.77
7.91
4.53
2.12
0.82
0.38
0.28
-0.03
-0.93
-2.45
-4.35
-6.35
-8.27
-10.16
-12.22
-14.71
-17.79
-21.52
-25.90
-30.88
-36.22
-41.36
-45.36
-47.05
-45.40
-40.00
-31.26
-20.41
-9.03
1.44
10.08
16.60
21.11
23.78
24.73
23.93
21.47
17.79
13.64
9.92
7.40
6.37
6.55
7.19
7.42
6.64
4.72
2.02
-0.83
-3.32
-5.23
-6.83
-8.63
-11.18
-14.82
-19.62
-25.33
-31.44
-37.23
-41.78
-44.11
-43.32
-38.90
-30.96
-20.26
-8.11
4.07
15.01
23.92
30.46
34.69
36.79
36.99
35.57
32.88
29.46
25.93
22.90
20.79
19.63
19.09
18.62
17.67
15.93
13.42
10.43
7.38
4.59
2.09
-0.30
-2.98
-6.34
-10.67
-16.04
-22.18
-28.52
-34.11
-37.83
-38.53
-35.49
-28.59
-18.50
-6.46
6.04
17.67
27.52
35.12
40.31
43.09
43.56
41.96
38.74
34.55
30.15
26.25
23.26
21.31
20.17
19.40
18.51
17.11
15.02
12.32
9.29
6.30
3.59
1.24
-0.97
-3.45
-6.67
-11.04
-16.64
-23.17
-29.79
-35.29
-38.28
-37.68
-33.05
-24.75
-13.86
-1.85
9.89
20.31
28.79
35.02
38.89
40.38
39.67
37.19
33.63
29.79
26.44
24.01
22.57
21.88
21.52
21.06
20.21
18.83
16.94
14.66
12.17
9.64
7.19
4.86
2.53
-0.04
-3.22
-7.38
-12.73
-19.11
-25.86
-31.85
-35.74
-36.36
-33.12
-26.21
-16.59
-5.61
5.37
15.29
23.53
29.77
33.91
35.95
36.01
34.44
31.77
28.66
25.71
23.33
21.67
20.67
20.13
19.80
19.44
18.83
17.78
16.15
13.87
10.98
7.63
4.04
0.45
-2.99
-6.28
-9.60
-13.26
-17.57
-22.63
-28.14
-33.39
-37.28
-38.68
-36.78
-31.31
-22.77
-12.24
-1.06
9.45
18.35
25.13
29.62
31.86
31.98
30.16
26.72
22.18
17.27
12.79
9.42
7.54
7.09
7.65
8.53
9.04
8.67
7.23
4.86
1.91
-1.17
-4.04
-6.54
-8.79
-11.16
-14.09
-17.97
-22.88
-28.47
-33.96
-38.21
-40.08
-38.70
-33.91
-26.20
-16.70
-6.75
2.45
10.13
15.98
20.03
22.43
23.24
22.52
20.38
17.16
13.47
10.03
7.47
6.11
5.86
6.26
6.74
6.81
6.22
4.98
3.30
1.42
-0.47
-2.34
-4.32
-6.54
-9.17
-12.33
-16.03
-20.24
-24.74
-29.11
-32.68
-34.55
-33.84
-29.99
-22.99
-13.58
-3.04
7.19
15.89
22.37
26.55
28.73
29.32
28.64
26.88
24.21
20.91
17.45
14.43
12.31
11.27
11.08
11.21
11.02
10.06
8.26
5.90
3.49
1.40
-0.27
-1.77
-3.51
-5.91
-9.14
-13.16
-17.77
-22.66
-27.47
-31.67
-34.55
-35.31
-33.32
-28.38
-20.91
-11.94
-2.74
5.51
12.05
16.57
19.22
20.36
20.34
19.46
17.90
15.80
13.35
10.83
8.54
6.79
5.67
5.08
4.71
4.16
3.18
1.70
-0.11
-2.00
-3.73
-5.23
-6.57
-7.94
-9.55
-11.65
-14.40
-17.88
-21.91
-26.01
-29.44
-31.32
-30.90
-27.80
-22.19
-14.74
-6.43
1.66
8.65
13.92
17.26
18.75
18.71
17.56
15.72
13.53
11.24
9.01
6.98
5.30
4.08
3.38
3.09
2.94
2.60
1.72
0.15
-2.06
-4.64
-7.21
-9.52
-11.46
-13.21
-15.08
-17.48
-20.69
-24.74
-29.35
-33.92
-37.61
-39.53
-38.95
-35.50
-29.32
-21.02
-11.57
-2.07
6.47
13.31
18.05
20.59
21.08
19.79
17.09
13.38
9.16
4.97
1.36
-1.23
-2.62
-2.93
-2.57
-2.14
-2.17
-2.98
-4.57
-6.63
-8.73
-10.54
-11.97
-13.18
-14.58
-16.60
-19.60
-23.70
-28.66
-33.88
-38.48
-41.42
-41.82
-39.23
-33.78
-26.14
-17.34
-8.48
-0.45
6.15
10.99
13.90
14.81
13.77
11.12
7.41
3.45
0.01
-2.35
-3.51
-3.72
-3.49
-3.36
-3.63
-4.39
-5.46
-6.68
-7.96
-9.30
-10.82
-12.62
-14.78
-17.38
-20.57
-24.51
-29.19
-34.31
-39.07
-42.32
-42.90
-40.10
-33.88
-24.96
-14.52
-3.84
6.07
14.54
21.19
25.82
28.28
28.56
26.83
23.58
19.56
15.58
12.37
10.21
9.01
8.35
7.65
6.50
4.76
2.58
0.29
-1.86
-3.78
-5.52
-7.26
-9.21
-11.61
-14.73
-18.87
-24.25
-30.68
-37.45
-43.27
-46.59
-46.09
-41.23
-32.44
-21.06
-8.79
2.84
12.80
20.70
26.53
30.41
32.38
32.38
30.50
27.10
22.93
18.94
16.02
14.62
14.56
15.18
15.57
15.01
13.23
10.45
7.20
3.98
1.10
-1.45
-3.89
-6.54
-9.68
-13.54
-18.30
-23.98
-30.35
-36.75
-42.13
-45.23
-44.94
-40.68
-32.62
-21.66
-9.19
3.29
14.51
23.65
30.31
34.42
36.15
35.77
33.65
30.32
26.41
22.61
19.46
17.25
15.95
15.25
14.75
14.08
13.06
11.66
9.96
8.08
6.07
3.94
1.63
-0.95
-3.90
-7.41
-11.69
-16.88
-22.97
-29.54
-35.78
-40.49
-42.39
-40.50
-34.53
-25.01
-13.15
-0.55
11.29
21.27
28.76
33.50
35.48
34.86
32.02
27.59
22.45
17.60
13.84
11.54
10.59
10.50
10.65
10.52
9.92
8.91
7.70
6.46
5.24
3.90
2.20
-0.17
-3.48
-8.00
-13.84
-20.90
-28.65
-36.09
-41.83
-44.36
-42.53
-36.02
-25.43
-12.24
1.71
14.71
25.62
33.93
39.57
42.73
43.58
42.34
39.35
35.18
30.62
26.48
23.32
21.37
20.39
19.92
19.44
18.55
17.06
14.97
12.40
9.49
6.39
3.20
-0.05
-3.48
-7.36
-12.03
-17.82
-24.83
-32.72
-40.59
-47.07
-50.67
-50.18
-45.08
-35.73
-23.29
-9.35
4.45
16.83
26.99
34.58
39.58
42.16
42.58
41.19
38.48
35.01
31.37
28.08
25.47
23.66
22.51
21.74
21.02
20.02
18.55
16.55
14.07
11.23
8.16
4.91
1.48
-2.23
-6.36
-11.11
-16.64
-22.97
-29.88
-36.69
-42.27
-45.24
-44.36
-39.00
-29.47
-17.00
-3.39
9.57
20.58
29.02
34.77
38.02
38.95
37.76
34.72
30.38
25.53
21.02
17.55
15.37
14.24
13.61
12.82
11.40
9.20
6.39
3.34
0.41
-2.19
-4.49
-6.74
-9.38
-12.84
-17.53
-23.60
-30.83
-38.53
-45.49
-50.25
-51.42
-48.13
-40.37
-29.05
-15.75
-2.25
9.93
19.77
26.80
30.96
32.39
31.36
28.28
23.79
18.72
13.96
10.31
8.15
7.42
7.60
7.96
7.84
6.88
5.13
2.97
0.86
-0.94
-2.45
-4.03
-6.20
-9.46
-14.13
-20.25
-27.49
-35.14
-42.08
-46.94
-48.34
-45.32
-37.68
-26.15
-12.23
2.26
15.66
26.84
35.30
41.06
44.33
45.41
44.55
42.10
38.51
34.39
30.45
27.24
25.09
23.91
23.36
22.87
21.99
20.41
18.14
15.43
12.64
10.00
7.54
4.99
1.85
-2.45
-8.31
-15.76
-24.36
-33.13
-40.69
-45.51
-46.31
-42.39
-33.89
-21.77
-7.61
6.84
20.02
30.82
38.68
43.51
45.53
45.18
43.03
39.68
35.74
31.76
28.17
25.27
23.21
21.94
21.21
20.63
19.71
18.07
15.56
12.31
8.66
4.97
1.44
-2.00
-5.66
-9.98
-15.40
-22.15
-30.16
-38.83
-47.06
-53.33
-56.06
-54.03
-46.87
-35.21
-20.56
-4.85
10.10
22.97
33.09
40.23
44.44
45.90
44.86
41.83
37.54
32.92
28.85
25.96
24.47
24.14
24.45
24.79
24.65
23.73
22.00
19.55
16.56
13.19
9.51
5.58
1.40
-3.08
-8.02
-13.73
-20.48
-28.28
-36.57
-44.14
-49.32
-50.46
-46.57
-37.68
-24.92
-10.13
4.69
17.94
28.66
36.62
41.94
44.93
45.84
44.89
42.36
38.68
34.50
30.56
27.51
25.64
24.85
24.62
24.29
23.28
21.34
18.53
15.14
11.53
7.91
4.31
0.64
-3.23
-7.43
-12.12
-17.49
-23.79
-31.05
-38.92
-46.42
-52.09
-54.35
-52.01
-44.78
-33.44
-19.59
-5.12
8.29
19.57
28.26
34.35
38.02
39.53
39.16
37.31
34.52
31.41
28.55
26.29
24.69
23.61
22.73
21.86
20.87
19.71
18.36
16.69
14.54
11.74
8.29
4.33
0.11
-4.13
-8.29
-12.43
-16.77
-21.62
-27.18
-33.37
-39.73
-45.37
-49.05
-49.55
-46.03
-38.45
-27.62
-15.00
-2.26
9.14
18.31
24.90
28.96
30.78
30.67
29.04
26.37
23.21
20.09
17.41
15.37
13.98
13.17
12.83
12.82
12.99
13.08
12.86
12.07
10.59
8.40
5.63
2.48
-0.94
-4.49
-8.14
-11.86
-15.66
-19.66
-24.10
-29.20
-35.01
-41.15
-46.69
-50.32
-50.77
-47.28
-39.92
-29.64
-17.96
-6.45
3.64
11.62
17.25
20.62
21.98
21.66
20.07
17.74
15.26
13.16
11.82
11.42
11.90
13.08
14.65
16.25
17.53
18.16
17.92
16.70
14.63
11.94
8.98
6.00
3.11
0.22
-2.89
-6.47
-10.74
-15.76
-21.46
-27.48
-33.23
-37.84
-40.29
-39.70
-35.66
-28.41
-18.92
-8.58
1.14
9.08
14.65
17.74
18.63
17.76
15.54
12.36
8.56
4.48
0.52
-2.94
-5.60
-7.29
-8.05
-8.14
-7.92
-7.86
-8.27
-9.26
-10.70
-12.31
-13.84
-15.17
-16.35
-17.57
-19.02
-20.84
-23.16
-26.05
-29.58
-33.58
-37.58
-40.70
-41.86
-40.13
-35.15
-27.32
-17.78
-7.93
0.91
7.94
12.92
15.97
17.38
17.48
16.51
14.74
12.49
10.11
7.92
6.08
4.66
3.59
2.75
2.01
1.27
0.43
-0.61
-1.90
-3.47
-5.29
-7.28
-9.41
-11.67
-14.11
-16.74
-19.58
-22.63
-25.93
-29.58
-33.59
-37.78
-41.58
-44.07
-44.22
-41.33
-35.31
-26.86
-17.24
-7.83
0.28
6.53
10.85
13.49
14.75
14.86
13.98
12.26
9.99
7.51
5.23
3.44
2.31
1.75
1.56
1.44
1.11
0.45
-0.59
-1.98
-3.67
-5.66
-7.99
-10.62
-13.42
-16.23
-18.88
-21.34
-23.85
-26.84
-30.75
-35.76
-41.52
-47.08
-51.13
-52.41
-50.16
-44.44
-36.07
-26.30
-16.41
-7.35
0.36
6.51
10.97
13.65
14.50
13.69
11.67
9.13
6.76
5.00
3.97
3.54
3.43
3.46
3.57
3.75
3.99
4.18
4.11
3.58
2.44
0.69
-1.56
-4.13
-6.81
-9.49
-12.17
-15.09
-18.61
-23.09
-28.62
-34.90
-41.11
-46.12
-48.74
-48.04
-43.70
-35.99
-25.79
-14.29
-2.78
7.64
16.18
22.40
26.22
27.82
27.61
26.14
24.02
21.80
19.91
18.56
17.74
17.33
17.16
17.12
17.16
17.27
17.41
17.47
17.19
16.32
14.63
12.05
8.67
4.78
0.67
-3.42
-7.41
-11.49
-16.02
-21.39
-27.80
-35.05
-42.36
-48.50
-52.03
-51.74
-47.05
-38.20
-26.26
-12.82
0.42
12.09
21.33
27.84
31.75
33.42
33.33
31.97
29.88
27.59
25.59
24.27
23.83
24.18
25.00
25.90
26.49
26.59
26.18
25.35
24.19
22.65
20.64
18.00
14.73
10.90
6.66
2.12
-2.72
-8.02
-13.96
-20.57
-27.58
-34.26
-39.47
-41.92
-40.49
-34.70
-24.90
-12.24
1.67
15.15
26.92
36.24
42.87
46.88
48.46
47.87
45.43
41.65
37.15
32.58
28.49
25.22
22.85
21.33
20.48
20.09
19.90
19.64
18.97
17.63
15.48
12.61
9.27
5.81
2.47
-0.66
-3.71
-7.02
-10.95
-15.84
-21.78
-28.44
-35.03
-40.29
-42.88
-41.76
-36.57
-27.79
-16.61
-4.53
7.08
17.25
25.44
31.42
35.15
36.70
36.26
34.26
31.29
27.98
24.85
22.22
20.16
18.62
17.53
16.80
16.31
15.79
14.92
13.39
11.02
7.88
4.26
0.54
-2.99
-6.19
-9.17
-12.15
-15.43
-19.29
-23.93
-29.34
-35.23
-40.91
-45.33
-47.32
-45.94
-40.76
-32.09
-20.92
-8.69
3.14
13.37
21.26
26.59
29.52
30.43
29.85
28.31
26.32
24.24
22.32
20.60
19.09
17.71
16.49
15.48
14.73
14.24
13.84
13.29
12.32
10.80
8.71
6.21
3.43
0.48
-2.58
-5.79
-9.20
-12.88
-16.91
-21.44
-26.50
-31.89
-37.06
-41.06
-42.75
-41.14
-35.83
-27.14
-16.19
-4.50
6.41
15.45
22.17
26.65
29.25
30.36
30.27
29.14
27.18
24.75
22.32
20.37
19.20
18.84
19.00
19.28
19.24
18.66
17.46
15.76
13.72
11.44
8.94
6.14
2.99
-0.48
-4.11
-7.76
-11.39
-15.18
-19.51
-24.64
-30.52
-36.47
-41.35
-43.85
-42.96
-38.39
-30.63
-20.85
-10.35
-0.38
8.23
15.00
19.72
22.35
22.95
21.78
19.24
15.94
12.51
9.47
7.11
5.50
4.52
3.99
3.75
3.64
3.57
3.37
2.86
1.90
0.49
-1.27
-3.11
-4.87
-6.57
-8.46
-10.94
-14.41
-19.03
-24.61
-30.59
-36.05
-39.96
-41.42
-39.83
-35.10
-27.68
-18.43
-8.41
1.30
9.88
16.73
21.56
24.31
25.12
24.30
22.29
19.54
16.47
13.41
10.64
8.36
6.76
5.84
5.45
5.30
5.04
4.40
3.29
1.74
-0.17
-2.40
-4.96
-7.85
-11.02
-14.37
-17.89
-21.72
-26.17
-31.57
-37.88
-44.63
-50.74
-54.89
-55.86
-53.02
-46.47
-37.07
-26.09
-14.88
-4.57
4.07
10.62
14.92
17.07
17.31
16.10
14.00
11.59
9.35
7.59
6.42
5.77
5.54
5.57
5.70
5.73
5.46
4.72
3.39
1.45
-1.06
-4.01
-7.23
-10.60
-14.03
-17.56
-21.40
-25.87
-31.30
-37.85
-45.30
-52.98
-59.82
-64.57
-66.12
-63.81
-57.61
-48.15
-36.53
-24.07
-12.03
-1.41
7.23
13.69
18.09
20.74
22.05
22.41
22.21
21.77
21.31
20.95
20.73
20.64
20.62
20.65
20.73
20.87
20.96
20.80
20.10
18.56
16.03
12.56
8.41
3.95
-0.50
-4.74
-8.86
-13.15
-18.10
-24.08
-31.25
-39.29
-47.33
-54.06
-57.99
-57.89
-53.16
-44.04
-31.54
-17.18
-2.53
11.07
22.72
31.96
38.64
42.81
44.66
44.57
43.07
40.87
38.65
36.90
35.84
35.40
35.30
35.26
35.06
34.63
33.98
33.11
31.95
30.43
28.38
25.69
22.27
18.15
13.43
8.32
3.09
-2.03
-6.94
-11.73
-16.72
-22.30
-28.79
-36.14
-43.88
-51.03
-56.32
-58.44
-56.43
-49.94
-39.35
-25.75
-10.61
4.48
18.13
29.38
37.73
43.11
45.75
46.15
44.90
42.74
40.39
38.48
37.44
37.34
37.98
38.93
39.66
39.79
39.18
37.90
36.20
34.32
32.31
30.04
27.18
23.46
18.74
13.24
7.40
1.76
-3.35
-7.94
-12.36
-17.11
-22.61
-29.05
-36.21
-43.50
-49.97
-54.45
-55.77
-53.02
-45.82
-34.54
-20.26
-4.61
10.70
24.22
35.09
42.96
47.93
50.31
50.48
48.85
45.90
42.18
38.32
34.91
32.30
30.63
29.71
29.17
28.66
27.94
26.97
25.80
24.48
22.96
21.03
18.45
15.05
10.83
5.97
0.84
-4.20
-8.85
-13.01
-16.89
-20.88
-25.51
-31.15
-37.87
-45.18
-52.07
-57.13
-58.95
-56.48
-49.45
-38.39
-24.58
-9.59
5.00
17.99
28.57
36.32
41.15
43.20
42.88
40.89
38.03
35.12
32.72
31.06
30.00
29.28
28.62
27.89
27.12
26.40
25.75
25.07
24.15
22.71
20.52
17.46
13.59
9.15
4.49
-0.02
-4.17
-7.99
-11.78
-16.06
-21.33
-27.85
-35.30
-42.75
-48.83
-52.02
-51.09
-45.58
-35.87
-23.16
-9.13
4.55
16.52
25.99
32.69
36.77
38.58
38.57
37.17
34.84
32.04
29.22
26.77
24.93
23.67
22.82
22.11
21.31
20.37
19.32
18.19
16.90
15.17
12.69
9.26
4.99
0.31
-4.25
-8.25
-11.63
-14.63
-17.77
-21.57
-26.40
-32.33
-39.09
-46.02
-52.12
-56.21
-57.17
-54.30
-47.57
-37.67
-25.84
-13.52
-2.01
7.78
15.39
20.66
23.72
24.83
24.44
23.11
21.41
19.83
18.63
17.82
17.25
16.71
16.11
15.53
15.14
15.07
15.30
15.59
15.54
14.70
12.80
9.81
6.00
1.80
-2.30
-5.98
-9.12
-11.82
-14.40
-17.27
-20.86
-25.46
-31.01
-37.03
-42.60
-46.47
-47.46
-44.83
-38.57
-29.51
-18.92
-8.25
1.36
9.27
15.27
19.49
22.07
23.19
23.01
21.82
20.03
18.15
16.67
15.84
15.64
15.77
15.85
15.58
14.91
14.00
13.15
12.59
12.33
12.08
11.39
9.84
7.24
3.76
-0.13
-3.90
-7.20
-10.01
-12.61
-15.46
-18.98
-23.39
-28.66
-34.46
-40.16
-44.96
-47.89
-48.13
-45.19
-39.18
-30.78
-21.08
-11.32
-2.53
4.57
9.70
12.85
14.21
14.07
12.74
10.59
8.04
5.53
3.49
2.25
1.88
2.23
2.90
3.45
3.59
3.24
2.51
1.57
0.45
-0.95
-2.86
-5.37
-8.40
-11.61
-14.62
-17.14
-19.20
-21.08
-23.36
-26.55
-30.92
-36.30
-41.97
-46.82
-49.63
-49.47
-45.94
-39.36
-30.51
-20.48
-10.29
-0.79
7.37
13.75
18.01
20.06
20.07
18.52
16.11
13.53
11.31
9.66
8.56
7.88
7.50
7.43
7.72
8.36
9.22
9.98
10.25
9.68
8.12
5.65
2.52
-0.92
-4.38
-7.70
-10.85
-13.95
-17.20
-20.91
-25.35
-30.70
-36.82
-43.14
-48.61
-51.99
-52.14
-48.48
-41.21
-31.30
-20.16
-9.25
0.35
8.00
13.55
17.05
18.73
18.79
17.58
15.59
13.39
11.58
10.54
10.31
10.63
11.06
11.25
11.09
10.67
10.18
9.68
9.04
7.93
6.00
3.08
-0.72
-5.00
-9.23
-13.00
-16.19
-19.06
-22.15
-26.10
-31.34
-37.95
-45.49
-53.05
-59.35
-63.07
-63.13
-59.05
-51.02
-39.95
-27.19
-14.18
-2.15
8.11
16.19
21.95
25.49
27.04
26.99
25.93
24.52
23.33
22.70
22.62
22.88
23.18
23.30
23.19
22.90
22.54
22.11
21.49
20.48
18.81
16.27
12.80
8.52
3.75
-1.12
-5.77
-10.09
-14.21
-18.48
-23.35
-29.20
-36.13
-43.85
-51.62
-58.23
-62.26
-62.43
-58.01
-49.09
-36.65
-22.21
-7.46
6.23
18.02
27.50
34.56
39.16
41.33
41.23
39.36
36.52
33.63
31.55
30.70
31.01
32.03
33.16
33.90
34.09
33.81
33.25
32.57
31.67
30.30
28.14
24.94
20.68
15.58
10.00
4.33
-1.13
-6.24
-11.08
-15.90
-21.12
-27.21
-34.45
-42.73
-51.33
-58.94
-63.89
-64.66
-60.32
-50.95
-37.61
-22.07
-6.19
8.44
20.80
30.45
37.28
41.34
42.80
41.94
39.35
35.91
32.60
30.22
29.13
29.10
29.53
29.79
29.51
28.77
27.91
27.26
26.88
26.46
25.49
23.47
20.24
15.99
11.15
6.22
1.59
-2.66
-6.67
-10.83
-15.59
-21.40
-28.48
-36.64
-45.15
-52.77
-57.96
-59.25
-55.68
-47.16
-34.50
-19.21
-3.11
12.08
25.06
35.04
41.72
45.20
45.88
44.42
41.60
38.27
35.15
32.73
31.16
30.36
30.11
30.13
30.26
30.36
30.34
30.05
29.29
27.90
25.75
22.84
19.28
15.28
11.05
6.78
2.54
-1.70
-6.07
-10.84
-16.31
-22.76
-30.23
-38.32
-46.01
-51.77
-53.91
-51.21
-43.36
-31.18
-16.44
-1.19
12.77
24.35
33.16
39.30
43.06
44.71
44.55
42.98
40.56
37.93
35.66
34.08
33.20
32.78
32.49
32.05
31.37
30.52
29.65
28.82
27.87
26.36
23.80
19.81
14.37
7.88
1.02
-5.53
-11.34
-16.37
-20.98
-25.69
-31.06
-37.35
-44.39
-51.50
-57.59
-61.37
-61.70
-57.93
-50.13
-39.09
-26.16
-12.88
-0.68
9.45
17.03
22.06
24.90
26.07
26.09
25.44
24.54
23.78
23.47
23.79
24.74
26.11
27.58
28.90
30.02
31.02
32.07
33.18
34.18
34.74
34.54
33.39
31.36
28.73
25.88
23.12
20.61
18.24
15.71
12.59
8.44
2.95
-3.95
-11.94
-20.24
-27.71
-32.99
-34.93
-32.88
-26.98
-18.15
-7.77
2.73
12.23
20.10
26.14
30.36
32.89
33.90
33.63
32.48
30.90
29.29
27.90
26.80
25.88
24.98
23.94
22.64
21.04
19.14
17.04
14.86
12.69
10.54
8.25
5.65
2.55
-1.10
-5.16
-9.31
-13.21
-16.63
-19.52
-22.11
-24.77
-27.97
-32.09
-37.18
-42.93
-48.57
-53.01
-55.15
-54.22
-49.97
-42.81
-33.63
-23.56
-13.73
-5.02
1.98
6.98
9.93
11.00
10.53
9.00
6.97
5.02
3.60
2.96
3.07
3.70
4.52
5.26
5.76
6.08
6.31
6.49
6.53
6.18
5.20
3.52
1.31
-1.07
-3.22
-4.85
-5.97
-6.84
-7.86
-9.51
-12.13
-15.84
-20.46
-25.47
-29.96
-32.86
-33.17
-30.32
-24.43
-16.32
-7.26
1.45
8.87
14.50
18.29
20.41
21.11
20.62
19.17
17.13
14.87
12.81
11.19
10.06
9.28
8.61
7.82
6.80
5.58
4.25
2.89
1.48
-0.14
-2.13
-4.60
-7.48
-10.56
-13.55
-16.27
-18.66
-20.87
-23.13
-25.73
-28.92
-32.84
-37.33
-41.90
-45.71
-47.71
-46.97
-43.07
-36.21
-27.24
-17.36
-7.79
0.52
7.04
11.63
14.41
15.66
15.76
15.13
14.15
13.15
12.32
11.73
11.29
10.89
10.41
9.81
9.07
8.26
7.45
6.65
5.82
4.82
3.48
1.70
-0.53
-3.09
-5.81
-8.51
-11.10
-13.58
-16.08
-18.83
-22.14
-26.23
-31.14
-36.50
-41.54
-45.14
-46.17
-43.89
-38.27
-30.00
-20.32
-10.60
-1.91
5.17
10.52
14.30
16.75
18.05
18.32
17.77
16.68
15.43
14.37
13.71
13.44
13.36
13.21
12.78
12.03
11.09
10.22
9.62
9.37
9.29
9.03
8.12
6.26
3.40
-0.20
-4.10
-7.87
-11.29
-14.43
-17.59
-21.14
-25.37
-30.36
-35.93
-41.58
-46.53
-49.81
-50.49
-47.96
-42.14
-33.64
-23.52
-13.05
-3.36
4.81
11.15
15.70
18.63
20.17
20.47
19.71
18.13
16.09
14.10
12.60
11.89
11.98
12.60
13.31
13.77
13.79
13.44
12.89
12.28
11.60
10.65
9.17
6.94
3.91
0.24
-3.80
-7.84
-11.61
-14.96
-18.01
-21.02
-24.34
-28.32
-33.09
-38.48
-43.92
-48.52
-51.20
-51.02
-47.45
-40.56
-31.07
-20.10
-8.91
1.42
10.18
17.03
21.97
25.14
26.82
27.31
26.92
25.99
24.88
23.87
23.21
23.03
23.27
23.78
24.27
24.49
24.26
23.56
22.47
21.12
19.63
18.05
16.36
14.46
12.22
9.53
6.40
2.97
-0.54
-3.85
-6.87
-9.73
-12.78
-16.49
-21.23
-27.08
-33.69
-40.33
-45.98
-49.60
-50.31
-47.63
-41.60
-32.74
-22.01
-10.57
0.39
9.90
17.27
22.18
24.68
25.13
24.13
22.39
20.60
19.28
18.72
18.90
19.61
20.50
21.21
21.51
21.29
20.56
19.39
17.86
16.05
14.01
11.73
9.15
6.24
2.99
-0.50
-4.05
-7.42
-10.47
-13.21
-15.79
-18.59
-21.98
-26.26
-31.43
-37.13
-42.57
-46.68
-48.37
-46.83
-41.84
-33.82
-23.68
-12.65
-1.88
7.71
15.51
21.21
24.74
26.24
25.98
24.41
22.01
19.33
16.80
14.73
13.27
12.45
12.18
12.30
12.62
12.97
13.18
13.10
12.61
11.59
9.96
7.68
4.81
1.43
-2.27
-6.11
-9.95
-13.70
-17.39
-21.19
-25.41
-30.35
-36.14
-42.45
-48.42
-52.78
-54.18
-51.70
-45.12
-35.07
-22.78
-9.71
2.85
13.94
22.98
29.67
33.94
35.84
35.68
33.94
31.28
28.39
25.86
24.02
22.92
22.41
22.19
22.00
21.69
21.21
20.58
19.81
18.77
17.23
14.92
11.63
7.36
2.36
-2.95
-8.06
-12.62
-16.50
-19.97
-23.57
-27.97
-33.68
-40.78
-48.68
-56.19
-61.74
-63.86
-61.59
-54.79
-44.15
-30.96
-16.75
-2.96
9.29
19.27
26.67
31.52
34.12
35.00
34.71
33.78
32.65
31.60
30.77
30.19
29.78
29.36
28.79
27.95
26.89
25.71
24.52
23.33
22.02
20.32
17.93
14.65
10.53
5.81
0.88
-3.82
-8.04
-11.79
-15.32
-19.11
-23.70
-29.46
-36.37
-43.90
-50.94
-56.07
-57.88
-55.42
-48.54
-37.92
-24.86
-10.91
2.52
14.47
24.38
32.05
37.51
40.88
42.41
42.45
41.48
40.00
38.46
37.15
36.21
35.62
35.29
35.12
35.02
34.88
34.59
34.02
33.03
31.55
29.56
27.08
24.14
20.76
16.91
12.58
7.86
2.91
-2.01
-6.62
-10.73
-14.44
-18.08
-22.21
-27.31
-33.52
-40.36
-46.76
-51.29
-52.59
-49.83
-42.99
-32.81
-20.55
-7.60
4.84
15.86
24.96
31.88
36.62
39.34
40.39
40.19
39.17
37.73
36.19
34.78
33.67
32.97
32.72
32.87
33.27
33.64
33.71
33.21
32.01
30.12
27.66
24.81
21.69
18.41
14.98
11.39
7.61
3.64
-0.47
-4.60
-8.64
-12.48
-16.08
-19.56
-23.16
-27.19
-31.86
-37.16
-42.71
-47.70
-51.09
-51.80
-49.01
-42.43
-32.47
-20.14
-6.93
5.64
16.34
24.51
30.03
33.28
34.75
34.91
34.07
32.45
30.31
28.05
26.12
24.92
24.60
25.04
25.81
26.42
26.46
25.77
24.44
22.73
20.89
19.04
17.13
14.95
12.31
9.13
5.50
1.63
-2.20
-5.84
-9.26
-12.55
-15.84
-19.22
-22.71
-26.30
-30.04
-34.06
-38.45
-43.11
-47.54
-50.81
-51.81
-49.56
-43.66
-34.51
-23.26
-11.45
-0.54
8.47
15.18
19.68
22.31
23.44
23.33
22.20
20.28
17.96
15.67
13.85
12.72
12.26
12.23
12.26
12.12
11.82
11.52
11.45
11.66
11.93
11.78
10.68
8.29
4.64
0.14
-4.63
-9.11
-13.03
-16.45
-19.66
-23.06
-26.98
-31.53
-36.59
-41.77
-46.42
-49.67
-50.69
-48.79
-43.72
-35.75
-25.67
-14.61
-3.87
5.48
12.66
17.39
19.80
20.30
19.42
17.69
15.51
13.20
10.96
8.96
7.33
6.13
5.36
4.89
4.58
4.28
3.89
3.34
2.57
1.50
-0.03
-2.14
-4.90
-8.19
-11.79
-15.38
-18.75
-21.87
-24.98
-28.52
-32.91
-38.30
-44.40
-50.37
-55.02
-57.12
-55.80
-50.83
-42.68
-32.42
-21.31
-10.54
-0.99
6.80
12.62
16.41
18.28
18.46
17.35
15.50
13.49
11.82
10.79
10.45
10.63
11.07
11.51
11.80
11.92
11.82
11.45
10.65
9.22
6.98
3.95
0.26
-3.80
-7.91
-11.84
-15.50
-19.00
-22.60
-26.64
-31.42
-37.09
-43.45
-49.85
-55.25
-58.36
-58.04
-53.68
-45.49
-34.46
-22.10
-9.98
0.72
9.40
15.98
20.61
23.51
24.82
24.72
23.52
21.72
19.92
18.58
17.88
17.64
17.56
17.35
16.92
16.41
15.99
15.68
15.29
14.47
12.91
10.42
7.10
3.19
-1.01
-5.31
-9.59
-13.80
-18.01
-22.38
-27.25
-33.02
-39.88
-47.55
-55.09
-60.96
-63.51
-61.50
-54.59
-43.49
-29.74
-15.20
-1.48
10.31
19.74
26.85
31.89
35.18
36.98
37.55
37.24
36.47
35.75
35.45
35.70
36.33
36.97
37.25
36.96
36.15
35.08
33.96
32.86
31.58
29.76
27.03
23.20
18.39
12.96
7.42
2.23
-2.39
-6.50
-10.48
-14.90
-20.32
-27.02
-34.83
-42.90
-49.83
-54.00
-53.98
-49.06
-39.51
-26.54
-11.94
2.47
15.29
25.82
33.97
40.01
44.27
46.93
48.07
47.84
46.55
44.79
43.20
42.30
42.21
42.65
43.12
43.05
42.18
40.56
38.52
36.44
34.52
32.66
30.54
27.76
24.11
19.66
14.77
9.90
5.39
1.31
-2.53
-6.49
-10.86
-15.79
-21.29
-27.25
-33.53
-39.82
-45.55
-49.82
-51.46
-49.43
-43.18
-32.98
-19.98
-5.87
7.59
19.08
27.93
34.15
38.09
40.22
40.90
40.34
38.78
36.56
34.18
32.13
30.75
30.07
29.78
29.40
28.54
27.11
25.32
23.57
22.19
21.17
20.13
18.52
15.88
12.13
7.60
2.93
-1.28
-4.77
-7.68
-10.52
-13.89
-18.34
-24.10
-31.03
-38.59
-45.84
-51.58
-54.62
-54.00
-49.35
-40.94
-29.67
-16.86
-3.93
7.82
17.38
24.11
27.77
28.55
27.05
24.11
20.64
17.46
15.07
13.65
13.09
13.14
13.48
13.83
14.03
13.92
13.43
12.49
11.06
9.12
6.70
3.90
0.83
-2.34
-5.53
-8.68
-11.78
-14.94
-18.34
-22.29
-27.07
-32.78
-39.15
-45.43
-50.38
-52.65
-51.17
-45.52
-36.15
-24.30
-11.52
0.65
11.12
19.33
25.21
28.94
30.80
31.07
30.12
28.37
26.29
24.36
22.89
21.94
21.35
20.86
20.22
19.33
18.27
17.23
16.34
15.58
14.71
13.37
11.23
8.11
4.12
-0.43
-5.07
-9.40
-13.19
-16.51
-19.73
-23.37
-27.94
-33.67
-40.28
-46.93
-52.36
-55.19
-54.35
-49.43
-40.83
-29.62
-17.21
-4.99
5.97
15.01
21.86
26.49
29.08
29.94
29.53
28.36
26.98
25.80
25.05
24.75
24.73
24.75
24.62
24.23
23.62
22.90
22.19
21.51
20.73
19.59
17.80
15.09
11.43
6.97
2.08
-2.79
-7.27
-11.21
-14.80
-18.51
-22.89
-28.39
-35.00
-42.18
-48.89
-53.85
-55.90
-54.31
-48.93
-40.21
-29.06
-16.60
-4.04
7.51
17.15
24.30
28.75
30.70
30.67
29.31
27.27
25.06
22.98
21.20
19.82
18.87
18.32
18.06
17.92
17.73
17.37
16.82
16.11
15.25
14.20
12.82
11.01
8.73
5.99
2.90
-0.39
-3.76
-7.11
-10.42
-13.75
-17.26
-21.23
-25.89
-31.28
-36.99
-42.21
-45.80
-46.65
-44.01
-37.80
-28.59
-17.50
-5.85
5.21
14.82
22.54
28.22
31.86
33.55
33.45
31.88
29.34
26.46
23.85
21.94
20.83
20.32
20.07
19.79
19.38
18.87
18.35
17.80
17.09
16.03
14.45
12.30
9.69
6.74
3.68
0.74
-1.90
-4.17
-6.20
-8.32
-11.03
-14.79
-19.83
-25.93
-32.45
-38.35
-42.47
-43.79
-41.69
-36.15
-27.72
-17.47
-6.69
3.38
11.80
18.07
22.04
23.83
23.76
22.19
19.60
16.54
13.56
11.07
9.32
8.27
7.71
7.42
7.28
7.31
7.56
7.97
8.30
8.18
7.32
5.65
3.39
0.89
-1.53
-3.78
-6.04
-8.64
-11.91
-16.00
-20.81
-25.99
-30.94
-34.96
-37.28
-37.26
-34.53
-29.11
-21.46
-12.47
-3.21
5.24
12.04
16.74
19.31
20.07
19.52
18.14
16.36
14.42
12.48
10.67
9.10
7.94
7.27
7.13
7.41
7.90
8.32
8.37
7.82
6.55
4.63
2.23
-0.44
-3.20
-5.98
-8.81
-11.75
-14.88
-18.24
-21.96
-26.11
-30.63
-35.15
-38.93
-40.97
-40.32
-36.47
-29.58
-20.49
-10.44
-0.72
7.68
14.22
18.76
21.41
22.38
21.93
20.32
17.84
14.80
11.57
8.50
5.92
4.04
2.91
2.40
2.20
1.98
1.47
0.57
-0.70
-2.24
-3.99
-5.99
-8.28
-10.85
-13.64
-16.53
-19.52
-22.75
-26.51
-31.06
-36.36
-41.93
-46.80
-49.79
-49.89
-46.60
-40.11
-31.24
-21.14
-11.01
-1.83
5.78
11.45
15.05
16.65
16.53
15.13
13.04
10.84
8.97
7.62
6.75
6.21
5.80
5.41
5.00
4.59
4.18
3.70
3.01
1.89
0.16
-2.26
-5.28
-8.67
-12.08
-15.24
-18.07
-20.72
-23.55
-26.96
-31.16
-36.04
-41.11
-45.51
-48.24
-48.41
-45.51
-39.53
-31.00
-20.87
-10.26
-0.24
8.31
14.88
19.26
21.57
22.13
21.44
20.07
18.53
17.20
16.28
15.80
15.64
15.62
15.62
15.56
15.42
15.22
14.93
14.40
13.39
11.71
9.18
5.86
1.93
-2.34
-6.63
-10.74
-14.55
-18.07
-21.40
-24.82
-28.68
-33.34
-38.98
-45.30
-51.41
-56.00
-57.61
-55.15
-48.31
-37.70
-24.68
-10.94
1.99
13.05
21.82
28.27
32.58
34.96
35.56
34.64
32.64
30.17
27.85
26.18
25.30
25.03
24.97
24.75
24.22
23.47
22.77
22.28
21.94
21.40
20.16
17.83
14.30
9.87
5.07
0.48
-3.52
-6.89
-9.87
-12.82
-16.12
-20.10
-24.99
-30.88
-37.55
-44.37
-50.20
-53.65
-53.36
-48.61
-39.52
-27.13
-13.06
0.96
13.55
23.83
31.45
36.39
38.83
39.06
37.54
34.92
31.95
29.29
27.40
26.34
25.87
25.61
25.23
24.55
23.60
22.48
21.25
19.90
18.30
16.31
13.79
10.71
7.15
3.27
-0.71
-4.59
-8.32
-11.99
-15.86
-20.30
-25.63
-31.91
-38.79
-45.42
-50.48
-52.54
-50.38
-43.47
-32.27
-18.04
-2.61
12.16
24.86
34.75
41.64
45.73
47.38
47.00
45.10
42.29
39.29
36.75
35.05
34.21
33.92
33.71
33.17
32.14
30.68
29.01
27.32
25.65
23.84
21.58
18.56
14.63
9.87
4.62
-0.63
-5.44
-9.66
-13.47
-17.37
-22.01
-27.86
-35.00
-42.96
-50.71
-56.82
-59.78
-58.40
-52.16
-41.41
-27.37
-11.81
3.41
16.81
27.53
35.35
40.45
43.19
43.93
43.09
41.18
38.79
36.49
34.65
33.37
32.49
31.79
31.10
30.41
29.79
29.32
28.96
28.56
27.80
26.33
23.81
20.09
15.30
9.87
4.38
-0.60
-4.82
-8.39
-11.78
-15.65
-20.61
-27.02
-34.83
-43.43
-51.66
-57.98
-60.78
-58.87
-51.88
-40.45
-26.02
-10.40
4.66
17.90
28.61
36.55
41.78
44.55
45.23
44.34
42.51
40.38
38.53
37.27
36.63
36.34
36.05
35.40
34.29
32.78
31.11
29.51
28.08
26.74
25.20
23.08
20.04
15.93
10.86
5.26
-0.30
-5.28
-9.42
-12.84
-16.07
-19.81
-24.68
-30.84
-37.88
-44.78
-50.18
-52.72
-51.44
-46.02
-36.92
-25.20
-12.23
0.56
12.02
21.38
28.29
32.72
34.85
34.98
33.53
31.01
27.96
24.92
22.34
20.46
19.28
18.59
18.10
17.54
16.78
15.81
14.65
13.31
11.73
9.78
7.35
4.42
1.08
-2.46
-5.99
-9.33
-12.47
-15.61
-19.11
-23.32
-28.47
-34.38
-40.39
-45.38
-48.03
-47.23
-42.46
-34.00
-22.89
-10.58
1.48
12.18
20.84
27.14
31.03
32.57
32.04
29.89
26.76
23.42
20.49
18.36
17.09
16.49
16.27
16.18
16.09
15.95
15.75
15.38
14.66
13.29
11.05
7.87
3.94
-0.34
-4.52
-8.27
-11.54
-14.57
-17.78
-21.58
-26.21
-31.65
-37.51
-43.10
-47.48
-49.65
-48.77
-44.40
-36.70
-26.46
-14.95
-3.59
6.39
14.21
19.58
22.69
23.93
23.82
22.81
21.31
19.66
18.15
16.98
16.19
15.71
15.32
14.77
13.96
12.88
11.70
10.54
9.44
8.28
6.80
4.79
2.12
-1.12
-4.69
-8.27
-11.58
-14.52
-17.17
-19.85
-22.97
-26.90
-31.68
-37.00
-42.05
-45.78
-47.11
-45.29
-40.16
-32.23
-22.56
-12.44
-3.07
4.75
10.66
14.72
17.23
18.49
18.76
18.27
17.30
16.19
15.33
14.97
15.14
15.62
15.99
15.90
15.23
14.12
12.90
11.91
11.26
10.80
10.18
9.05
7.18
4.64
1.59
-1.68
-4.96
-8.16
-11.25
-14.25
-17.22
-20.28
-23.62
-27.43
-31.76
-36.34
-40.45
-43.07
-43.14
-39.98
-33.64
-24.88
-14.98
-5.35
2.96
9.44
14.07
17.11
18.84
19.43
18.97
17.56
15.53
13.40
11.72
10.91
11.01
11.72
12.53
12.96
12.84
12.26
11.55
10.99
10.63
10.24
9.42
7.81
5.32
2.14
-1.26
-4.43
-7.09
-9.24
-11.15
-13.21
-15.74
-18.86
-22.53
-26.54
-30.65
-34.51
-37.69
-39.62
-39.64
-37.21
-32.15
-24.80
-16.00
-6.88
1.41
8.07
12.70
15.34
16.28
15.90
14.56
12.59
10.31
8.03
6.05
4.59
3.75
3.50
3.65
3.98
4.21
4.17
3.74
2.90
1.69
0.15
-1.69
-3.82
-6.21
-8.77
-11.40
-13.94
-16.31
-18.50
-20.65
-23.00
-25.84
-29.29
-33.19
-36.99
-39.77
-40.52
-38.46
-33.35
-25.62
-16.27
-6.60
2.24
9.39
14.50
17.58
18.92
18.88
17.88
16.30
14.47
12.66
11.02
9.60
8.40
7.41
6.64
6.09
5.76
5.60
5.45
5.09
4.26
2.78
0.57
-2.28
-5.55
-8.97
-12.30
-15.45
-18.49
-21.63
-25.18
-29.40
-34.40
-40.02
-45.66
-50.36
-52.96
-52.41
-48.16
-40.41
-30.19
-18.98
-8.35
0.58
7.22
11.60
14.05
15.04
14.94
14.12
12.91
11.66
10.68
10.14
10.06
10.24
10.44
10.44
10.15
9.55
8.67
7.45
5.74
3.38
0.24
-3.61
-7.86
-12.14
-16.05
-19.41
-22.33
-25.19
-28.50
-32.71
-38.02
-44.15
-50.42
-55.69
-58.70
-58.32
-53.93
-45.63
-34.30
-21.33
-8.34
3.28
12.63
19.41
23.74
26.05
26.81
26.41
25.22
23.55
21.76
20.17
19.07
18.59
18.71
19.23
19.89
20.46
20.70
20.44
19.58
18.02
15.75
12.83
9.46
5.82
2.09
-1.67
-5.58
-9.87
-14.84
-20.66
-27.22
-34.04
-40.18
-44.42
-45.53
-42.63
-35.50
-24.75
-11.67
2.07
14.86
25.49
33.34
38.34
40.80
41.17
40.00
37.81
35.12
32.44
30.16
28.56
27.69
27.47
27.67
28.05
28.31
28.20
27.52
26.16
24.18
21.73
19.01
16.18
13.27
10.21
6.82
2.90
-1.76
-7.33
-13.81
-20.92
-27.97
-33.85
-37.24
-36.97
-32.46
-24.00
-12.75
-0.35
11.51
21.53
29.04
33.95
36.53
37.16
36.18
33.94
30.80
27.29
23.98
21.43
19.99
19.70
20.28
21.26
22.08
22.31
21.71
20.24
17.98
15.12
11.83
8.27
4.57
0.83
-2.96
-6.96
-11.43
-16.60
-22.52
-28.77
-34.46
-38.31
-39.06
-35.83
-28.55
-18.03
-5.73
6.58
17.42
25.85
31.57
34.82
36.02
35.63
34.04
31.58
28.65
25.73
23.29
21.70
21.06
21.19
21.70
22.12
22.05
21.28
19.75
17.63
15.09
12.32
9.42
6.40
3.20
-0.26
-4.08
-8.35
-13.16
-18.53
-24.27
-29.88
-34.49
-37.01
-36.43
-32.13
-24.25
-13.67
-1.89
9.49
19.12
26.26
30.75
32.94
33.33
32.39
30.50
27.94
25.07
22.25
19.85
18.13
17.08
16.51
16.07
15.45
14.46
13.08
11.32
9.24
6.90
4.31
1.50
-1.44
-4.47
-7.52
-10.60
-13.81
-17.30
-21.32
-26.02
-31.31
-36.68
-41.22
-43.72
-43.10
-38.76
-30.86
-20.36
-8.76
2.35
11.76
18.81
23.47
26.05
27.02
26.78
25.67
24.00
22.10
20.36
19.06
18.33
18.02
17.83
17.42
16.60
15.41
14.07
12.81
11.76
10.81
9.68
8.06
5.74
2.74
-0.71
-4.27
-7.60
-10.59
-13.29
-15.99
-19.03
-22.68
-26.99
-31.66
-36.09
-39.46
-40.93
-39.89
-36.12
-29.90
-21.91
-13.03
-4.22
3.76
10.37
15.32
18.52
20.08
20.27
19.51
18.24
16.89
15.70
14.78
14.14
13.79
13.78
14.11
14.72
15.36
15.74
15.64
14.98
13.89
12.54
11.06
9.41
7.44
5.02
2.15
-0.97
-4.02
-6.72
-8.99
-10.98
-13.05
-15.61
-18.93
-23.10
-27.84
-32.60
-36.61
-39.07
-39.28
-36.82
-31.71
-24.38
-15.68
-6.68
1.58
8.32
13.16
16.09
17.37
17.39
16.53
15.17
13.64
12.24
11.19
10.60
10.45
10.63
10.94
11.24
11.37
11.26
10.80
9.99
8.92
7.78
6.80
6.06
5.44
4.57
3.07
0.72
-2.33
-5.63
-8.69
-11.15
-13.05
-14.73
-16.63
-19.10
-22.24
-25.92
-29.80
-33.44
-36.27
-37.63
-36.90
-33.65
-27.89
-20.15
-11.40
-2.76
4.81
10.68
14.63
16.71
17.14
16.22
14.33
11.95
9.63
7.89
7.09
7.29
8.26
9.59
10.81
11.61
11.87
11.68
11.20
10.56
9.81
8.83
7.54
5.82
3.70
1.28
-1.26
-3.72
-5.97
-7.96
-9.71
-11.34
-12.98
-14.80
-16.96
-19.62
-22.80
-26.38
-29.89
-32.63
-33.71
-32.39
-28.33
-21.80
-13.66
-5.08
2.77
9.08
13.43
15.85
16.56
15.89
14.16
11.72
9.00
6.43
4.48
3.40
3.25
3.77
4.58
5.26
5.56
5.48
5.22
4.99
4.82
4.58
3.90
2.47
0.14
-2.94
-6.32
-9.51
-12.10
-13.99
-15.36
-16.63
-18.26
-20.61
-23.83
-27.77
-31.95
-35.66
-38.05
-38.30
-35.93
-30.86
-23.54
-14.85
-5.83
2.49
9.32
14.20
16.98
17.77
16.89
14.82
12.13
9.35
6.92
5.08
3.89
3.25
3.02
3.06
3.30
3.70
4.22
4.76
5.15
5.17
4.61
3.37
1.44
-1.06
-3.92
-6.96
-9.98
-12.88
-15.59
-18.15
-20.72
-23.59
-27.15
-31.64
-36.94
-42.40
-46.89
-49.12
-48.02
-43.20
-35.15
-25.08
-14.47
-4.69
3.38
9.40
13.41
15.61
16.21
15.38
13.35
10.55
7.58
5.09
3.57
3.18
3.71
4.67
5.61
6.25
6.60
6.82
7.00
7.03
6.56
5.24
2.86
-0.46
-4.30
-8.11
-11.46
-14.22
-16.60
-19.05
-22.13
-26.25
-31.47
-37.44
-43.35
-48.10
-50.54
-49.77
-45.42
-37.69
-27.36
-15.66
-3.94
6.53
14.85
20.57
23.73
24.71
24.10
22.50
20.40
18.21
16.18
14.54
13.41
12.83
12.73
12.98
13.45
14.01
14.56
14.97
15.07
14.62
13.47
11.56
8.98
5.99
2.85
-0.25
-3.25
-6.27
-9.57
-13.47
-18.23
-23.91
-30.24
-36.46
-41.42
-43.79
-42.46
-36.97
-27.73
-15.98
-3.42
8.26
17.84
24.78
29.14
31.31
31.74
30.81
28.81
26.14
23.23
20.62
18.68
17.58
17.19
17.19
17.26
17.16
16.81
16.19
15.30
14.08
12.44
10.26
7.48
4.18
0.46
-3.50
-7.60
-11.90
-16.63
-21.99
-27.94
-33.92
-38.82
-41.21
-39.89
-34.35
-25.06
-13.38
-1.03
10.43
19.94
27.09
31.82
34.28
34.58
32.85
29.40
24.83
19.99
15.79
12.93
11.63
11.71
12.62
13.77
14.72
15.19
15.07
14.26
12.69
10.31
7.20
3.59
-0.25
-4.13
-8.11
-12.48
-17.61
-23.67
-30.32
-36.67
-41.43
-43.22
-41.04
-34.61
-24.49
-12.00
1.18
13.39
23.43
30.75
35.36
37.67
38.22
37.49
35.88
33.78
31.57
29.69
28.48
28.07
28.34
28.92
29.37
29.29
28.45
26.81
24.43
21.47
18.09
14.45
10.64
6.73
2.64
-1.77
-6.72
-12.40
-18.81
-25.64
-32.14
-37.26
-39.78
-38.71
-33.62
-24.82
-13.35
-0.73
11.48
21.97
29.93
35.13
37.78
38.38
37.54
35.83
33.72
31.59
29.65
28.06
26.90
26.17
25.78
25.58
25.34
24.84
23.87
22.30
20.05
17.16
13.75
10.01
6.15
2.29
-1.56
-5.49
-9.70
-14.41
-19.73
-25.63
-31.71
-37.20
-41.00
-41.97
-39.26
-32.65
-22.80
-11.03
1.02
11.84
20.43
26.40
29.85
31.18
30.91
29.55
27.60
25.52
23.69
22.34
21.52
21.10
20.86
20.55
19.97
19.03
17.75
16.19
14.42
12.45
10.22
7.63
4.61
1.15
-2.62
-6.49
-10.28
-13.92
-17.58
-21.54
-26.14
-31.49
-37.35
-42.96
-47.21
-48.93
-47.19
-41.69
-32.91
-21.96
-10.30
0.66
9.93
17.02
21.91
24.84
26.10
25.96
24.73
22.82
20.73
18.97
17.88
17.56
17.82
18.33
18.73
18.82
18.62
18.24
17.79
17.25
16.46
15.20
13.27
10.66
7.52
4.08
0.62
-2.70
-5.82
-8.83
-11.92
-15.35
-19.35
-24.08
-29.39
-34.78
-39.36
-42.03
-41.84
-38.30
-31.57
-22.52
-12.35
-2.37
6.42
13.42
18.46
21.65
23.27
23.60
22.91
21.53
19.79
18.10
16.78
16.06
15.94
16.19
16.47
16.48
16.07
15.28
14.33
13.39
12.52
11.56
10.19
8.14
5.26
1.68
-2.26
-6.08
-9.37
-11.96
-13.98
-15.86
-18.13
-21.26
-25.45
-30.56
-36.03
-41.04
-44.56
-45.62
-43.54
-38.16
-29.93
-19.82
-9.13
0.86
9.16
15.19
18.77
20.10
19.58
17.74
15.19
12.54
10.29
8.79
8.15
8.28
8.91
9.73
10.48
11.02
11.30
11.35
11.24
10.91
10.24
9.03
7.12
4.49
1.30
-2.13
-5.43
-8.37
-10.91
-13.26
-15.76
-18.85
-22.85
-27.85
-33.59
-39.40
-44.26
-47.02
-46.72
-42.90
-35.75
-26.11
-15.15
-4.10
6.05
14.59
21.15
25.50
27.60
27.57
25.82
23.00
19.90
17.28
15.63
15.04
15.26
15.81
16.25
16.32
15.96
15.27
14.39
13.39
12.22
10.79
8.94
6.61
3.80
0.64
-2.63
-5.78
-8.63
-11.16
-13.55
-16.14
-19.39
-23.67
-29.06
-35.21
-41.24
-45.92
-47.97
-46.48
-41.26
-32.91
-22.66
-11.95
-2.03
6.31
12.77
17.34
20.17
21.38
21.17
19.87
17.99
16.16
14.90
14.48
14.74
15.34
15.82
15.90
15.60
15.13
14.71
14.40
14.01
13.17
11.60
9.18
6.06
2.57
-1.00
-4.50
-7.92
-11.43
-15.18
-19.37
-24.16
-29.66
-35.77
-42.07
-47.72
-51.53
-52.27
-49.08
-41.82
-31.24
-18.70
-5.84
5.93
15.65
22.93
27.77
30.40
31.09
30.13
27.88
24.86
21.65
18.86
16.98
16.21
16.42
17.28
18.38
19.40
20.14
20.60
20.78
20.64
20.03
18.81
16.86
14.24
11.14
7.85
4.62
1.50
-1.70
-5.35
-9.88
-15.48
-21.88
-28.28
-33.45
-36.07
-35.18
-30.50
-22.53
-12.44
-1.65
8.55
17.24
23.96
28.56
31.07
31.61
30.37
27.73
24.19
20.38
16.87
14.07
12.15
11.04
10.49
10.21
9.96
9.54
8.85
7.83
6.41
4.56
2.29
-0.31
-3.13
-6.04
-8.93
-11.81
-14.81
-18.11
-21.94
-26.43
-31.50
-36.76
-41.46
-44.58
-45.10
-42.31
-36.18
-27.39
-17.25
-7.21
1.51
8.28
12.98
15.85
17.23
17.39
16.52
14.82
12.63
10.36
8.41
7.11
6.56
6.71
7.33
8.08
8.59
8.53
7.67
6.02
3.74
1.14
-1.53
-4.16
-6.78
-9.47
-12.36
-15.44
-18.74
-22.24
-25.92
-29.59
-32.77
-34.62
-34.16
-30.65
-23.94
-14.65
-4.07
6.28
15.05
21.48
25.40
27.08
26.98
25.57
23.25
20.37
17.36
14.63
12.58
11.44
11.19
11.62
12.33
12.90
12.90
12.09
10.41
7.99
5.10
2.04
-0.99
-3.95
-6.98
-10.26
-14.00
-18.35
-23.40
-29.04
-34.89
-40.22
-43.95
-45.00
-42.53
-36.39
-27.21
-16.21
-4.89
5.41
13.85
20.08
24.18
26.46
27.26
26.86
25.53
23.51
21.10
18.73
16.82
15.72
15.54
16.03
16.68
16.90
16.26
14.66
12.35
9.75
7.23
4.97
2.89
0.74
-1.74
-4.80
-8.58
-13.17
-18.53
-24.40
-30.19
-34.94
-37.52
-36.93
-32.69
-25.06
-15.05
-4.16
6.06
14.44
20.37
23.84
25.24
25.10
23.96
22.23
20.28
18.42
16.96
16.15
16.02
16.45
17.12
17.69
17.88
17.56
16.71
15.35
13.48
11.04
8.03
4.57
0.87
-2.78
-6.17
-9.22
-12.09
-15.10
-18.66
-23.09
-28.36
-34.07
-39.31
-42.92
-43.78
-41.16
-35.06
-26.15
-15.63
-4.88
4.93
13.01
18.98
22.78
24.60
24.75
23.68
21.92
20.06
18.55
17.67
17.43
17.64
18.04
18.40
18.61
18.65
18.55
18.27
17.67
16.55
14.74
12.18
9.00
5.52
2.12
-0.92
-3.51
-5.86
-8.34
-11.40
-15.30
-20.06
-25.32
-30.43
-34.52
-36.61
-35.91
-31.99
-25.00
-15.71
-5.36
4.70
13.27
19.68
23.76
25.73
26.03
25.12
23.44
21.41
19.41
17.78
16.75
16.31
16.29
16.44
16.55
16.52
16.37
16.12
15.75
15.10
13.97
12.20
9.77
6.81
3.62
0.49
-2.31
-4.78
-7.17
-9.90
-13.43
-17.99
-23.34
-28.75
-33.05
-35.05
-33.87
-29.29
-21.83
-12.62
-3.04
5.65
12.65
17.63
20.65
21.95
21.78
20.31
17.76
14.41
10.75
7.32
4.64
3.03
2.52
2.86
3.67
4.49
5.01
5.06
4.58
3.61
2.20
0.41
-1.69
-3.99
-6.37
-8.70
-10.96
-13.27
-15.89
-19.06
-22.74
-26.51
-29.51
-30.73
-29.36
-25.12
-18.41
-10.24
-1.85
5.65
11.55
15.59
17.91
18.75
18.38
17.02
14.94
12.51
10.19
8.37
7.28
6.88
6.89
6.93
6.70
6.10
5.19
4.14
3.05
1.95
0.76
-0.63
-2.28
-4.16
-6.19
-8.35
-10.71
-13.47
-16.85
-20.95
-25.54
-30.00
-33.37
-34.67
-33.17
-28.71
-21.81
-13.47
-4.88
2.91
9.20
13.73
16.53
17.82
17.84
16.90
15.35
13.56
11.87
10.57
9.77
9.46
9.52
9.81
10.15
10.40
10.39
10.00
9.12
7.77
6.03
4.01
1.89
-0.25
-2.42
-4.67
-7.15
-10.01
-13.42
-17.45
-22.02
-26.71
-30.85
-33.56
-33.99
-31.63
-26.53
-19.34
-11.12
-3.09
3.77
8.92
12.23
13.89
14.22
13.52
12.07
10.12
7.99
6.01
4.49
3.63
3.41
3.65
4.11
4.58
4.93
5.10
5.01
4.54
3.54
1.92
-0.24
-2.71
-5.18
-7.41
-9.33
-11.06
-12.90
-15.21
-18.29
-22.19
-26.65
-31.02
-34.35
-35.62
-34.16
-29.83
-23.16
-15.14
-6.92
0.58
6.78
11.41
14.44
15.95
16.13
15.29
13.88
12.40
11.30
10.79
10.82
11.21
11.68
12.04
12.22
12.23
12.12
11.94
11.63
11.09
10.19
8.81
6.91
4.54
1.85
-0.99
-3.79
-6.47
-9.06
-11.77
-14.94
-18.91
-23.82
-29.43
-35.00
-39.49
-41.76
-41.01
-36.99
-30.10
-21.25
-11.63
-2.44
5.36
11.08
14.48
15.64
14.98
13.11
10.69
8.28
6.32
5.05
4.56
4.75
5.41
6.24
6.99
7.52
7.86
8.13
8.41
8.63
8.54
7.77
6.03
3.21
-0.47
-4.60
-8.57
-11.94
-14.49
-16.42
-18.19
-20.44
-23.59
-27.73
-32.39
-36.75
-39.79
-40.62
-38.69
-33.92
-26.72
-17.87
-8.39
0.62
8.26
13.92
17.39
18.80
18.56
17.14
15.03
12.70
10.51
8.76
7.61
7.10
7.09
7.38
7.75
7.97
7.86
7.27
6.14
4.48
2.41
0.10
-2.31
-4.80
-7.40
-10.17
-13.08
-15.97
-18.73
-21.39
-24.25
-27.78
-32.23
-37.43
-42.50
-46.15
-47.00
-44.20
-37.70
-28.33
-17.50
-6.73
2.77
10.28
15.58
18.76
20.06
19.72
18.08
15.59
12.79
10.26
8.46
7.66
7.84
8.74
9.96
11.08
11.76
11.85
11.33
10.25
8.64
6.46
3.68
0.36
-3.35
-7.15
-10.84
-14.43
-18.21
-22.66
-28.13
-34.54
-41.15
-46.75
-49.92
-49.50
-44.97
-36.59
-25.34
-12.63
0.03
11.33
20.37
26.70
30.26
31.27
30.13
27.41
23.79
20.04
16.83
14.60
13.52
13.43
13.96
14.69
15.29
15.49
15.10
14.04
12.22
9.64
6.37
2.61
-1.41
-5.47
-9.45
-13.41
-17.60
-22.40
-28.12
-34.83
-42.07
-48.81
-53.64
-55.12
-52.28
-44.98
-33.95
-20.63
-6.67
6.39
17.46
25.96
31.74
34.92
35.80
34.85
32.65
29.88
27.22
25.20
24.09
23.90
24.38
25.18
26.01
26.57
26.63
25.98
24.47
22.02
18.75
14.93
10.88
6.85
2.84
-1.30
-5.87
-11.13
-17.22
-24.00
-31.04
-37.51
-42.26
-44.03
-41.78
-35.08
-24.35
-10.82
3.75
17.60
29.38
38.34
44.37
47.72
48.88
48.35
46.68
44.38
41.98
39.92
38.52
37.88
37.89
38.27
38.64
38.64
38.04
36.74
34.75
32.08
28.77
24.88
20.56
16.07
11.69
7.65
3.94
0.30
-3.73
-8.58
-14.34
-20.69
-26.77
-31.38
-33.29
-31.61
-26.04
-17.06
-5.76
6.37
17.85
27.48
34.56
38.85
40.46
39.81
37.46
34.11
30.49
27.25
24.84
23.43
22.96
23.13
23.62
24.09
24.29
24.00
23.10
21.54
19.39
16.81
14.00
11.17
8.43
5.78
3.12
0.15
-3.43
-7.88
-13.23
-19.17
-24.92
-29.37
-31.28
-29.67
-24.20
-15.26
-3.98
8.05
19.23
28.33
34.71
38.29
39.46
38.78
36.78
33.87
30.38
26.66
23.08
20.01
17.70
16.17
15.21
14.49
13.67
12.51
10.91
8.87
6.41
3.53
0.25
-3.35
-7.04
-10.57
-13.71
-16.40
-18.86
-21.53
-24.85
-29.04
-33.89
-38.63
-42.13
-43.25
-41.19
-35.84
-27.76
-18.06
-8.01
1.34
9.42
16.01
21.18
24.95
27.23
27.90
26.97
24.77
21.86
18.89
16.35
14.40
12.91
11.63
10.34
8.98
7.57
6.16
4.72
3.14
1.35
-0.72
-3.02
-5.49
-8.02
-10.60
-13.32
-16.36
-19.92
-24.07
-28.54
-32.66
-35.43
-35.79
-33.02
-27.07
-18.61
-8.84
0.84
9.27
15.78
20.19
22.67
23.52
23.08
21.63
19.50
17.08
14.84
13.12
12.11
11.75
11.73
11.69
11.32
10.42
8.98
7.10
4.90
2.47
-0.12
-2.83
-5.64
-8.57
-11.64
-14.92
-18.43
-22.16
-25.86
-29.07
-31.08
-31.14
-28.64
-23.40
-15.78
-6.62
2.94
11.77
18.98
24.09
27.02
27.93
27.12
24.91
21.67
17.80
13.79
10.16
7.38
5.70
5.08
5.18
5.46
5.47
4.93
3.92
2.73
1.71
1.06
0.73
0.43
-0.24
-1.66
-4.08
-7.64
-12.33
-17.94
-24.05
-29.93
-34.58
-36.99
-36.43
-32.74
-26.40
-18.44
-10.12
-2.54
3.54
7.85
10.43
11.59
11.62
10.80
9.34
7.36
5.05
2.59
0.24
-1.76
-3.28
-4.37
-5.25
-6.20
-7.46
-9.09
-10.92
-12.68
-14.11
-15.11
-15.80
-16.49
-17.50
-19.14
-21.51
-24.62
-28.34
-32.35
-36.13
-38.91
-39.83
-38.14
-33.56
-26.36
-17.43
-7.97
0.82
8.10
13.48
17.02
19.05
19.97
20.13
19.74
18.88
17.59
15.96
14.19
12.58
11.38
10.70
10.40
10.16
9.65
8.70
7.40
6.07
4.97
4.20
3.54
2.61
0.98
-1.60
-5.19
-9.60
-14.55
-19.57
-24.09
-27.42
-28.88
-28.01
-24.71
-19.30
-12.50
-5.24
1.55
7.13
11.03
13.09
13.43
12.37
10.36
7.82
5.16
2.69
0.67
-0.70
-1.35
-1.38
-1.13
-1.07
-1.59
-2.86
-4.70
-6.70
-8.45
-9.75
-10.76
-11.90
-13.68
-16.48
-20.39
-25.20
-30.38
-35.23
-38.94
-40.73
-40.05
-36.68
-30.90
-23.37
-15.04
-6.84
0.45
6.33
10.57
13.13
14.09
13.67
12.21
10.19
8.14
6.50
5.57
5.40
5.83
6.54
7.19
7.45
7.11
6.10
4.53
2.63
0.64
-1.28
-3.17
-5.30
-8.10
-11.99
-17.22
-23.59
-30.38
-36.37
-40.18
-40.65
-37.24
-30.27
-20.78
-10.18
0.19
9.36
16.84
22.50
26.37
28.61
29.37
28.94
27.70
26.07
24.43
23.03
21.95
21.11
20.33
19.39
18.12
16.40
14.25
11.78
9.21
6.74
4.47
2.35
0.16
-2.42
-5.69
-9.82
-14.91
-20.81
-27.19
-33.46
-38.76
-42.08
-42.44
-39.25
-32.47
-22.83
-11.55
-0.11
10.24
18.70
25.05
29.47
32.34
34.00
34.74
34.77
34.34
33.73
33.20
32.87
32.72
32.56
32.21
31.59
30.74
29.77
28.70
27.45
25.75
23.33
20.04
15.92
11.24
6.32
1.42
-3.34
-8.00
-12.73
-17.77
-23.34
-29.56
-36.27
-42.92
-48.53
-51.89
-51.85
-47.83
-40.08
-29.64
-18.07
-6.86
2.91
10.87
17.14
22.06
25.87
28.65
30.36
31.06
30.99
30.54
30.14
30.02
30.16
30.30
30.12
29.38
28.10
26.47
24.80
23.35
22.18
21.11
19.87
18.17
15.84
12.89
9.48
5.81
2.04
-1.72
-5.38
-8.89
-12.21
-15.36
-18.51
-21.99
-26.20
-31.42
-37.55
-44.00
-49.72
-53.41
-54.00
-50.91
-44.31
-35.03
-24.25
-13.19
-2.78
6.37
13.98
19.95
24.28
27.09
28.66
29.35
29.57
29.62
29.56
29.32
28.79
27.95
26.96
26.09
25.58
25.46
25.52
25.43
24.89
23.80
22.29
20.61
18.94
17.27
15.42
13.12
10.24
6.83
3.15
-0.49
-3.85
-6.92
-9.86
-12.88
-16.18
-19.86
-23.96
-28.52
-33.43
-38.41
-42.85
-45.89
-46.62
-44.35
-38.95
-30.88
-21.12
-10.87
-1.25
6.92
13.19
17.49
20.02
21.13
21.18
20.47
19.26
17.73
16.15
14.77
13.85
13.52
13.70
14.09
14.36
14.24
13.67
12.79
11.80
10.86
9.92
8.82
7.28
5.15
2.44
-0.63
-3.73
-6.60
-9.14
-11.47
-13.89
-16.74
-20.29
-24.60
-29.52
-34.61
-39.19
-42.47
-43.70
-42.41
-38.53
-32.44
-24.85
-16.65
-8.62
-1.37
4.67
9.26
12.32
13.91
14.26
13.70
12.62
11.36
10.15
9.12
8.29
7.65
7.10
6.48
5.64
4.50
3.13
1.73
0.56
-0.22
-0.68
-1.08
-1.80
-3.14
-5.17
-7.66
-10.27
-12.62
-14.57
-16.24
-17.95
-20.14
-23.15
-27.08
-31.65
-36.25
-39.96
-41.89
-41.37
-38.16
-32.56
-25.32
-17.39
-9.70
-2.91
2.67
7.01
10.31
12.80
14.72
16.18
17.28
18.07
18.55
18.78
18.75
18.45
17.89
17.08
16.05
14.87
13.68
12.62
11.84
11.39
11.17
10.94
10.33
9.01
6.84
3.92
0.56
-2.84
-6.01
-8.96
-11.93
-15.28
-19.32
-24.18
-29.79
-35.89
-42.07
-47.76
-52.25
-54.77
-54.67
-51.62
-45.73
-37.55
-28.04
-18.24
-9.13
-1.42
4.57
8.89
11.88
13.95
15.49
16.72
17.69
18.37
18.82
19.25
19.90
20.95
22.34
23.85
25.08
25.74
25.73
25.19
24.41
23.63
22.96
22.31
21.40
19.94
17.76
14.81
11.20
7.15
2.82
-1.63
-6.14
-10.66
-15.20
-19.84
-24.72
-30.03
-35.82
-41.94
-47.85
-52.66
-55.35
-55.07
-51.41
-44.57
-35.35
-24.84
-14.21
-4.34
4.25
11.40
17.16
21.62
24.83
26.81
27.62
27.47
26.74
25.91
25.35
25.27
25.60
26.09
26.47
26.54
26.28
25.75
25.05
24.19
23.09
21.62
19.72
17.43
14.89
12.28
9.69
7.11
4.34
1.20
-2.44
-6.59
-11.10
-15.78
-20.54
-25.46
-30.74
-36.52
-42.65
-48.55
-53.24
-55.58
-54.71
-50.27
-42.66
-32.79
-21.81
-10.82
-0.62
8.27
15.56
21.07
24.76
26.69
27.15
26.59
25.51
24.33
23.28
22.47
21.85
21.40
21.11
20.96
20.93
20.85
20.58
20.00
19.07
17.81
16.29
14.52
12.50
10.16
7.47
4.52
1.51
-1.37
-3.97
-6.35
-8.75
-11.59
-15.28
-20.10
-25.94
-32.28
-38.16
-42.39
-43.84
-41.75
-35.99
-27.10
-16.12
-4.34
7.08
17.26
25.77
32.42
37.19
40.09
41.20
40.74
39.09
36.82
34.50
32.55
31.06
29.92
28.88
27.79
26.67
25.64
24.83
24.20
23.56
22.67
21.30
19.35
16.81
13.71
10.09
6.05
1.77
-2.46
-6.34
-9.73
-12.74
-15.79
-19.43
-24.12
-29.95
-36.50
-42.86
-47.81
-50.25
-49.37
-45.02
-37.61
-28.05
-17.47
-6.97
2.56
10.51
16.58
20.76
23.21
24.25
24.22
23.45
22.26
20.91
19.67
18.75
18.27
18.18
18.25
18.20
17.81
17.07
16.13
15.23
14.48
13.82
12.97
11.57
9.37
6.23
2.24
-2.35
-7.18
-11.91
-16.27
-20.13
-23.68
-27.24
-31.27
-35.97
-41.16
-46.12
-49.79
-51.05
-49.13
-43.86
-35.67
-25.44
-14.30
-3.30
6.69
15.03
21.33
25.39
27.27
27.28
25.89
23.68
21.25
19.05
17.39
16.38
15.96
15.93
16.09
16.25
16.36
16.45
16.64
16.96
17.27
17.27
16.62
15.10
12.73
9.81
6.77
3.95
1.51
-0.64
-2.81
-5.33
-8.55
-12.66
-17.67
-23.28
-28.77
-33.10
-35.17
-34.05
-29.42
-21.67
-11.81
-1.18
8.95
17.64
24.36
28.99
31.65
32.59
32.14
30.70
28.72
26.62
24.74
23.23
22.07
21.14
20.32
19.56
18.89
18.35
17.89
17.33
16.40
14.84
12.53
9.53
6.06
2.39
-1.28
-4.85
-8.33
-11.79
-15.31
-19.02
-23.07
-27.59
-32.57
-37.70
-42.33
-45.55
-46.37
-44.10
-38.62
-30.53
-20.97
-11.34
-2.85
3.74
8.19
10.69
11.60
11.28
9.99
7.93
5.34
2.54
-0.07
-2.13
-3.43
-3.91
-3.72
-3.15
-2.50
-2.08
-2.09
-2.64
-3.71
-5.17
-6.88
-8.71
-10.63
-12.64
-14.80
-17.18
-19.93
-23.19
-27.05
-31.40
-35.79
-39.45
-41.39
-40.74
-37.00
-30.28
-21.34
-11.31
-1.44
7.27
14.19
19.13
22.19
23.64
23.80
22.98
21.43
19.37
16.98
14.47
12.03
9.83
7.95
6.33
4.82
3.15
1.10
-1.45
-4.43
-7.65
-10.83
-13.80
-16.58
-19.32
-22.26
-25.61
-29.51
-34.03
-39.18
-44.88
-50.83
-56.35
-60.43
-61.94
-59.93
-54.04
-44.74
-33.13
-20.71
-8.89
1.34
9.51
15.62
19.92
22.73
24.30
24.79
24.38
23.24
21.64
19.90
18.35
17.22
16.60
16.42
16.52
16.64
16.55
16.03
14.96
13.30
11.10
8.46
5.46
2.14
-1.53
-5.68
-10.42
-15.90
-22.22
-29.31
-36.83
-44.08
-49.99
-53.34
-53.14
-48.93
-41.01
-30.38
-18.47
-6.65
3.93
12.60
19.07
23.37
25.69
26.42
26.00
24.90
23.58
22.34
21.40
20.87
20.78
21.10
21.65
22.20
22.47
22.20
21.22
19.49
17.04
13.99
10.51
6.79
3.03
-0.58
-3.93
-7.12
-10.44
-14.35
-19.30
-25.46
-32.49
-39.42
-44.78
-47.05
-45.10
-38.66
-28.43
-15.80
-2.43
10.20
21.12
29.85
36.21
40.28
42.21
42.36
41.20
39.33
37.33
35.58
34.27
33.34
32.67
32.12
31.62
31.17
30.77
30.36
29.75
28.68
26.87
24.15
20.48
16.10
11.40
6.82
2.65
-1.04
-4.47
-8.10
-12.43
-17.76
-24.01
-30.55
-36.31
-39.95
-40.30
-36.65
-29.01
-18.15
-5.35
7.87
20.13
30.34
37.86
42.47
44.37
44.07
42.32
39.95
37.65
35.90
34.80
34.25
33.97
33.71
33.34
32.82
32.18
31.41
30.40
29.01
27.08
24.54
21.44
17.93
14.20
10.36
6.43
2.35
-1.93
-6.43
-11.19
-16.25
-21.65
-27.34
-32.92
-37.57
-40.14
-39.52
-35.07
-27.00
-16.36
-4.74
6.23
15.40
22.27
26.86
29.52
30.58
30.27
28.77
26.33
23.38
20.43
17.96
16.26
15.36
15.04
15.00
14.91
14.57
13.86
12.78
11.33
9.48
7.23
4.52
1.38
-2.06
-5.62
-9.12
-12.58
-16.22
-20.41
-25.34
-30.76
-35.79
-39.12
-39.46
-36.09
-29.23
-19.89
-9.52
0.57
9.52
16.97
22.87
27.16
29.75
30.50
29.50
27.14
24.07
21.08
18.77
17.49
17.19
17.55
18.08
18.31
17.94
16.87
15.16
12.93
10.30
7.36
4.19
0.88
-2.46
-5.78
-9.15
-12.81
-17.16
-22.45
-28.64
-35.21
-41.11
-45.07
-45.99
-43.35
-37.34
-28.93
-19.43
-10.13
-1.97
4.62
9.61
13.14
15.43
16.65
16.94
16.57
15.80
14.95
14.25
13.77
13.48
13.27
13.01
12.62
12.05
11.23
10.12
8.68
6.91
4.90
2.72
0.47
-1.87
-4.36
-7.15
-10.46
-14.47
-19.29
-24.84
-30.72
-36.16
-40.15
-41.67
-40.02
-35.10
-27.50
-18.32
-8.89
-0.39
6.42
11.26
14.32
15.98
16.68
16.71
16.23
15.30
13.99
12.43
10.84
9.46
8.43
7.78
7.35
6.97
6.42
5.58
4.42
2.95
1.18
-0.84
-3.10
-5.55
-8.18
-10.99
-14.09
-17.59
-21.69
-26.45
-31.70
-36.93
-41.24
-43.62
-43.18
-39.52
-32.89
-24.22
-14.75
-5.73
1.95
7.86
12.03
14.73
16.26
16.87
16.71
15.91
14.65
13.18
11.85
10.96
10.68
10.92
11.38
11.60
11.18
9.93
7.93
5.48
2.88
0.33
-2.17
-4.75
-7.56
-10.72
-14.26
-18.21
-22.58
-27.28
-32.02
-36.14
-38.68
-38.65
-35.39
-28.96
-20.16
-10.38
-1.09
6.59
12.15
15.69
17.62
18.42
18.42
17.76
16.58
15.02
13.41
12.06
11.21
10.93
11.03
11.23
11.21
10.78
9.85
8.51
6.86
5.01
3.01
0.84
-1.58
-4.37
-7.58
-11.27
-15.51
-20.35
-25.80
-31.67
-37.47
-42.36
-45.31
-45.36
-42.01
-35.42
-26.41
-16.24
-6.23
2.56
9.57
14.72
18.24
20.43
21.55
21.74
21.13
19.89
18.34
16.90
15.93
15.59
15.79
16.24
16.66
16.86
16.81
16.54
16.00
14.99
13.26
10.64
7.21
3.29
-0.70
-4.36
-7.55
-10.40
-13.33
-16.84
-21.35
-26.89
-32.99
-38.67
-42.63
-43.72
-41.26
-35.34
-26.69
-16.47
-5.90
3.98
12.45
19.02
23.42
25.59
25.72
24.26
21.89
19.38
17.35
16.15
15.76
15.92
16.29
16.62
16.85
17.04
17.28
17.48
17.35
16.47
14.55
11.58
7.83
3.78
-0.17
-3.85
-7.35
-10.94
-14.93
-19.53
-24.80
-30.67
-36.78
-42.52
-46.97
-49.09
-47.93
-43.00
-34.47
-23.24
-10.70
1.61
12.34
20.64
26.17
29.08
29.81
28.97
27.13
24.83
22.54
20.58
19.26
18.72
18.94
19.73
20.74
21.59
21.95
21.63
20.63
19.03
16.96
14.50
11.67
8.48
4.96
1.19
-2.73
-6.81
-11.21
-16.19
-22.01
-28.58
-35.38
-41.33
-45.07
-45.44
-41.80
-34.32
-23.92
-11.98
0.08
11.05
20.13
26.91
31.32
33.51
33.80
32.64
30.55
28.02
25.47
23.24
21.52
20.41
19.87
19.77
19.95
20.17
20.18
19.74
18.63
16.74
14.09
10.81
7.11
3.21
-0.75
-4.71
-8.72
-12.93
-17.55
-22.83
-28.91
-35.58
-42.16
-47.52
-50.29
-49.39
-44.36
-35.63
-24.35
-12.03
-0.12
10.28
18.56
24.49
28.14
29.77
29.78
28.65
26.83
24.76
22.79
21.12
19.87
19.03
18.54
18.24
17.99
17.64
17.12
16.39
15.41
14.09
12.26
9.78
6.58
2.78
-1.39
-5.60
-9.64
-13.44
-17.20
-21.27
-26.02
-31.60
-37.72
-43.55
-47.86
-49.32
-46.98
-40.58
-30.76
-18.82
-6.33
5.33
15.17
22.77
28.08
31.27
32.61
32.43
31.19
29.42
27.76
26.70
26.46
26.89
27.47
27.50
26.45
24.17
20.95
17.40
14.13
11.43
9.20
7.01
4.42
1.26
-2.33
-5.92
-9.10
-11.71
-13.91
-16.08
-18.71
-22.15
-26.56
-31.95
-38.05
-44.34
-49.98
-53.85
-54.83
-52.14
-45.62
-35.86
-24.08
-11.75
-0.25
9.44
16.82
21.84
24.72
25.83
25.62
24.54
23.03
21.51
20.35
19.74
19.71
20.05
20.41
20.42
19.86
18.77
17.41
16.09
15.01
14.14
13.17
11.72
9.46
6.31
2.50
-1.51
-5.25
-8.31
-10.62
-12.35
-13.91
-15.82
-18.52
-22.32
-27.20
-32.77
-38.19
-42.32
-43.93
-42.13
-36.62
-27.87
-17.03
-5.57
5.13
14.09
20.77
25.09
27.25
27.61
26.65
24.85
22.77
20.89
19.64
19.21
19.60
20.61
21.84
22.86
23.33
23.17
22.51
21.67
20.90
20.26
19.53
18.33
16.35
13.47
9.86
5.93
2.09
-1.38
-4.40
-7.11
-9.84
-12.96
-16.74
-21.29
-26.37
-31.40
-35.55
-37.88
-37.60
-34.24
-27.85
-18.97
-8.61
2.03
11.68
19.39
24.59
27.20
27.51
26.05
23.47
20.37
17.31
14.73
12.86
11.73
11.18
10.93
10.74
10.44
9.93
9.18
8.11
6.67
4.83
2.59
0.04
-2.74
-5.66
-8.67
-11.74
-14.83
-17.94
-21.15
-24.65
-28.66
-33.25
-38.16
-42.71
-45.89
-46.68
-44.38
-38.86
-30.66
-20.87
-10.74
-1.41
6.35
12.21
16.18
18.44
19.25
18.86
17.57
15.73
13.75
12.00
10.74
10.04
9.81
9.90
10.15
10.46
10.76
10.95
10.91
10.46
9.48
7.90
5.74
3.09
0.03
-3.34
-6.91
-10.59
-14.38
-18.35
-22.70
-27.63
-33.11
-38.72
-43.52
-46.32
-46.06
-42.21
-35.05
-25.64
-15.38
-5.60
2.76
9.31
14.04
17.07
18.58
18.72
17.80
16.24
14.59
13.33
12.74
12.80
13.22
13.67
13.84
13.59
12.94
12.01
10.91
9.70
8.33
6.67
4.61
2.12
-0.74
-3.80
-6.93
-10.05
-13.21
-16.63
-20.53
-25.09
-30.28
-35.72
-40.68
-44.16
-45.14
-42.88
-37.23
-28.75
-18.59
-8.13
1.40
9.26
15.24
19.49
22.30
23.89
24.43
24.11
23.23
22.17
21.32
20.90
20.93
21.25
21.63
21.92
22.05
22.06
22.00
21.84
21.51
20.88
19.76
18.02
15.62
12.59
9.15
5.56
2.11
-1.06
-3.98
-6.89
-10.16
-14.21
-19.26
-25.24
-31.64
-37.56
-41.86
-43.46
-41.65
-36.36
-28.25
-18.53
-8.62
0.22
7.22
12.17
15.28
16.92
17.47
17.18
16.26
14.94
13.56
12.50
12.04
12.19
12.70
13.16
13.22
12.78
12.02
11.29
10.83
10.65
10.40
9.51
7.50
4.17
-0.18
-4.84
-8.89
-11.64
-12.89
-13.03
-12.92
-13.57
-15.74
-19.69
-25.08
-31.19
-37.07
-41.71
-44.23
-43.91
-40.40
-33.83
-24.89
-14.72
-4.70
3.97
10.45
14.46
16.13
15.93
14.44
12.29
10.07
8.26
7.18
6.93
7.43
8.42
9.67
10.95
12.10
12.93
13.29
12.97
11.82
9.76
6.85
3.22
-0.93
-5.40
-10.04
-14.76
-19.55
-24.45
-29.56
-35.05
-41.07
-47.70
-54.85
-62.09
-68.65
-73.47
-75.57
-74.37
-69.98
-63.15
-55.09
-46.98
-39.64
-33.36
-28.01
-23.23
-18.67
-14.09
-9.30
-4.12
1.68
8.28
15.77
23.98
32.55
40.88
48.34
54.39
58.71
61.20
61.99
61.22
59.07
55.68
51.17
45.76
39.70
33.33
26.92
20.63
14.45
8.20
1.64
-5.46
-13.03
-20.65
-27.46
-32.31
-34.06
-31.99
-26.04
-16.92
-5.90
5.60
16.33
25.44
32.46
37.28
39.99
40.81
40.13
38.45
36.30
34.17
32.42
31.16
30.36
29.80
29.21
28.38
27.20
25.71
24.05
22.34
20.62
18.78
16.61
13.85
10.39
6.22
1.56
-3.27
-7.95
-12.21
-15.99
-19.40
-22.79
-26.65
-31.45
-37.49
-44.63
-52.18
-58.91
-63.35
-64.10
-60.40
-52.32
-40.83
-27.47
-13.91
-1.50
9.01
17.44
23.98
28.94
32.62
35.25
37.01
38.12
38.80
39.24
39.55
39.78
39.90
39.85
39.60
39.12
38.42
37.49
36.34
34.96
33.33
31.42
29.18
26.60
23.66
20.33
16.57
12.37
7.77
2.92
-1.90
-6.44
-10.50
-14.08
-17.40
-20.85
-24.88
-29.84
-35.90
-42.80
-49.85
-55.90
-59.60
-59.72
-55.56
-47.25
-35.69
-22.32
-8.70
3.86
14.53
22.91
29.00
33.01
35.26
36.17
36.20
35.79
35.31
35.00
34.96
35.14
35.38
35.49
35.35
34.93
34.33
33.70
33.13
32.60
31.91
30.84
29.20
26.90
24.04
20.77
17.28
13.71
10.08
6.43
2.72
-1.08
-4.98
-8.99
-13.09
-17.26
-21.53
-26.05
-31.03
-36.65
-42.77
-48.84
-53.86
-56.61
-56.04
-51.65
-43.73
-33.20
-21.40
-9.68
0.93
9.83
16.80
21.89
25.21
26.95
27.31
26.64
25.36
23.98
22.93
22.49
22.72
23.41
24.24
24.85
24.99
24.60
23.75
22.65
21.50
20.42
19.35
18.07
16.23
13.59
10.09
5.97
1.64
-2.49
-6.15
-9.36
-12.36
-15.52
-19.17
-23.51
-28.58
-34.24
-40.14
-45.65
-49.92
-51.94
-50.86
-46.24
-38.31
-27.96
-16.52
-5.40
4.27
11.89
17.35
20.88
22.86
23.60
23.30
22.18
20.52
18.72
17.20
16.30
16.11
16.49
17.09
17.54
17.61
17.27
16.69
16.07
15.49
14.86
13.89
12.22
9.58
5.98
1.66
-2.92
-7.31
-11.20
-14.59
-17.71
-20.97
-24.79
-29.46
-35.06
-41.32
-47.66
-53.15
-56.72
-57.39
-54.58
-48.26
-39.08
-28.15
-16.78
-6.15
2.92
10.01
15.09
18.36
20.16
20.80
20.57
19.75
18.57
17.32
16.25
15.58
15.36
15.48
15.71
15.73
15.40
14.70
13.83
12.99
12.29
11.60
10.59
8.94
6.43
3.12
-0.65
-4.46
-7.96
-11.07
-13.94
-16.91
-20.34
-24.51
-29.55
-35.37
-41.61
-47.61
-52.45
-55.06
-54.54
-50.43
-42.88
-32.68
-21.11
-9.56
0.73
8.96
14.83
18.53
20.52
21.34
21.45
21.10
20.46
19.63
18.81
18.26
18.21
18.71
19.57
20.38
20.75
20.45
19.54
18.32
17.11
16.07
15.07
13.73
11.61
8.46
4.37
-0.26
-4.86
-9.00
-12.51
-15.62
-18.75
-22.35
-26.76
-32.05
-38.14
-44.72
-51.31
-57.21
-61.50
-63.17
-61.36
-55.67
-46.43
-34.67
-21.91
-9.71
0.75
8.89
14.76
18.76
21.37
22.97
23.75
23.84
23.43
22.82
22.40
22.42
22.93
23.77
24.65
25.28
25.52
25.36
24.87
24.14
23.14
21.78
19.93
17.52
14.56
11.14
7.33
3.22
-1.18
-5.79
-10.50
-15.09
-19.37
-23.25
-26.87
-30.56
-34.80
-39.95
-46.10
-52.90
-59.43
-64.46
-66.62
-64.84
-58.67
-48.48
-35.40
-20.98
-6.83
5.80
16.15
24.01
29.48
32.87
34.54
34.94
34.55
33.85
33.27
33.03
33.19
33.61
34.12
34.58
34.91
35.08
35.02
34.65
33.83
32.51
30.72
28.67
26.55
24.43
22.19
19.48
15.98
11.54
6.36
0.88
-4.39
-9.09
-13.19
-16.87
-20.41
-24.05
-27.94
-32.22
-37.03
-42.39
-47.94
-52.79
-55.62
-55.08
-50.30
-41.34
-29.18
-15.41
-1.74
10.53
20.72
28.71
34.75
39.16
42.22
44.08
44.86
44.73
43.94
42.81
41.64
40.59
39.62
38.59
37.33
35.79
34.09
32.39
30.81
29.29
27.64
25.65
23.20
20.32
17.13
13.74
10.15
6.31
2.14
-2.31
-6.89
-11.31
-15.36
-18.96
-22.27
-25.68
-29.67
-34.68
-40.81
-47.65
-54.23
-59.16
-61.06
-58.96
-52.61
-42.66
-30.38
-17.39
-5.14
5.31
13.43
19.13
22.67
24.44
24.89
24.43
23.40
22.11
20.80
19.76
19.18
19.18
19.66
20.40
21.11
21.57
21.72
21.69
21.61
21.51
21.23
20.45
18.88
16.44
13.27
9.70
6.06
2.53
-0.91
-4.49
-8.47
-13.18
-18.77
-25.20
-32.18
-38.99
-44.64
-47.95
-47.94
-44.09
-36.60
-26.27
-14.38
-2.28
8.86
18.22
25.32
29.99
32.23
32.24
30.40
27.22
23.31
19.26
15.51
12.38
9.94
8.19
7.08
6.53
6.51
6.89
7.52
8.09
8.29
7.80
6.43
4.18
1.20
-2.20
-5.74
-9.19
-12.45
-15.58
-18.79
-22.36
-26.58
-31.65
-37.41
-43.31
-48.36
-51.34
-51.16
-47.25
-39.81
-29.75
-18.45
-7.28
2.73
11.05
17.57
22.35
25.48
27.03
27.08
25.91
23.95
21.76
19.80
18.33
17.30
16.52
15.77
15.00
14.30
13.78
13.48
13.24
12.79
11.77
10.02
7.54
4.53
1.31
-1.84
-4.75
-7.41
-9.98
-12.73
-16.00
-20.12
-25.26
-31.21
-37.41
-42.82
-46.26
-46.67
-43.44
-36.68
-27.13
-16.00
-4.63
5.84
14.67
21.50
26.27
29.09
30.18
29.83
28.37
26.21
23.78
21.42
19.38
17.70
16.30
15.02
13.70
12.27
10.74
9.18
7.69
6.24
4.70
2.86
0.45
-2.63
-6.31
-10.33
-14.32
-17.94
-21.01
-23.58
-25.93
-28.54
-31.88
-36.27
-41.59
-47.21
-52.06
-54.83
-54.44
-50.33
-42.71
-32.42
-20.74
-8.99
1.75
10.72
17.53
22.09
24.55
25.21
24.52
23.04
21.30
19.75
18.65
18.05
17.77
17.55
17.14
16.42
15.49
14.51
13.62
12.80
11.88
10.58
8.70
6.16
3.04
-0.46
-4.14
-7.86
-11.53
-15.12
-18.65
-22.31
-26.36
-31.13
-36.80
-43.16
-49.51
-54.65
-57.24
-56.17
-51.06
-42.31
-31.06
-18.79
-6.88
3.63
12.20
18.62
22.89
25.14
25.57
24.54
22.54
20.18
18.00
16.39
15.45
15.05
14.90
14.69
14.26
13.63
12.94
12.31
11.75
11.05
9.90
7.99
5.18
1.58
-2.51
-6.69
-10.60
-14.10
-17.26
-20.33
-23.71
-27.81
-32.91
-38.95
-45.42
-51.31
-55.30
-56.05
-52.66
-44.96
-33.64
-20.07
-5.88
7.44
18.85
27.86
34.41
38.66
40.85
41.29
40.38
38.70
36.89
35.48
34.75
34.60
34.68
34.58
34.00
32.92
31.51
30.03
28.67
27.44
26.20
24.66
22.55
19.65
15.93
11.56
6.87
2.25
-2.00
-5.78
-9.22
-12.68
-16.60
-21.38
-27.23
-34.07
-41.35
-48.12
-53.04
-54.75
-52.17
-44.94
-33.59
-19.44
-4.28
10.17
22.59
32.33
39.29
43.72
45.98
46.46
45.54
43.63
41.23
38.83
36.84
35.46
34.68
34.31
34.06
33.65
32.94
31.88
30.54
29.08
27.57
25.98
24.16
21.83
18.73
14.75
9.98
4.76
-0.46
-5.32
-9.60
-13.41
-17.02
-20.85
-25.30
-30.61
-36.79
-43.49
-49.96
-55.05
-57.44
-55.96
-50.03
-39.91
-26.70
-12.06
2.27
14.92
25.10
32.58
37.49
40.11
40.78
39.86
37.81
35.19
32.53
30.29
28.69
27.71
27.18
26.85
26.54
26.17
25.77
25.38
24.98
24.53
23.89
22.90
21.43
19.35
16.61
13.27
9.43
5.33
1.21
-2.68
-6.18
-9.24
-11.99
-14.71
-17.79
-21.64
-26.51
-32.28
-38.37
-43.73
-47.06
-47.18
-43.35
-35.56
-24.55
-11.61
1.70
13.95
24.09
31.58
36.33
38.55
38.63
37.01
34.20
30.75
27.30
24.45
22.67
22.13
22.66
23.76
24.83
25.38
25.15
24.20
22.75
21.10
19.41
17.70
15.87
13.72
11.09
7.97
4.45
0.74
-2.97
-6.55
-9.99
-13.42
-16.98
-20.79
-24.94
-29.48
-34.39
-39.56
-44.63
-48.94
-51.56
-51.55
-48.24
-41.58
-32.17
-21.16
-9.85
0.58
9.34
16.03
20.51
22.82
23.11
21.61
18.69
14.87
10.77
6.99
4.05
2.20
1.47
1.64
2.31
3.11
3.75
4.11
4.21
4.15
3.92
3.43
2.49
0.95
-1.19
-3.76
-6.47
-9.03
-11.25
-13.13
-14.78
-16.38
-18.10
-20.09
-22.49
-25.40
-28.87
-32.68
-36.29
-38.83
-39.29
-36.88
-31.33
-23.06
-13.09
-2.71
6.87
14.83
20.82
24.82
26.97
27.45
26.39
24.03
20.74
17.05
13.57
10.85
9.20
8.63
8.89
9.51
10.11
10.42
10.39
10.07
9.55
8.86
7.88
6.50
4.61
2.26
-0.34
-2.95
-5.33
-7.39
-9.22
-11.03
-13.12
-15.75
-19.10
-23.23
-27.99
-32.99
-37.58
-40.92
-42.11
-40.47
-35.78
-28.41
-19.24
-9.51
-0.37
7.26
12.96
16.64
18.50
18.79
17.76
15.70
12.97
9.98
7.18
4.88
3.22
2.11
1.39
0.87
0.47
0.18
-0.02
-0.24
-0.74
-1.79
-3.61
-6.21
-9.36
-12.68
-15.71
-18.17
-19.99
-21.33
-22.56
-24.11
-26.34
-29.34
-32.86
-36.20
-38.43
-38.54
-35.85
-30.16
-21.92
-12.04
-1.62
8.25
16.75
23.34
27.77
30.00
30.26
28.91
26.41
23.24
19.78
16.30
12.97
10.00
7.54
5.74
4.62
3.99
3.49
2.69
1.29
-0.79
-3.39
-6.21
-9.00
-11.66
-14.20
-16.71
-19.24
-21.76
-24.28
-26.93
-29.92
-33.44
-37.34
-41.06
-43.59
-43.89
-41.23
-35.55
-27.49
-18.16
-8.73
-0.16
6.96
12.38
16.01
17.89
18.17
17.07
14.98
12.37
9.76
7.62
6.28
5.82
6.12
6.83
7.51
7.76
7.38
6.39
4.96
3.30
1.55
-0.30
-2.31
-4.52
-6.90
-9.35
-11.80
-14.28
-16.78
-19.21
-21.19
-22.09
-21.20
-18.00
-12.40
-4.91
3.59
12.07
19.63
25.66
29.79
31.82
31.68
29.45
25.43
20.21
14.63
9.60
5.85
3.77
3.32
4.05
5.31
6.45
6.98
6.66
5.49
3.63
1.27
-1.42
-4.29
-7.31
-10.48
-13.93
-17.86
-22.50
-27.83
-33.40
-38.30
-41.27
-41.10
-37.06
-29.20
-18.42
-6.14
6.05
16.89
25.58
31.78
35.45
36.68
35.58
32.42
27.67
22.07
16.52
11.91
8.80
7.33
7.15
7.61
8.03
7.89
7.04
5.61
3.84
1.91
-0.21
-2.64
-5.55
-8.97
-12.92
-17.45
-22.68
-28.73
-35.43
-42.05
-47.29
-49.58
-47.62
-40.93
-30.08
-16.56
-2.23
11.23
22.64
31.49
37.66
41.28
42.48
41.49
38.66
34.56
29.94
25.60
22.17
19.98
18.96
18.75
18.83
18.73
18.15
17.00
15.37
13.43
11.24
8.86
6.22
3.27
-0.04
-3.75
-7.97
-12.90
-18.65
-25.13
-31.69
-37.20
-40.16
-39.25
-33.76
-23.94
-11.00
3.27
17.07
29.00
38.29
44.72
48.35
49.42
48.26
45.31
41.20
36.68
32.48
29.12
26.79
25.36
24.53
23.91
23.21
22.24
20.90
19.12
16.84
14.05
10.81
7.31
3.75
0.33
-2.89
-6.06
-9.51
-13.63
-18.69
-24.60
-30.78
-36.14
-39.38
-39.30
-35.23
-27.20
-16.06
-3.16
9.92
21.78
31.44
38.39
42.56
44.20
43.68
41.54
38.31
34.56
30.76
27.33
24.49
22.33
20.77
19.65
18.74
17.79
16.61
15.04
13.06
10.72
8.19
5.60
3.09
0.66
-1.74
-4.22
-6.88
-9.85
-13.26
-17.24
-21.77
-26.55
-30.83
-33.53
-33.52
-30.02
-22.98
-13.21
-2.14
8.62
17.76
24.54
28.79
30.80
31.01
29.85
27.73
25.06
22.25
19.72
17.76
16.48
15.79
15.44
15.11
14.58
13.74
12.56
11.12
9.47
7.60
5.49
3.10
0.44
-2.41
-5.30
-8.11
-10.79
-13.43
-16.24
-19.45
-23.08
-26.81
-29.96
-31.57
-30.79
-27.13
-20.73
-12.35
-3.15
5.61
12.90
18.10
21.04
21.83
20.82
18.39
15.04
11.30
7.71
4.72
2.63
1.53
1.27
1.64
2.32
3.03
3.55
3.68
3.31
2.38
0.92
-0.98
-3.22
-5.66
-8.21
-10.69
-13.01
-15.10
-17.07
-19.22
-21.87
-25.16
-28.77
-31.93
-33.57
-32.76
-29.09
-22.89
-15.08
-6.89
0.56
6.54
10.66
12.91
13.47
12.64
10.83
8.48
6.06
3.93
2.31
1.24
0.67
0.50
0.63
1.05
1.68
2.42
3.06
3.30
2.86
1.53
-0.70
-3.61
-6.83
-9.97
-12.77
-15.14
-17.17
-19.03
-20.94
-23.05
-25.41
-27.83
-29.92
-31.08
-30.71
-28.34
-23.91
-17.77
-10.60
-3.31
3.28
8.53
12.07
13.88
14.19
13.44
12.16
10.83
9.79
9.20
9.07
9.36
10.00
10.85
11.78
12.56
12.99
12.93
12.34
11.26
9.77
7.91
5.75
3.34
0.83
-1.61
-3.80
-5.67
-7.36
-9.21
-11.68
-15.13
-19.55
-24.43
-28.84
-31.61
-31.79
-28.99
-23.53
-16.39
-8.84
-2.09
3.06
6.25
7.55
7.20
5.51
2.83
-0.44
-3.81
-6.79
-8.94
-10.07
-10.22
-9.71
-8.96
-8.35
-8.15
-8.45
-9.21
-10.31
-11.60
-12.96
-14.28
-15.52
-16.69
-17.87
-19.26
-21.07
-23.55
-26.77
-30.50
-34.12
-36.74
-37.37
-35.33
-30.43
-23.17
-14.52
-5.69
2.29
8.76
13.44
16.38
17.70
17.58
16.16
13.70
10.62
7.47
4.81
3.00
2.09
1.81
1.69
1.31
0.43
-0.92
-2.51
-4.09
-5.51
-6.83
-8.31
-10.26
-12.92
-16.47
-20.86
-26.01
-31.71
-37.71
-43.55
-48.58
-52.00
-53.03
-51.21
-46.55
-39.65
-31.53
-23.37
-16.18
-10.60
-6.89
-5.03
-4.93
-6.45
-9.42
-13.49
-18.11
-22.57
-26.21
-28.65
-29.91
-30.41
-30.81
-31.67
-33.37
-35.96
-39.31
-43.22
-47.49
-52.01
-56.77
-61.83
-67.37
-73.57
-80.50
-87.89
-95.02
-100.72
-103.57
-102.28
-96.04
-84.81
-69.34
-50.92
-31.07
-11.21
7.49
24.20
38.32
49.45
57.33
61.95
63.63
62.97
60.77
57.85
54.83
52.06
49.61
47.29
44.87
42.06
38.69
34.68
30.12
25.12
19.86
14.44
8.87
3.04
-3.26
-10.29
-18.26
-27.15
-36.54
-45.52
-52.75
-56.73
-56.22
-50.66
-40.43
-26.75
-11.34
3.98
17.77
29.15
37.84
44.00
48.00
50.28
51.18
51.03
50.09
48.63
46.91
45.14
43.44
41.86
40.41
39.05
37.70
36.23
34.39
31.91
28.60
24.40
19.52
14.28
9.04
3.98
-0.94
-6.04
-11.78
-18.64
-26.88
-36.30
-46.08
-54.79
-60.57
-61.66
-56.87
-46.07
-30.32
-11.60
7.70
25.47
40.38
52.01
60.74
67.29
72.33
76.22
79.00
80.56
80.92
80.30
79.17
77.99
77.03
76.23
75.36
74.07
72.21
69.81
67.12
64.37
61.68
58.99
56.16
53.05
49.60
45.90
42.11
38.39
34.87
31.61
28.58
25.73
22.86
19.76
16.14
11.83
6.76
1.08
-4.94
-11.00
-16.93
-22.72
-28.58
-34.88
-42.10
-50.62
-60.62
-71.73
-82.92
-92.47
-98.28
-98.40
-91.74
-78.45
-60.06
-39.00
-17.95
0.91
16.32
27.96
36.22
41.80
45.37
47.51
48.65
49.21
49.58
50.09
50.93
52.08
53.38
54.61
55.62
56.37
57.01
57.69
58.52
59.41
60.12
60.26
59.49
57.59
54.61
50.84
46.72
42.70
39.00
35.56
32.06
28.09
23.35
17.80
11.69
5.46
-0.47
-5.95
-11.16
-16.61
-23.00
-30.85
-40.29
-50.77
-61.03
-69.37
-74.03
-73.75
-68.11
-57.71
-43.92
-28.48
-13.01
1.30
13.76
24.11
32.33
38.55
42.95
45.85
47.64
48.73
49.45
49.97
50.32
50.44
50.25
49.71
48.89
47.93
46.95
46.03
45.11
44.06
42.70
40.86
38.48
35.61
32.37
28.95
25.51
22.13
18.81
15.47
12.05
8.55
5.09
1.89
-0.85
-3.03
-4.73
-6.20
-7.78
-9.76
-12.26
-15.24
-18.50
-21.77
-24.85
-27.63
-30.16
-32.71
-35.67
-39.48
-44.43
-50.42
-56.74
-62.21
-65.35
-64.97
-60.54
-52.45
-41.85
-30.31
-19.29
-9.77
-2.13
3.67
7.92
10.95
13.02
14.40
15.35
16.13
16.91
17.77
18.66
19.46
20.05
20.39
20.51
20.52
20.50
20.47
20.35
20.02
19.37
18.37
17.05
15.49
13.70
11.68
9.41
6.89
4.24
1.64
-0.70
-2.69
-4.45
-6.20
-8.18
-10.56
-13.31
-16.28
-19.26
-22.11
-24.80
-27.37
-29.93
-32.53
-35.27
-38.26
-41.66
-45.51
-49.63
-53.44
-56.04
-56.41
-53.79
-48.06
-39.78
-30.09
-20.27
-11.40
-4.14
1.35
5.24
7.76
9.15
9.62
9.37
8.73
8.08
7.80
8.15
9.16
10.60
12.05
13.09
13.48
13.24
12.63
11.93
11.32
10.72
9.88
8.55
6.63
4.26
1.73
-0.67
-2.81
-4.76
-6.68
-8.74
-11.01
-13.43
-15.90
-18.26
-20.38
-22.21
-23.73
-25.04
-26.31
-27.80
-29.80
-32.49
-35.85
-39.62
-43.23
-45.89
-46.77
-45.24
-41.08
-34.66
-26.79
-18.55
-10.94
-4.60
0.26
3.75
6.09
7.44
7.89
7.49
6.43
5.07
3.81
3.05
2.95
3.37
4.05
4.67
5.03
5.13
5.08
5.01
4.90
4.64
4.01
2.88
1.20
-0.96
-3.45
-6.15
-8.97
-11.84
-14.70
-17.45
-20.02
-22.40
-24.76
-27.32
-30.35
-34.04
-38.35
-42.96
-47.27
-50.53
-51.98
-51.10
-47.71
-42.04
-34.63
-26.24
-17.66
-9.64
-2.80
2.49
6.09
8.13
8.92
8.86
8.33
7.55
6.65
5.71
4.89
4.36
4.26
4.63
5.30
6.05
6.57
6.70
6.40
5.71
4.66
3.25
1.37
-1.05
-4.03
-7.49
-11.21
-14.94
-18.44
-21.56
-24.40
-27.24
-30.57
-34.87
-40.33
-46.66
-53.04
-58.22
-60.95
-60.32
-56.04
-48.50
-38.58
-27.38
-15.97
-5.16
4.47
12.54
18.85
23.32
25.97
27.00
26.76
25.68
24.28
22.97
22.05
