1549583037.00
64.000000
-0.00
-0.00
-0.00
-0.00
-0.00
-0.00
-0.00
-0.00
-0.00
-0.00
0.00
0.01
0.01
-0.00
-0.03
-0.05
-0.05
0.00
0.13
0.36
0.66
1.01
1.37
1.72
2.06
2.40
2.79
3.24
3.80
4.42
5.06
5.66
6.20
6.68
7.15
7.68
8.31
9.14
10.09
11.04
11.88
12.56
13.14
13.76
14.65
15.96
17.91
20.32
22.90
25.38
27.58
29.57
31.68
34.32
37.81
42.54
48.15
54.10
59.83
64.97
69.58
74.14
79.34
85.71
93.76
103.00
112.62
121.73
129.77
136.75
143.30
150.75
157.77
166.64
177.95
191.79
206.97
220.57
228.25
225.36
208.53
176.87
132.76
80.05
23.07
-34.94
-92.44
-149.15
-205.23
-260.37
-313.75
-363.88
-409.84
-450.90
-486.47
-515.69
-537.19
-549.23
-550.06
-538.58
-514.53
-479.09
-434.33
-382.90
-327.44
-270.24
-213.06
-157.16
-103.56
-53.09
-6.70
34.76
70.65
100.63
124.79
143.58
157.69
167.86
174.79
178.98
180.76
180.37
177.95
173.70
167.89
160.87
153.08
144.97
136.92
129.15
121.66
114.28
106.72
98.75
90.32
81.68
73.25
65.51
58.79
53.05
47.90
42.76
37.09
30.71
23.88
17.23
11.45
7.00
3.88
1.67
-0.33
-2.76
-6.14
-10.78
-16.66
-23.18
-28.91
-31.73
-29.47
-20.94
-6.79
10.36
26.80
39.18
45.81
47.13
44.98
41.48
37.99
34.79
31.56
28.10
24.71
21.98
20.38
19.91
20.14
20.53
20.64
20.29
19.44
18.09
16.26
14.04
11.67
9.42
7.41
5.56
3.66
1.56
-0.62
-2.48
-3.57
-3.68
-3.02
-2.15
-1.68
-1.99
-3.07
-4.62
-6.13
-7.04
-6.86
-5.27
-2.29
1.64
5.67
8.84
10.39
10.10
8.33
5.82
3.32
1.27
-0.25
-1.40
-2.33
-2.97
-3.10
-2.49
-1.06
1.02
3.37
5.60
7.39
8.66
9.54
10.26
11.04
11.94
12.86
13.60
13.94
13.80
13.15
12.03
10.46
8.41
5.94
3.04
-0.13
-3.32
-6.26
-8.77
-10.79
-12.35
-13.61
-14.71
-15.82
-17.02
-18.20
-19.06
-19.09
-17.77
-14.86
-10.55
-5.57
-0.92
2.44
3.97
3.71
2.15
0.03
-2.04
-3.74
-5.06
-6.11
-6.97
-7.57
-7.74
-7.34
-6.40
-5.09
-3.70
-2.52
-1.68
-1.14
-0.77
-0.46
-0.17
-0.02
-0.12
-0.52
-1.12
-1.72
-2.15
-2.32
-2.30
-2.29
-2.47
-2.90
-3.51
-4.12
-4.58
-4.82
-4.91
-4.99
-5.27
-5.96
-7.17
-8.91
-10.91
-12.45
-12.67
-10.86
-6.68
-0.40
7.12
14.69
21.20
25.90
28.59
29.49
28.99
27.48
25.22
22.40
19.19
15.86
12.72
10.04
7.98
6.58
5.73
5.28
5.08
5.00
4.97
4.92
4.83
4.63
4.28
3.72
2.85
1.60
-0.09
-2.24
-4.79
-7.55
-10.33
-12.91
-15.15
-16.99
-18.49
-19.80
-21.12
-22.65
-24.56
-26.85
-29.32
-31.45
-32.47
-31.56
-28.11
-22.04
-13.88
-4.70
4.20
11.70
17.25
20.86
23.03
24.33
25.13
25.42
24.95
23.52
21.25
18.67
16.55
15.55
15.91
17.30
19.07
20.48
21.12
21.00
20.47
19.94
19.65
19.54
19.33
18.70
17.42
15.54
13.29
10.98
8.85
6.96
5.21
3.47
1.66
-0.25
-2.31
-4.82
-8.20
-12.84
-18.69
-25.00
-30.34
-33.08
-32.03
-26.98
-18.84
-9.26
-0.02
7.60
13.06
16.42
18.06
18.34
17.47
15.67
13.29
10.82
8.88
7.90
8.02
9.05
10.52
11.92
12.86
13.18
12.90
12.19
11.22
10.12
8.94
7.61
5.97
3.82
1.00
-2.53
-6.60
-10.87
-14.93
-18.44
-21.25
-23.42
-25.14
-26.71
-28.41
-30.52
-33.22
-36.52
-40.10
-43.21
-44.78
-43.72
-39.30
-31.51
-21.18
-9.75
1.16
10.22
16.66
20.38
21.74
21.30
19.66
17.24
14.37
11.32
8.40
6.00
4.51
4.21
5.07
6.75
8.68
10.23
10.99
10.87
10.02
8.71
7.14
5.32
3.17
0.54
-2.56
-6.01
-9.56
-12.97
-16.02
-18.68
-21.02
-23.22
-25.58
-28.42
-32.05
-36.58
-41.74
-46.81
-50.60
-51.83
-49.47
-43.24
-33.74
-22.31
-10.64
-0.19
8.14
14.12
17.95
19.97
20.40
19.33
16.87
13.36
9.44
5.95
3.72
3.16
4.18
6.17
8.37
10.12
11.12
11.46
11.43
11.29
11.03
10.45
9.19
7.04
4.02
0.48
-3.09
-6.18
-8.50
-10.04
-11.14
-12.30
-14.01
-16.60
-20.14
-24.38
-28.80
-32.64
-34.99
-34.94
-31.82
-25.43
-16.24
-5.36
5.72
15.51
23.00
27.82
30.21
30.73
29.94
28.20
25.70
22.62
19.31
16.34
14.25
13.42
13.79
14.92
16.23
17.20
17.62
17.60
17.39
17.22
17.10
16.76
15.83
13.95
10.96
6.98
2.41
-2.25
-6.51
-10.12
-13.08
-15.66
-18.27
-21.32
-25.10
-29.72
-34.96
-40.22
-44.52
-46.64
-45.49
-40.55
-32.12
-21.30
-9.66
1.25
10.36
17.27
21.98
24.69
25.51
24.44
21.60
17.40
12.65
8.33
5.27
3.84
3.89
4.83
5.99
6.87
7.35
7.59
7.84
8.22
8.62
8.63
7.76
5.62
2.13
-2.42
-7.38
-12.02
-15.75
-18.41
-20.22
-21.72
-23.51
-26.06
-29.63
-34.16
-39.28
-44.21
-47.84
-48.90
-46.36
-39.87
-29.96
-18.00
-5.76
5.15
13.72
19.63
23.07
24.43
24.05
22.18
19.13
15.41
11.75
8.92
7.48
7.50
8.59
10.02
11.12
11.57
11.51
11.35
11.46
11.90
12.30
12.05
10.60
7.81
3.97
-0.29
-4.27
-7.48
-9.80
-11.47
-12.96
-14.82
-17.45
-21.11
-25.72
-30.85
-35.64
-38.90
-39.38
-36.19
-29.13
-18.92
-6.95
5.14
15.93
24.56
30.72
34.47
35.99
35.43
33.03
29.24
24.81
20.66
17.59
16.08
16.06
17.09
18.47
19.57
20.03
19.81
19.10
18.22
17.38
16.57
15.56
13.99
11.55
8.17
4.08
-0.27
-4.37
-7.86
-10.70
-13.10
-15.44
-18.12
-21.46
-25.63
-30.61
-35.99
-40.95
-44.29
-44.73
-41.36
-34.04
-23.58
-11.48
0.51
11.00
19.20
24.98
28.64
30.54
30.96
30.07
28.07
25.36
22.48
20.06
18.57
18.22
18.88
20.17
21.62
22.82
23.52
23.61
23.10
22.07
20.63
18.94
17.08
15.03
12.66
9.80
6.36
2.45
-1.66
-5.61
-9.15
-12.17
-14.81
-17.29
-19.90
-22.92
-26.64
-31.17
-36.31
-41.30
-44.85
-45.48
-42.05
-34.33
-23.20
-10.39
2.14
12.86
21.03
26.67
30.21
32.08
32.52
31.59
29.45
26.51
23.41
20.87
19.42
19.20
19.98
21.29
22.63
23.68
24.31
24.54
24.41
23.86
22.76
20.98
18.54
15.64
12.64
9.87
7.47
5.31
3.11
0.56
-2.46
-5.78
-9.08
-12.02
-14.42
-16.39
-18.24
-20.42
-23.36
-27.36
-32.32
-37.69
-42.35
-44.91
-44.05
-39.09
-30.30
-18.85
-6.47
5.17
14.87
22.12
26.96
29.67
30.62
30.11
28.45
26.01
23.26
20.64
18.50
17.09
16.46
16.58
17.29
18.36
19.51
20.52
21.19
21.40
21.08
20.16
18.57
16.34
13.57
10.54
7.55
4.88
2.58
0.47
-1.77
-4.41
-7.52
-10.90
-14.21
-17.13
-19.54
-21.56
-23.49
-25.75
-28.71
-32.60
-37.31
-42.24
-46.30
-48.10
-46.46
-40.88
-31.88
-20.80
-9.39
0.87
9.13
15.27
19.59
22.45
24.02
24.27
23.21
20.99
18.02
14.82
11.89
9.56
7.98
7.16
7.01
7.46
8.41
9.74
11.30
12.81
14.00
14.60
14.45
13.51
11.85
9.59
6.82
3.56
-0.23
-4.54
-9.31
-14.33
-19.31
-23.98
-28.15
-31.80
-35.08
-38.35
-42.01
-46.33
-51.20
-55.98
-59.48
-60.37
-57.61
-50.95
-41.12
-29.59
-18.08
-7.98
-0.02
5.74
9.67
12.27
13.94
14.96
15.59
16.09
16.79
18.03
20.07
23.05
26.88
31.27
35.70
39.58
42.37
43.71
43.59
42.25
40.06
37.38
34.39
31.08
27.36
23.18
18.62
13.89
9.24
4.80
0.61
-3.40
-7.31
-11.14
-14.86
-18.47
-22.11
-26.10
-30.72
-35.95
-41.23
-45.39
-46.98
-44.80
-38.40
-28.40
-16.33
-4.05
6.80
15.33
21.38
25.28
27.37
27.78
26.43
23.29
18.76
13.65
9.07
5.95
4.75
5.23
6.59
7.86
8.25
7.52
5.96
4.27
3.19
3.20
4.29
5.96
7.46
8.05
7.28
5.17
2.14
-1.26
-4.54
-7.51
-10.22
-12.90
-15.71
-18.73
-22.02
-25.69
-29.87
-34.53
-39.22
-42.90
-44.24
-41.98
-35.60
-25.59
-13.37
-0.77
10.53
19.48
25.72
29.36
30.72
30.11
27.83
24.30
20.12
16.03
12.73
10.68
9.98
10.38
11.38
12.46
13.21
13.42
13.11
12.44
11.60
10.68
9.64
8.28
6.31
3.56
0.03
-3.99
-8.03
-11.62
-14.47
-16.63
-18.43
-20.32
-22.74
-26.00
-30.15
-35.01
-40.03
-44.27
-46.56
-45.72
-41.06
-32.68
-21.52
-9.13
2.83
13.09
21.02
26.53
29.82
31.08
30.47
28.12
24.36
19.80
15.26
11.59
9.37
8.74
9.43
10.86
12.43
13.67
14.38
14.61
14.53
14.26
13.79
12.93
11.42
9.07
5.83
1.90
-2.34
-6.45
-10.08
-13.07
-15.48
-17.51
-19.51
-21.87
-24.98
-29.06
-33.96
-39.02
-43.00
-44.48
-42.20
-35.63
-25.22
-12.29
1.38
14.08
24.64
32.52
37.74
40.61
41.52
40.81
38.82
35.94
32.67
29.52
26.94
25.17
24.20
23.82
23.72
23.70
23.71
23.83
24.13
24.56
24.87
24.69
23.64
21.49
18.21
14.02
9.28
4.43
-0.13
-4.13
-7.48
-10.37
-13.19
-16.42
-20.48
-25.47
-30.98
-36.04
-39.34
-39.58
-35.96
-28.53
-18.16
-6.38
5.17
15.15
22.77
27.79
30.31
30.58
28.85
25.44
20.82
15.69
10.89
7.15
4.89
4.09
4.33
4.95
5.42
5.44
5.04
4.36
3.55
2.51
1.02
-1.08
-3.79
-6.81
-9.72
-12.19
-14.16
-15.87
-17.77
-20.28
-23.62
-27.64
-31.83
-35.32
-37.09
-36.22
-32.18
-25.06
-15.68
-5.34
4.49
12.67
18.50
21.85
22.96
22.18
19.92
16.56
12.60
8.57
5.04
2.44
0.97
0.62
1.21
2.48
4.12
5.81
7.19
7.89
7.66
6.44
4.37
1.76
-1.06
-3.85
-6.48
-8.97
-11.43
-14.05
-17.08
-20.72
-24.93
-29.19
-32.48
-33.52
-31.17
-24.94
-15.29
-3.56
8.43
18.95
26.82
31.58
33.41
32.82
30.45
26.88
22.63
18.21
14.15
10.91
8.83
7.98
8.16
9.03
10.12
11.06
11.62
11.70
11.28
10.33
8.83
6.71
3.91
0.49
-3.40
-7.43
-11.23
-14.44
-16.95
-18.91
-20.79
-23.12
-26.18
-29.67
-32.66
-33.84
-32.00
-26.62
-18.06
-7.51
3.43
13.32
21.19
26.69
29.89
31.03
30.38
28.25
24.99
21.15
17.42
14.51
12.90
12.73
13.71
15.23
16.58
17.24
16.99
16.02
14.68
13.33
12.10
10.83
9.21
6.98
4.04
0.60
-2.93
-6.11
-8.63
-10.44
-11.76
-12.92
-14.28
-16.14
-18.66
-21.81
-25.31
-28.54
-30.61
-30.59
-27.77
-22.01
-13.86
-4.46
4.84
12.82
18.75
22.41
23.92
23.61
21.82
18.95
15.43
11.80
8.60
6.30
5.17
5.19
6.12
7.56
9.05
10.21
10.80
10.74
10.15
9.26
8.30
7.44
6.69
5.93
4.93
3.53
1.64
-0.64
-3.09
-5.42
-7.36
-8.81
-9.86
-10.75
-11.81
-13.35
-15.55
-18.39
-21.60
-24.66
-26.80
-27.15
-25.08
-20.34
-13.33
-4.97
3.53
11.09
17.02
21.11
23.48
24.32
23.73
21.73
18.43
14.16
9.57
5.46
2.53
1.17
1.36
2.65
4.46
6.23
7.63
8.54
9.02
9.16
8.94
8.31
7.19
5.54
3.43
1.04
-1.46
-3.90
-6.16
-8.11
-9.70
-10.86
-11.65
-12.21
-12.80
-13.75
-15.32
-17.67
-20.66
-23.84
-26.43
-27.51
-26.25
-22.26
-15.76
-7.56
1.10
9.04
15.38
19.73
22.16
22.96
22.42
20.76
18.14
14.73
10.85
6.98
3.65
1.29
0.09
-0.02
0.60
1.49
2.29
2.77
2.97
3.01
3.05
3.11
3.11
2.83
2.11
0.86
-0.88
-2.98
-5.27
-7.62
-9.96
-12.25
-14.45
-16.52
-18.41
-20.13
-21.76
-23.45
-25.31
-27.24
-28.82
-29.36
-28.15
-24.75
-19.26
-12.26
-4.69
2.55
8.81
13.75
17.24
19.24
19.69
18.60
16.11
12.58
8.53
4.55
1.14
-1.34
-2.67
-2.83
-1.96
-0.35
1.57
3.36
4.65
5.28
5.33
4.99
4.48
3.90
3.15
2.02
0.36
-1.86
-4.42
-6.96
-9.14
-10.80
-11.96
-12.88
-13.89
-15.29
-17.30
-19.95
-23.06
-26.13
-28.42
-29.03
-27.21
-22.62
-15.60
-7.02
1.94
10.18
16.92
21.83
24.83
25.96
25.25
22.78
18.81
13.87
8.67
4.00
0.40
-1.88
-2.95
-3.14
-2.78
-2.15
-1.38
-0.53
0.36
1.21
1.89
2.20
1.96
1.03
-0.60
-2.80
-5.28
-7.74
-9.94
-11.78
-13.31
-14.69
-16.10
-17.73
-19.78
-22.39
-25.52
-28.82
-31.55
-32.74
-31.53
-27.52
-20.98
-12.75
-3.95
4.38
11.56
17.26
21.37
23.78
24.36
23.07
20.03
15.70
10.82
6.20
2.53
0.15
-0.94
-1.05
-0.56
0.25
1.23
2.39
3.73
5.15
6.41
7.18
7.13
6.08
4.08
1.42
-1.48
-4.16
-6.36
-8.07
-9.55
-11.18
-13.35
-16.27
-19.91
-23.96
-27.88
-30.94
-32.28
-31.15
-27.10
-20.22
-11.21
-1.22
8.46
16.81
23.22
27.55
29.91
30.45
29.30
26.59
22.60
17.82
12.94
8.66
5.52
3.72
3.14
3.43
4.20
5.16
6.22
7.43
8.82
10.35
11.73
12.56
12.41
11.10
8.73
5.67
2.41
-0.65
-3.32
-5.65
-7.82
-10.08
-12.62
-15.58
-19.03
-22.86
-26.77
-30.10
-31.99
-31.55
-28.20
-21.94
-13.45
-3.95
5.21
12.90
18.48
21.83
23.18
22.86
21.18
18.41
14.81
10.69
6.43
2.42
-1.03
-3.64
-5.26
-5.79
-5.26
-3.81
-1.79
0.32
1.88
2.32
1.25
-1.32
-4.99
-9.06
-12.82
-15.78
-17.94
-19.79
-22.05
-25.49
-30.53
-37.13
-44.67
-52.08
-58.04
-61.29
-60.91
-56.64
-48.97
-39.00
-28.15
-17.76
-8.80
-1.84
2.87
5.25
5.34
3.31
-0.40
-5.14
-10.09
-14.51
-17.87
-19.92
-20.56
-19.74
-17.43
-13.59
-8.36
-2.16
4.38
10.49
15.48
18.92
20.65
20.83
19.75
17.74
15.06
11.88
8.24
4.08
-0.77
-6.48
-13.06
-20.16
-26.88
-31.86
-33.61
-30.98
-23.71
-12.60
0.65
13.99
25.63
34.47
40.17
42.91
43.08
41.05
37.28
32.32
26.91
21.90
17.92
15.30
13.94
13.48
13.47
13.58
13.69
13.83
14.04
14.22
14.13
13.35
11.50
8.38
4.08
-0.96
-6.16
-10.96
-15.07
-18.53
-21.69
-25.15
-29.48
-35.05
-41.69
-48.58
-54.22
-56.79
-54.73
-47.38
-35.31
-20.24
-4.47
9.85
21.28
29.33
34.27
36.68
37.15
36.11
33.90
30.92
27.69
24.81
22.85
22.10
22.55
23.84
25.42
26.73
27.37
27.25
26.52
25.47
24.38
23.33
22.13
20.46
17.97
14.45
10.03
5.14
0.34
-3.87
-7.24
-9.83
-11.98
-14.13
-16.73
-20.14
-24.53
-29.81
-35.46
-40.48
-43.51
-43.19
-38.62
-29.79
-17.72
-4.18
8.89
19.89
27.98
33.09
35.58
36.03
34.96
32.87
30.26
27.71
25.75
24.76
24.83
25.74
27.09
28.45
29.52
30.21
30.57
30.67
30.51
30.00
28.94
27.22
24.84
22.01
19.06
16.36
14.11
12.26
10.54
8.57
6.10
3.11
-0.17
-3.32
-6.01
-8.10
-9.78
-11.46
-13.65
-16.82
-21.22
-26.71
-32.67
-38.03
-41.40
-41.40
-37.13
-28.52
-16.44
-2.50
11.40
23.60
33.02
39.28
42.54
43.22
41.85
38.99
35.28
31.42
28.11
25.89
24.98
25.20
26.12
27.13
27.78
27.85
27.38
26.60
25.73
24.84
23.83
22.43
20.36
17.48
13.86
9.85
5.99
2.78
0.47
-1.07
-2.33
-3.94
-6.42
-9.85
-13.86
-17.81
-21.06
-23.36
-24.87
-26.20
-28.10
-31.16
-35.61
-41.15
-46.96
-51.79
-54.20
-52.93
-47.29
-37.50
-24.69
-10.60
2.89
14.27
22.74
28.20
30.98
31.60
30.56
28.32
25.40
22.42
20.01
18.68
18.65
19.73
21.43
23.12
24.26
24.55
24.04
23.04
21.92
20.91
19.94
18.73
16.94
14.39
11.27
8.00
5.12
2.97
1.50
0.34
-1.06
-3.10
-5.93
-9.33
-12.87
-16.07
-18.65
-20.52
-21.89
-23.16
-24.81
-27.30
-30.90
-35.53
-40.63
-45.21
-47.94
-47.62
-43.48
-35.56
-24.72
-12.46
-0.43
9.94
17.81
22.97
25.65
26.34
25.55
23.72
21.28
18.70
16.51
15.16
14.94
15.81
17.42
19.25
20.79
21.73
22.04
21.91
21.52
20.96
20.13
18.81
16.82
14.14
11.00
7.78
4.92
2.68
1.06
-0.23
-1.71
-3.85
-6.88
-10.67
-14.77
-18.60
-21.68
-23.83
-25.28
-26.58
-28.41
-31.36
-35.67
-41.02
-46.52
-50.90
-52.73
-50.97
-45.23
-35.96
-24.33
-11.89
-0.12
9.84
17.34
22.23
24.67
25.06
23.90
21.79
19.31
16.99
15.23
14.20
13.89
14.16
14.81
15.70
16.75
17.91
19.06
20.04
20.56
20.41
19.43
17.70
15.44
12.94
10.44
7.98
5.49
2.79
-0.26
-3.64
-7.24
-10.82
-14.18
-17.20
-19.85
-22.18
-24.32
-26.45
-28.91
-32.08
-36.25
-41.31
-46.52
-50.57
-51.86
-49.18
-42.15
-31.48
-18.75
-5.82
5.71
14.88
21.40
25.47
27.46
27.77
26.77
24.87
22.55
20.27
18.44
17.32
16.99
17.31
18.05
18.94
19.72
20.24
20.43
20.30
19.82
18.95
17.60
15.71
13.30
10.53
7.64
4.85
2.26
-0.23
-2.80
-5.66
-8.88
-12.33
-15.74
-18.81
-21.31
-23.24
-24.86
-26.66
-29.18
-32.85
-37.65
-42.96
-47.49
-49.67
-48.09
-42.13
-32.18
-19.61
-6.32
5.92
15.86
23.04
27.58
29.93
30.55
29.80
27.99
25.40
22.41
19.44
16.91
15.15
14.32
14.46
15.39
16.87
18.55
20.09
21.15
21.51
21.12
20.03
18.39
16.33
14.01
11.51
8.89
6.19
3.41
0.51
-2.58
-5.92
-9.47
-13.04
-16.38
-19.22
-21.48
-23.39
-25.49
-28.41
-32.55
-37.78
-43.21
-47.40
-48.74
-46.07
-39.15
-28.77
-16.47
-4.00
7.18
16.22
22.85
27.20
29.46
29.82
28.51
25.88
22.47
18.96
15.96
13.88
12.87
12.82
13.45
14.48
15.60
16.58
17.24
17.51
17.33
16.74
15.77
14.42
12.66
10.43
7.70
4.56
1.16
-2.31
-5.70
-8.91
-11.99
-14.96
-17.87
-20.69
-23.45
-26.28
-29.46
-33.26
-37.70
-42.26
-45.92
-47.30
-45.22
-39.19
-29.62
-17.75
-5.23
6.40
16.10
23.40
28.31
31.05
31.90
31.08
28.84
25.50
21.57
17.65
14.38
12.20
11.31
11.55
12.54
13.82
15.02
15.95
16.55
16.84
16.81
16.36
15.37
13.77
11.53
8.75
5.58
2.18
-1.27
-4.65
-7.86
-10.88
-13.70
-16.35
-18.90
-21.52
-24.47
-28.06
-32.44
-37.36
-42.05
-45.27
-45.64
-42.22
-34.84
-24.29
-12.02
0.31
11.37
20.39
27.11
31.59
33.95
34.28
32.75
29.67
25.59
21.23
17.30
14.36
12.69
12.25
12.75
13.74
14.79
15.55
15.91
15.88
15.59
15.07
14.24
12.90
10.85
8.03
4.58
0.84
-2.83
-6.15
-9.07
-11.72
-14.35
-17.19
-20.39
-24.09
-28.37
-33.23
-38.41
-43.30
-46.86
-47.84
-45.24
-38.68
-28.71
-16.67
-4.28
6.94
16.01
22.60
26.84
29.03
29.39
28.04
25.14
21.05
16.39
11.93
8.40
6.25
5.55
5.98
7.07
8.30
9.32
10.01
10.41
10.62
10.67
10.44
9.69
8.19
5.80
2.58
-1.23
-5.26
-9.14
-12.60
-15.54
-18.02
-20.27
-22.65
-25.59
-29.45
-34.33
-39.84
-45.06
-48.63
-49.18
-45.82
-38.45
-27.93
-15.75
-3.54
7.36
16.16
22.63
26.83
28.90
28.92
27.04
23.57
19.07
14.33
10.15
7.11
5.41
4.84
4.93
5.21
5.39
5.47
5.63
6.07
6.77
7.53
7.97
7.71
6.51
4.36
1.49
-1.76
-5.00
-7.91
-10.34
-12.30
-14.00
-15.71
-17.81
-20.54
-24.05
-28.18
-32.46
-36.05
-37.88
-36.93
-32.56
-24.80
-14.41
-2.73
8.71
18.66
26.39
31.71
34.82
36.01
35.48
33.43
30.10
25.97
21.65
17.85
15.11
13.67
13.48
14.21
15.45
16.79
17.92
18.64
18.92
18.77
18.22
17.25
15.70
13.37
10.14
6.11
1.62
-2.84
-6.82
-10.12
-12.82
-15.19
-17.56
-20.21
-23.33
-27.04
-31.33
-35.93
-40.13
-42.84
-42.86
-39.26
-31.89
-21.47
-9.39
2.71
13.46
22.02
28.14
31.89
33.47
33.08
30.93
27.41
23.11
18.75
15.09
12.64
11.58
11.76
12.76
14.10
15.38
16.32
16.79
16.77
16.28
15.40
14.22
12.78
11.06
8.94
6.24
2.88
-1.08
-5.34
-9.48
-13.09
-15.94
-18.13
-20.01
-22.07
-24.75
-28.34
-32.84
-37.87
-42.72
-46.34
-47.55
-45.36
-39.30
-29.67
-17.53
-4.48
7.81
18.02
25.43
29.95
31.93
31.88
30.29
27.57
24.11
20.35
16.76
13.85
11.97
11.24
11.49
12.29
13.19
13.77
13.85
13.51
12.95
12.41
11.94
11.33
10.19
8.14
4.98
0.89
-3.68
-8.14
-12.03
-15.18
-17.77
-20.13
-22.59
-25.41
-28.75
-32.67
-37.07
-41.61
-45.53
-47.69
-46.89
-42.27
-33.78
-22.28
-9.38
3.12
13.77
21.82
27.21
30.27
31.42
30.92
28.93
25.66
21.56
17.32
13.72
11.39
10.56
10.97
12.03
13.05
13.55
13.44
12.93
12.41
12.14
12.06
11.76
10.69
8.34
4.60
-0.21
-5.44
-10.38
-14.50
-17.68
-20.19
-22.52
-25.20
-28.61
-32.90
-37.91
-43.16
-47.76
-50.54
-50.26
-46.05
-37.76
-26.12
-12.62
1.01
13.30
23.32
30.74
35.56
37.85
37.72
35.36
31.26
26.21
21.19
17.05
14.30
12.98
12.78
13.17
13.66
13.95
13.95
13.77
13.54
13.29
12.83
11.82
9.85
6.69
2.44
-2.45
-7.36
-11.70
-15.22
-18.00
-20.51
-23.29
-26.83
-31.32
-36.57
-41.98
-46.56
-49.13
-48.56
-44.16
-35.87
-24.42
-11.13
2.43
14.81
24.92
32.10
36.12
37.03
35.20
31.27
26.15
20.86
16.33
13.19
11.56
11.18
11.55
12.17
12.74
13.14
13.41
13.46
13.09
11.94
9.67
6.13
1.47
-3.87
-9.35
-14.54
-19.25
-23.54
-27.68
-31.94
-36.61
-41.87
-47.83
-54.39
-61.05
-66.78
-70.11
-69.52
-64.01
-53.58
-39.38
-23.37
-7.70
6.01
16.99
25.26
31.23
35.35
37.90
39.03
38.96
38.09
36.96
36.04
35.57
35.52
35.62
35.62
35.39
34.93
34.31
33.48
32.21
30.11
26.84
22.28
16.63
10.40
4.23
-1.36
-6.13
-10.16
-13.91
-17.99
-23.03
-29.30
-36.53
-43.66
-49.02
-50.75
-47.45
-38.75
-25.55
-9.76
6.25
20.39
31.28
38.36
41.75
41.95
39.56
35.32
29.99
24.43
19.44
15.64
13.25
12.13
11.87
11.97
12.09
12.10
12.07
12.00
11.74
10.90
9.00
5.77
1.25
-4.07
-9.52
-14.49
-18.67
-22.11
-25.21
-28.49
-32.49
-37.59
-43.77
-50.48
-56.48
-60.09
-59.58
-53.84
-42.87
-27.94
-11.22
4.93
18.63
28.91
35.66
39.28
40.26
39.03
35.97
31.62
26.78
22.41
19.37
18.15
18.67
20.32
22.25
23.64
24.05
23.48
22.27
20.86
19.49
18.05
16.13
13.27
9.25
4.28
-1.03
-5.92
-9.82
-12.59
-14.56
-16.39
-18.74
-22.15
-26.86
-32.75
-39.27
-45.34
-49.45
-49.94
-45.58
-36.13
-22.54
-6.77
8.85
22.38
32.77
39.88
44.15
46.12
46.14
44.40
41.14
36.91
32.53
28.93
26.78
26.28
27.13
28.63
30.06
30.84
30.72
29.74
28.10
26.00
23.59
20.95
18.10
15.04
11.70
8.04
4.07
-0.13
-4.36
-8.34
-11.84
-14.76
-17.22
-19.49
-21.97
-25.10
-29.26
-34.59
-40.85
-47.16
-52.12
-54.02
-51.46
-43.87
-31.86
-17.10
-1.76
12.17
23.36
31.33
36.20
38.36
38.19
36.02
32.24
27.46
22.47
18.15
15.26
14.21
14.96
16.98
19.47
21.52
22.50
22.18
20.80
18.89
16.97
15.29
13.74
11.97
9.59
6.38
2.40
-2.08
-6.67
-11.03
-14.90
-18.17
-20.88
-23.19
-25.45
-28.06
-31.49
-35.98
-41.39
-46.96
-51.35
-52.93
-50.35
-43.01
-31.47
-17.34
-2.74
10.30
20.43
27.16
30.73
31.72
30.74
28.25
24.66
20.46
16.29
12.89
10.91
10.68
12.01
14.29
16.63
18.27
18.79
18.25
17.06
15.70
14.39
13.04
11.25
8.56
4.73
-0.14
-5.57
-10.91
-15.56
-19.21
-21.93
-24.10
-26.23
-28.79
-32.13
-36.41
-41.63
-47.52
-53.41
-58.13
-60.15
-58.03
-50.98
-39.24
-24.22
-8.03
7.15
19.72
28.90
34.73
37.64
38.19
36.83
33.96
30.07
25.77
21.82
18.88
17.37
17.34
18.42
20.00
21.44
22.27
22.31
21.67
20.62
19.40
18.08
16.52
14.42
11.53
7.73
3.17
-1.81
-6.78
-11.36
-15.37
-18.79
-21.74
-24.47
-27.25
-30.38
-34.20
-38.88
-44.33
-49.87
-54.31
-56.10
-53.85
-46.90
-35.64
-21.51
-6.52
7.37
18.82
27.31
33.01
36.42
37.95
37.83
36.17
33.18
29.32
25.30
21.90
19.75
19.06
19.66
21.01
22.50
23.56
23.92
23.56
22.65
21.42
19.99
18.39
16.52
14.22
11.35
7.87
3.82
-0.63
-5.22
-9.70
-13.82
-17.46
-20.61
-23.38
-25.96
-28.57
-31.54
-35.18
-39.63
-44.64
-49.36
-52.38
-52.13
-47.45
-38.16
-25.23
-10.52
3.89
16.33
25.94
32.61
36.63
38.31
37.85
35.44
31.40
26.37
21.27
17.04
14.37
13.53
14.24
15.83
17.50
18.56
18.67
17.80
16.21
14.23
12.09
9.78
7.11
3.84
-0.21
-4.95
-10.04
-14.97
-19.24
-22.53
-24.85
-26.49
-27.94
-29.71
-32.25
-35.88
-40.66
-46.23
-51.67
-55.50
-56.06
-52.10
-43.31
-30.56
-15.69
-0.82
12.30
22.73
30.33
35.31
37.90
38.15
36.07
31.98
26.63
21.13
16.63
13.82
12.83
13.18
14.11
14.93
15.29
15.19
14.86
14.50
14.11
13.45
12.16
9.89
6.51
2.12
-2.87
-7.96
-12.62
-16.51
-19.53
-21.86
-23.86
-26.04
-28.95
-33.04
-38.46
-44.80
-50.95
-55.21
-55.72
-51.14
-41.18
-26.94
-10.47
5.82
19.97
30.91
38.45
42.93
44.78
44.31
41.75
37.44
32.07
26.57
21.90
18.72
17.18
16.85
17.05
17.13
16.79
16.15
15.58
15.35
15.40
15.25
14.26
11.86
7.94
2.84
-2.75
-8.06
-12.58
-16.11
-18.83
-21.15
-23.61
-26.79
-31.12
-36.71
-43.11
-49.18
-53.31
-53.77
-49.40
-40.09
-26.92
-11.85
2.90
15.53
25.10
31.46
34.97
36.07
35.09
32.28
27.97
22.78
17.59
13.31
10.57
9.53
9.84
10.85
11.94
12.75
13.23
13.53
13.76
13.79
13.24
11.66
8.74
4.54
-0.47
-5.61
-10.22
-13.90
-16.72
-19.07
-21.52
-24.61
-28.70
-33.86
-39.83
-45.87
-50.78
-53.11
-51.45
-45.07
-34.21
-20.22
-5.11
9.03
20.69
29.16
34.50
37.09
37.41
35.75
32.41
27.83
22.68
17.77
13.81
11.22
9.99
9.77
10.05
10.44
10.77
11.02
11.31
11.58
11.58
10.93
9.25
6.41
2.62
-1.65
-5.84
-9.53
-12.57
-15.13
-17.59
-20.45
-24.15
-28.91
-34.51
-40.21
-44.76
-46.63
-44.54
-37.91
-27.17
-13.73
0.48
13.55
24.11
31.55
35.92
37.59
37.01
34.60
30.76
25.96
20.85
16.11
12.35
9.91
8.77
8.64
9.08
9.71
10.22
10.50
10.43
9.91
8.79
6.94
4.32
1.02
-2.71
-6.54
-10.13
-13.30
-16.15
-19.02
-22.47
-27.01
-32.73
-39.06
-44.72
-47.98
-47.28
-41.76
-31.72
-18.55
-4.32
8.86
19.41
26.63
30.53
31.62
30.51
27.72
23.62
18.64
13.28
8.18
3.94
1.02
-0.42
-0.55
0.29
1.67
3.14
4.25
4.65
4.07
2.43
-0.11
-3.25
-6.65
-10.10
-13.56
-17.16
-21.05
-25.38
-30.28
-35.80
-41.81
-47.70
-52.33
-54.13
-51.60
-43.98
-31.71
-16.43
-0.52
13.71
24.70
31.88
35.55
36.40
35.16
32.41
28.56
24.04
19.32
14.94
11.40
9.11
8.22
8.64
9.98
11.68
13.11
13.71
13.12
11.28
8.38
4.79
0.90
-2.98
-6.70
-10.28
-13.83
-17.51
-21.59
-26.33
-31.90
-38.08
-44.07
-48.45
-49.43
-45.56
-36.32
-22.55
-6.30
9.86
23.64
33.72
39.86
42.59
42.70
40.87
37.57
33.23
28.46
24.05
20.74
18.97
18.64
19.20
19.92
20.28
20.11
19.62
19.07
18.52
17.68
16.00
13.02
8.56
2.98
-3.06
-8.77
-13.62
-17.46
-20.58
-23.59
-27.21
-32.01
-38.14
-45.04
-51.44
-55.51
-55.43
-50.06
-39.46
-24.93
-8.72
6.82
19.87
29.50
35.68
38.80
39.36
37.78
34.49
30.09
25.41
21.36
18.68
17.66
18.05
19.19
20.38
21.10
21.24
20.98
20.59
20.15
19.43
17.96
15.32
11.34
6.31
0.84
-4.38
-8.85
-12.45
-15.44
-18.28
-21.52
-25.64
-30.91
-37.28
-44.18
-50.40
-54.26
-54.10
-48.84
-38.55
-24.51
-8.87
6.11
18.70
28.03
34.01
36.95
37.27
35.32
31.53
26.54
21.33
16.96
14.27
13.61
14.64
16.56
18.44
19.60
19.82
19.32
18.50
17.65
16.73
15.40
13.18
9.73
5.04
-0.51
-6.32
-11.74
-16.30
-19.86
-22.60
-25.00
-27.72
-31.46
-36.69
-43.45
-51.04
-58.02
-62.41
-62.35
-56.69
-45.57
-30.39
-13.45
2.86
16.72
27.20
34.22
38.14
39.41
38.37
35.41
31.08
26.19
21.76
18.69
17.49
18.08
19.85
21.94
23.52
24.14
23.79
22.78
21.51
20.24
18.89
17.14
14.54
10.78
5.85
0.09
-5.94
-11.59
-16.44
-20.36
-23.57
-26.50
-29.65
-33.48
-38.29
-44.20
-50.91
-57.64
-63.05
-65.44
-63.29
-55.85
-43.54
-27.98
-11.41
3.99
16.77
26.46
33.39
38.18
41.31
42.94
43.02
41.55
38.85
35.54
32.44
30.27
29.42
29.81
31.01
32.37
33.28
33.34
32.41
30.63
28.25
25.53
22.62
19.59
16.33
12.71
8.64
4.11
-0.71
-5.58
-10.22
-14.36
-17.93
-20.99
-23.76
-26.60
-29.94
-34.21
-39.66
-46.09
-52.66
-57.88
-59.93
-57.19
-48.92
-35.65
-19.11
-1.72
14.18
26.94
35.90
41.17
43.36
43.11
41.01
37.58
33.40
29.12
25.41
22.80
21.52
21.53
22.51
24.02
25.61
26.90
27.64
27.65
26.85
25.20
22.75
19.66
16.16
12.52
8.96
5.55
2.23
-1.20
-4.92
-8.96
-13.20
-17.33
-21.02
-24.07
-26.50
-28.61
-30.88
-33.87
-38.03
-43.43
-49.58
-55.29
-58.84
-58.46
-52.96
-42.22
-27.39
-10.56
5.91
20.09
30.94
38.25
42.38
43.79
42.84
39.81
35.14
29.53
23.93
19.28
16.24
15.03
15.39
16.73
18.41
19.88
20.78
21.01
20.58
19.60
18.14
16.25
13.90
11.04
7.63
3.67
-0.72
-5.33
-9.92
-14.23
-18.07
-21.36
-24.13
-26.55
-28.90
-31.57
-34.99
-39.50
-45.09
-51.16
-56.44
-59.18
-57.75
-51.17
-39.68
-24.70
-8.44
6.88
19.65
29.12
35.36
38.77
39.77
38.60
35.47
30.73
25.08
19.46
14.85
11.99
11.10
11.85
13.50
15.26
16.50
16.97
16.76
16.10
15.14
13.85
12.04
9.48
6.05
1.86
-2.87
-7.81
-12.70
-17.30
-21.47
-25.12
-28.27
-31.05
-33.79
-36.96
-41.12
-46.60
-53.22
-59.98
-65.20
-66.87
-63.38
-54.17
-40.07
-23.05
-5.56
10.28
23.20
32.80
39.31
43.07
44.32
43.18
39.87
34.90
29.13
23.59
19.26
16.77
16.25
17.30
19.18
21.06
22.29
22.62
22.18
21.32
20.32
19.23
17.82
15.68
12.47
8.12
2.90
-2.65
-7.97
-12.64
-16.52
-19.74
-22.62
-25.56
-28.95
-33.10
-38.23
-44.30
-50.78
-56.59
-60.14
-59.75
-54.22
-43.41
-28.40
-11.27
5.60
20.20
31.39
38.98
43.32
44.98
44.39
41.86
37.73
32.57
27.25
22.70
19.70
18.57
19.07
20.53
22.11
23.13
23.28
22.66
21.59
20.41
19.21
17.80
15.78
12.78
8.64
3.54
-2.06
-7.61
-12.62
-16.87
-20.35
-23.32
-26.11
-29.12
-32.75
-37.32
-42.94
-49.22
-55.17
-59.24
-59.70
-55.28
-45.65
-31.73
-15.39
1.12
15.85
27.60
35.96
41.08
43.26
42.79
39.92
35.04
28.88
22.48
16.94
13.17
11.50
11.67
12.94
14.44
15.48
15.81
15.57
15.14
14.82
14.59
14.10
12.76
10.05
5.79
0.28
-5.77
-11.49
-16.20
-19.68
-22.22
-24.49
-27.26
-31.11
-36.28
-42.60
-49.46
-55.73
-59.98
-60.65
-56.56
-47.41
-33.95
-17.94
-1.53
13.29
25.21
33.68
38.79
40.87
40.28
37.38
32.64
26.80
20.88
15.96
12.87
11.87
12.62
14.25
15.83
16.75
16.89
16.58
16.26
16.14
15.99
15.21
13.16
9.50
4.36
-1.65
-7.73
-13.15
-17.55
-21.02
-23.95
-26.94
-30.57
-35.27
-41.15
-47.87
-54.51
-59.59
-61.39
-58.42
-50.02
-36.70
-20.15
-2.68
13.44
26.61
36.14
42.07
44.83
44.84
42.47
38.12
32.48
26.56
21.50
18.25
17.18
18.01
19.87
21.75
22.88
23.00
22.36
21.47
20.73
20.16
19.34
17.64
14.55
9.96
4.25
-1.85
-7.56
-12.35
-16.12
-19.12
-21.85
-24.81
-28.45
-33.04
-38.63
-44.84
-50.73
-54.79
-55.34
-51.05
-41.58
-27.77
-11.50
4.96
19.58
31.16
39.28
44.13
46.11
45.55
42.76
38.16
32.47
26.69
21.91
18.98
18.22
19.27
21.28
23.23
24.33
24.29
23.30
21.90
20.54
19.33
18.03
16.09
13.07
8.80
3.56
-2.05
-7.38
-11.96
-15.68
-18.79
-21.70
-24.86
-28.63
-33.26
-38.85
-45.12
-51.28
-55.95
-57.43
-54.28
-45.89
-32.93
-17.21
-1.10
13.29
24.61
32.49
37.26
39.41
39.34
37.22
33.23
27.83
21.90
16.62
13.02
11.67
12.41
14.44
16.68
18.26
18.83
18.60
18.07
17.65
17.35
16.72
15.15
12.18
7.76
2.35
-3.34
-8.60
-13.00
-16.54
-19.57
-22.61
-26.15
-30.56
-35.93
-42.00
-48.07
-53.01
-55.36
-53.79
-47.48
-36.61
-22.36
-6.65
8.47
21.37
31.19
37.75
41.23
41.90
40.02
35.92
30.23
23.95
18.26
14.23
12.41
12.69
14.38
16.51
18.22
19.05
18.95
18.18
17.06
15.76
14.17
12.07
9.20
5.50
1.17
-3.42
-7.86
-11.84
-15.30
-18.41
-21.49
-24.94
-29.15
-34.44
-40.89
-48.16
-55.30
-60.77
-62.75
-59.76
-51.29
-38.08
-22.01
-5.46
9.39
21.23
29.62
34.86
37.42
37.71
35.97
32.50
27.81
22.71
18.16
14.97
13.52
13.66
14.84
16.29
17.36
17.71
17.41
16.76
16.11
15.57
14.89
13.57
11.02
6.94
1.48
-4.72
-10.78
-15.90
-19.72
-22.36
-24.38
-26.48
-29.27
-33.13
-38.14
-44.04
-50.11
-55.15
-57.61
-56.01
-49.48
-38.20
-23.50
-7.48
7.67
20.32
29.70
35.84
39.13
39.94
38.50
35.03
29.99
24.22
18.82
14.81
12.81
12.79
14.15
15.98
17.39
17.89
17.41
16.27
14.95
13.78
12.81
11.71
9.99
7.18
3.12
-1.93
-7.38
-12.55
-16.93
-20.36
-23.03
-25.36
-27.83
-30.84
-34.71
-39.60
-45.37
-51.38
-56.43
-58.94
-57.39
-51.00
-40.09
-26.13
-11.31
2.23
12.96
20.25
24.22
25.39
24.29
21.33
16.85
11.28
5.25
-0.46
-5.13
-8.26
-9.72
-9.78
-8.92
-7.62
-6.17
-4.57
-2.58
0.12
3.68
7.95
12.42
16.38
19.22
20.60
20.62
19.69
18.36
17.06
15.89
14.67
12.98
10.41
6.62
1.42
-5.18
-12.90
-20.94
-28.02
-32.45
-32.63
-27.65
-17.74
-4.35
10.30
23.89
34.78
42.27
46.58
48.36
48.21
46.42
43.07
38.24
32.36
26.25
20.91
17.25
15.61
15.67
16.58
17.32
17.15
15.85
13.75
11.43
9.33
7.52
5.70
3.38
0.18
-3.96
-8.78
-13.75
-18.33
-22.12
-25.08
-27.43
-29.61
-32.12
-35.36
-39.58
-44.72
-50.32
-55.52
-59.03
-59.43
-55.57
-47.04
-34.43
-19.23
-3.47
10.90
22.50
30.74
35.66
37.71
37.45
35.42
32.12
28.09
23.87
20.01
16.95
14.96
14.08
14.12
14.76
15.59
16.27
16.56
16.35
15.61
14.37
12.66
10.54
8.06
5.33
2.49
-0.36
-3.16
-5.94
-8.72
-11.56
-14.43
-17.28
-20.07
-22.86
-25.89
-29.52
-34.08
-39.59
-45.55
-50.82
-53.92
-53.47
-48.69
-39.80
-27.92
-14.77
-2.11
8.70
16.89
22.24
24.86
24.97
22.88
18.97
13.79
8.08
2.67
-1.70
-4.53
-5.71
-5.41
-4.02
-1.90
0.69
3.60
6.73
9.92
12.94
15.57
17.70
19.32
20.55
21.42
21.85
21.58
20.35
18.10
14.97
11.33
7.53
3.77
0.01
-3.90
-8.15
-12.77
-17.71
-22.81
-27.84
-32.38
-35.75
-37.06
-35.41
-30.29
-21.83
-10.95
0.91
12.25
21.90
29.26
34.19
36.81
37.29
35.77
32.50
27.94
22.83
18.07
14.54
12.87
13.28
15.58
19.16
23.18
26.76
29.20
30.19
29.74
28.20
26.01
23.50
20.87
18.14
15.27
12.26
9.15
6.01
2.93
-0.04
-2.87
-5.56
-8.09
-10.47
-12.71
-14.91
-17.27
-20.09
-23.69
-28.20
-33.33
-38.18
-41.38
-41.43
-37.36
-29.07
-17.53
-4.46
8.26
19.16
27.48
33.11
36.35
37.48
36.70
34.10
29.89
24.62
19.09
14.25
10.85
9.23
9.20
10.17
11.42
12.37
12.79
12.75
12.46
12.08
11.60
10.80
9.40
7.17
4.06
0.24
-3.96
-8.13
-11.92
-15.12
-17.75
-19.99
-22.12
-24.51
-27.40
-31.01
-35.30
-40.00
-44.50
-47.80
-48.75
-46.34
-40.08
-30.25
-17.92
-4.59
8.21
19.29
28.00
34.03
37.33
37.90
35.88
31.67
26.02
20.02
14.82
11.33
9.91
10.40
12.16
14.45
16.61
18.25
19.26
19.65
19.47
18.67
17.15
14.78
11.47
7.29
2.45
-2.65
-7.53
-11.73
-14.97
-17.25
-18.90
-20.41
-22.32
-25.08
-28.87
-33.59
-38.73
-43.44
-46.58
-46.99
-43.87
-37.03
-27.17
-15.61
-3.96
6.40
14.65
20.59
24.45
26.55
27.09
26.17
23.90
20.63
17.01
13.81
11.76
11.18
11.96
13.55
15.23
16.41
16.77
16.40
15.55
14.56
13.58
12.52
11.06
8.83
5.59
1.46
-3.18
-7.73
-11.68
-14.84
-17.36
-19.69
-22.40
-25.88
-30.34
-35.66
-41.46
-47.00
-51.29
-53.14
-51.46
-45.67
-35.98
-23.50
-9.92
2.98
13.84
21.99
27.35
30.25
31.04
30.05
27.59
24.09
20.18
16.57
13.84
12.22
11.61
11.62
11.85
12.01
12.03
11.91
11.67
11.24
10.40
8.93
6.61
3.38
-0.66
-5.18
-9.73
-13.86
-17.23
-19.79
-21.78
-23.70
-26.08
-29.35
-33.60
-38.47
-43.16
-46.48
-47.16
-44.19
-37.23
-26.77
-14.10
-0.95
11.10
20.93
28.11
32.67
34.82
34.75
32.59
28.66
23.60
18.40
14.08
11.43
10.58
11.13
12.29
13.29
13.72
13.59
13.22
12.89
12.66
12.23
11.11
8.85
5.31
0.75
-4.23
-8.91
-12.77
-15.63
-17.77
-19.74
-22.22
-25.77
-30.62
-36.53
-42.65
-47.63
-49.89
-48.12
-41.68
-30.99
-17.42
-2.91
10.57
21.63
29.60
34.54
36.89
37.13
35.64
32.78
29.00
24.96
21.38
18.86
17.65
17.55
18.05
18.59
18.79
18.56
17.99
17.14
15.95
14.16
11.47
7.81
3.38
-1.37
-5.92
-9.87
-13.12
-15.92
-18.77
-22.24
-26.76
-32.38
-38.56
-44.23
-47.91
-48.17
-44.08
-35.61
-23.76
-10.25
2.98
14.29
22.82
28.39
31.34
32.16
31.25
28.89
25.44
21.38
17.38
14.08
11.93
10.99
10.99
11.47
12.00
12.30
12.23
11.70
10.59
8.79
6.22
2.97
-0.74
-4.63
-8.41
-11.96
-15.34
-18.86
-22.92
-27.92
-33.96
-40.64
-46.86
-51.06
-51.57
-47.26
-38.00
-24.89
-9.89
4.73
17.12
26.27
32.06
34.93
35.51
34.32
31.72
28.04
23.73
19.40
15.71
13.20
12.10
12.25
13.21
14.36
15.15
15.21
14.43
12.88
10.69
7.98
4.79
1.14
-2.89
-7.14
-11.43
-15.68
-20.08
-25.01
-30.78
-37.23
-43.46
-47.87
-48.67
-44.60
-35.55
-22.72
-8.21
5.70
17.32
25.87
31.42
34.49
35.59
35.03
33.00
29.75
25.76
21.68
18.14
15.53
13.94
13.17
12.95
12.95
12.93
12.63
11.81
10.26
7.87
4.72
1.10
-2.64
-6.21
-9.47
-12.51
-15.54
-18.82
-22.60
-27.06
-32.26
-37.96
-43.44
-47.45
-48.50
-45.25
-37.19
-24.93
-10.17
4.83
17.98
27.93
34.29
37.40
37.96
36.65
33.97
30.33
26.16
22.00
18.41
15.82
14.42
14.10
14.48
15.12
15.56
15.44
14.58
12.89
10.43
7.37
3.93
0.37
-3.08
-6.30
-9.26
-12.06
-14.97
-18.35
-22.60
-27.98
-34.35
-40.91
-46.26
-48.64
-46.58
-39.43
-27.74
-13.17
2.07
15.85
26.68
33.97
37.82
38.77
37.49
34.63
30.82
26.66
22.72
19.44
17.08
15.68
15.11
15.20
15.70
16.41
17.08
17.45
17.24
16.18
14.10
10.95
6.87
2.12
-2.90
-7.73
-12.05
-15.67
-18.73
-21.69
-25.23
-29.93
-35.99
-42.85
-49.19
-53.16
-53.00
-47.68
-37.36
-23.41
-7.91
6.94
19.46
28.82
34.88
37.89
38.21
36.19
32.27
27.12
21.66
16.90
13.59
12.03
11.95
12.68
13.47
13.80
13.55
12.88
12.05
11.12
9.89
8.01
5.20
1.43
-3.00
-7.55
-11.73
-15.28
-18.25
-20.96
-23.88
-27.45
-31.98
-37.48
-43.50
-49.07
-52.79
-53.14
-49.03
-40.24
-27.63
-12.97
1.68
14.44
24.21
30.62
33.93
34.64
33.25
30.24
26.09
21.40
16.85
13.10
10.63
9.57
9.67
10.39
11.13
11.37
10.91
9.86
8.58
7.38
6.35
5.27
3.68
1.15
-2.52
-7.10
-12.03
-16.60
-20.30
-22.98
-24.90
-26.69
-29.04
-32.50
-37.24
-42.90
-48.53
-52.70
-53.84
-50.69
-42.80
-30.78
-16.18
-1.01
12.83
24.09
32.34
37.76
40.75
41.62
40.47
37.42
32.91
27.72
22.93
19.53
18.08
18.45
20.01
21.84
23.19
23.63
23.22
22.27
21.17
20.14
19.11
17.72
15.57
12.34
8.06
3.08
-2.03
-6.73
-10.68
-13.94
-16.84
-19.87
-23.50
-27.99
-33.39
-39.42
-45.39
-50.25
-52.70
-51.53
-46.04
-36.42
-23.75
-9.74
3.76
15.36
24.31
30.49
34.11
35.45
34.66
31.91
27.53
22.17
16.78
12.33
9.61
8.88
9.85
11.79
13.83
15.25
15.76
15.45
14.66
13.73
12.77
11.63
9.98
7.48
3.99
-0.36
-5.20
-10.07
-14.56
-18.45
-21.72
-24.58
-27.33
-30.38
-34.08
-38.68
-44.13
-49.88
-54.88
-57.64
-56.71
-51.12
-40.89
-27.10
-11.63
3.44
16.42
26.39
33.15
36.98
38.29
37.49
34.90
30.94
26.19
21.40
17.29
14.45
13.09
13.07
13.95
15.18
16.31
17.10
17.56
17.79
17.88
17.72
17.06
15.51
12.83
9.03
4.43
-0.45
-5.11
-9.23
-12.78
-15.97
-19.08
-22.31
-25.72
-29.39
-33.39
-37.92
-43.05
-48.44
-53.13
-55.65
-54.42
-48.40
-37.67
-23.48
-7.91
6.88
19.32
28.69
35.10
38.96
40.68
40.41
38.22
34.34
29.35
24.14
19.66
16.63
15.27
15.38
16.39
17.65
18.64
19.08
18.92
18.30
17.39
16.33
15.08
13.48
11.28
8.28
4.44
0.01
-4.63
-9.05
-12.99
-16.45
-19.59
-22.63
-25.70
-28.88
-32.25
-36.04
-40.50
-45.64
-50.89
-54.99
-56.26
-53.22
-45.25
-32.92
-17.91
-2.33
11.85
23.42
31.97
37.67
40.94
42.10
41.39
39.02
35.33
30.83
26.19
22.06
18.98
17.24
16.83
17.47
18.69
20.01
20.99
21.39
21.16
20.34
19.05
17.35
15.26
12.69
9.62
6.03
2.02
-2.21
-6.39
-10.24
-13.57
-16.34
-18.69
-20.93
-23.46
-26.66
-30.77
-35.80
-41.31
-46.47
-50.01
-50.56
-47.02
-38.96
-26.91
-12.29
2.94
16.90
28.20
36.18
40.82
42.47
41.61
38.69
34.22
28.80
23.21
18.28
14.71
12.89
12.83
14.18
16.37
18.82
21.04
22.68
23.52
23.45
22.41
20.48
17.84
14.79
11.64
8.54
5.47
2.15
-1.70
-6.22
-11.28
-16.45
-21.21
-25.16
-28.17
-30.48
-32.59
-35.06
-38.38
-42.69
-47.64
-52.30
-55.26
-54.95
-50.23
-40.79
-27.48
-12.03
3.40
16.93
27.42
34.59
38.75
40.40
39.98
37.80
34.18
29.64
24.94
20.90
18.18
17.00
17.15
18.11
19.25
20.11
20.45
20.27
19.67
18.76
17.54
15.94
13.86
11.24
8.04
4.35
0.28
-3.98
-8.23
-12.26
-15.93
-19.19
-22.06
-24.61
-26.97
-29.31
-31.92
-35.13
-39.20
-44.09
-49.15
-53.16
-54.49
-51.74
-44.26
-32.55
-18.13
-3.08
10.67
21.85
29.98
35.23
38.00
38.67
37.48
34.69
30.74
26.27
22.08
18.87
17.01
16.48
16.93
17.86
18.83
19.58
19.96
19.97
19.59
18.79
17.51
15.74
13.48
10.77
7.69
4.30
0.70
-3.02
-6.72
-10.26
-13.55
-16.59
-19.42
-22.19
-25.09
-28.36
-32.27
-36.98
-42.36
-47.81
-52.20
-54.05
-52.03
-45.43
-34.54
-20.66
-5.70
8.40
20.17
28.89
34.52
37.38
37.97
36.77
34.20
30.74
26.91
23.28
20.33
18.43
17.70
17.99
18.98
20.20
21.26
21.85
21.86
21.31
20.31
18.98
17.34
15.39
13.02
10.17
6.77
2.88
-1.33
-5.60
-9.66
-13.29
-16.44
-19.19
-21.72
-24.26
-27.11
-30.54
-34.87
-40.20
-46.18
-51.81
-55.52
-55.57
-50.69
-40.71
-26.74
-10.90
4.40
17.26
26.75
32.89
36.26
37.45
36.79
34.40
30.46
25.52
20.50
16.48
14.21
13.86
14.98
16.77
18.43
19.49
19.87
19.67
19.01
17.92
16.29
14.09
11.40
8.42
5.31
2.14
-1.21
-4.88
-8.95
-13.28
-17.58
-21.50
-24.81
-27.52
-29.84
-32.15
-34.88
-38.43
-43.04
-48.54
-54.22
-58.78
-60.64
-58.36
-51.28
-39.83
-25.51
-10.39
3.49
14.76
22.84
27.88
30.37
30.86
29.78
27.53
24.59
21.51
18.83
17.01
16.22
16.41
17.36
18.76
20.32
21.77
22.84
23.28
22.89
21.59
19.45
16.68
13.60
10.48
7.52
4.71
1.94
-0.95
-4.08
-7.42
-10.84
-14.13
-17.13
-19.80
-22.26
-24.78
-27.73
-31.42
-36.04
-41.37
-46.75
-50.99
-52.62
-50.38
-43.65
-32.82
-19.22
-4.68
8.99
20.51
29.31
35.34
38.82
40.00
39.13
36.53
32.71
28.41
24.46
21.55
20.07
20.02
21.09
22.77
24.51
25.90
26.65
26.67
25.93
24.45
22.30
19.58
16.45
13.13
9.80
6.56
3.36
0.03
-3.58
-7.50
-11.55
-15.46
-18.91
-21.75
-24.10
-26.35
-29.00
-32.52
-37.06
-42.29
-47.32
-50.80
-51.31
-47.75
-39.85
-28.30
-14.60
-0.60
12.06
22.33
29.84
34.67
37.06
37.27
35.53
32.24
28.04
23.77
20.25
18.01
17.13
17.35
18.21
19.31
20.39
21.31
21.92
22.08
21.60
20.37
18.42
15.92
13.07
10.01
6.78
3.34
-0.37
-4.27
-8.22
-12.02
-15.49
-18.61
-21.46
-24.23
-27.11
-30.32
-34.11
-38.64
-43.90
-49.39
-54.08
-56.44
-54.96
-48.70
-37.82
-23.65
-8.33
5.90
17.42
25.56
30.47
32.72
32.88
31.34
28.37
24.35
19.89
15.76
12.68
11.08
10.94
11.88
13.31
14.66
15.56
15.86
15.60
14.86
13.79
12.45
10.83
8.90
6.60
3.89
0.79
-2.62
-6.16
-9.63
-12.84
-15.67
-18.11
-20.30
-22.45
-24.83
-27.69
-31.21
-35.32
-39.63
-43.28
-45.08
-43.79
-38.60
-29.45
-17.20
-3.41
10.20
22.13
31.54
38.20
42.27
44.08
43.87
41.93
38.60
34.39
29.99
26.12
23.32
21.90
21.81
22.69
24.00
25.21
25.92
25.95
25.32
24.16
22.59
20.69
18.41
15.66
12.33
8.39
3.90
-0.91
-5.66
-9.99
-13.62
-16.49
-18.80
-20.90
-23.18
-25.91
-29.27
-33.28
-37.81
-42.39
-46.18
-47.93
-46.39
-40.72
-30.95
-18.17
-4.19
8.99
19.86
27.70
32.57
34.88
35.10
33.51
30.33
25.95
21.06
16.57
13.36
11.97
12.38
14.07
16.20
18.02
19.08
19.42
19.35
19.29
19.40
19.52
19.18
17.79
14.93
10.54
4.97
-1.16
-7.13
-12.40
-16.73
-20.22
-23.22
-26.21
-29.62
-33.80
-38.80
-44.29
-49.44
-53.05
-53.76
-50.54
-43.08
-32.05
-18.91
-5.56
6.29
15.53
21.79
25.29
26.51
25.85
23.63
20.12
15.78
11.31
7.57
5.35
4.99
6.26
8.42
10.57
12.01
12.50
12.28
11.73
11.08
10.15
8.49
5.61
1.32
-4.07
-9.84
-15.15
-19.37
-22.34
-24.33
-25.95
-27.93
-30.93
-35.41
-41.37
-48.19
-54.53
-58.57
-58.49
-53.19
-42.81
-28.79
-13.39
1.10
13.04
21.73
27.23
29.92
30.13
28.03
23.85
18.12
11.80
6.04
1.90
-0.09
0.00
1.55
3.69
5.65
7.03
7.81
8.27
8.68
9.08
9.16
8.38
6.23
2.56
-2.32
-7.68
-12.63
-16.51
-19.14
-20.86
-22.40
-24.63
-28.18
-33.22
-39.38
-45.69
-50.74
-52.99
-51.18
-44.70
-33.87
-19.89
-4.54
10.31
23.13
33.00
39.63
43.18
43.97
42.42
38.99
34.33
29.28
24.80
21.70
20.42
20.85
22.35
24.07
25.26
25.59
25.24
24.68
24.32
24.16
23.77
22.38
19.30
14.22
7.46
-0.18
-7.68
-14.18
-19.22
-22.80
-25.40
-27.73
-30.61
-34.69
-40.21
-46.64
-52.70
-56.52
-56.29
-50.89
-40.43
-26.33
-10.82
3.65
15.23
22.92
26.69
27.17
25.31
22.07
18.39
15.03
12.59
11.50
11.93
13.74
16.52
19.62
22.40
24.31
25.11
24.90
24.00
22.74
21.21
19.21
16.34
12.27
6.98
0.90
-5.29
-10.83
-15.26
-18.58
-21.21
-23.86
-27.24
-31.86
-37.78
-44.49
-50.85
-55.23
-55.90
-51.60
-42.07
-28.28
-12.22
3.70
17.42
27.74
34.45
38.04
39.19
38.44
36.14
32.60
28.36
24.24
21.09
19.51
19.57
20.73
22.11
22.87
22.57
21.29
19.50
17.73
16.27
15.00
13.45
11.04
7.44
2.70
-2.64
-7.81
-12.12
-15.23
-17.31
-18.94
-20.89
-23.87
-28.38
-34.49
-41.74
-49.03
-54.68
-56.84
-54.00
-45.62
-32.46
-16.36
0.31
15.42
27.66
36.64
42.60
46.00
47.16
46.21
43.32
38.87
33.62
28.56
24.64
22.42
21.90
22.50
23.37
23.70
23.10
21.67
19.87
18.20
16.85
15.57
13.76
10.75
6.18
0.14
-6.73
-13.58
-19.60
-24.36
-27.94
-30.91
-34.05
-38.15
-43.76
-51.01
-59.46
-68.06
-75.13
-78.70
-76.92
-68.68
-54.07
-34.49
-12.38
9.47
28.66
43.67
54.07
60.21
62.82
62.67
60.39
56.56
51.84
46.97
42.72
39.64
37.90
37.18
36.89
36.34
35.13
33.23
30.98
28.86
27.18
25.91
24.58
22.48
18.96
13.78
7.23
0.06
-6.75
-12.47
-16.81
-20.06
-22.86
-25.98
-30.06
-35.41
-41.94
-49.13
-55.92
-60.87
-62.37
-59.15
-50.71
-37.64
-21.50
-4.42
11.56
24.97
35.12
41.95
45.74
46.86
45.70
42.69
38.44
33.71
29.34
26.01
24.03
23.31
23.42
23.82
24.11
24.12
24.01
24.00
24.18
24.29
23.73
21.75
17.79
11.79
4.24
-3.89
-11.58
-18.05
-23.07
-26.93
-30.24
-33.66
-37.77
-42.84
-48.76
-54.92
-60.16
-62.96
-61.82
-55.85
-45.13
-30.86
-14.97
0.52
13.98
24.55
31.99
36.46
38.19
37.42
34.52
30.08
24.91
19.90
15.78
12.86
11.01
9.85
8.93
8.02
7.18
6.68
6.81
7.60
8.73
9.59
9.44
7.80
4.59
0.22
-4.52
-8.82
-12.13
-14.31
-15.72
-17.01
-18.93
-22.04
-26.50
-31.89
-37.19
-40.91
-41.49
-37.83
-29.67
-17.83
-3.90
10.18
22.75
32.72
39.68
43.65
44.86
43.57
40.12
35.02
29.03
23.00
17.74
13.74
11.05
9.35
8.15
7.01
5.75
4.42
3.15
2.01
0.80
-0.91
-3.57
-7.47
-12.54
-18.40
-24.41
-29.99
-34.75
-38.63
-41.87
-44.92
-48.27
-52.27
-56.88
-61.53
-65.02
-65.82
-62.50
-54.30
-41.52
-25.53
-8.40
7.75
21.37
31.75
38.94
43.35
45.39
45.31
43.29
39.65
34.98
30.09
25.75
22.49
20.43
19.33
18.79
18.47
18.24
18.12
18.17
18.30
18.20
17.33
15.12
11.23
5.73
-0.82
-7.53
-13.44
-17.90
-20.80
-22.63
-24.35
-27.08
-31.73
-38.58
-47.01
-55.46
-61.75
-63.67
-59.77
-49.91
-35.41
-18.55
-1.80
12.91
24.67
33.41
39.55
43.47
45.35
45.19
43.13
39.61
35.40
31.35
28.14
26.04
24.82
23.98
23.00
21.60
19.87
18.15
16.83
16.08
15.67
15.05
13.52
10.56
6.05
0.34
-5.80
-11.54
-16.28
-19.86
-22.64
-25.37
-28.90
-33.93
-40.67
-48.60
-56.43
-62.24
-63.96
-60.02
-49.94
-34.62
-16.08
3.07
20.49
34.66
44.95
51.50
54.72
55.03
52.79
48.42
42.58
36.14
30.05
25.07
21.66
19.82
19.21
19.32
19.65
19.85
19.79
19.50
19.09
18.59
17.87
16.67
14.71
11.77
7.83
3.08
-2.11
-7.30
-12.11
-16.28
-19.79
-22.82
-25.70
-28.85
-32.65
-37.41
-43.24
-49.80
-56.24
-61.12
-62.67
-59.40
-50.60
-36.83
-19.79
-1.91
14.48
27.71
37.08
42.72
45.15
44.96
42.58
38.37
32.78
26.41
20.00
14.34
10.06
7.52
6.76
7.48
9.19
11.29
13.21
14.56
15.12
14.91
14.07
12.79
11.18
9.24
6.81
3.73
-0.04
-4.35
-8.85
-13.14
-16.92
-20.13
-22.93
-25.58
-28.40
-31.63
-35.51
-40.18
-45.52
-50.91
-55.11
-56.45
-53.35
-45.02
-31.94
-15.86
0.70
15.37
26.58
33.86
37.66
38.77
37.88
35.41
31.53
26.51
20.86
15.32
10.68
7.50
5.97
5.88
6.80
8.24
9.84
11.40
12.80
13.96
14.70
14.80
14.04
12.27
9.45
5.68
1.23
-3.53
-8.18
-12.34
-15.78
-18.52
-20.75
-22.83
-25.14
-28.03
-31.79
-36.51
-41.98
-47.43
-51.53
-52.58
-49.14
-40.60
-27.62
-12.01
3.87
17.90
28.84
36.42
40.96
42.93
42.54
39.81
34.85
28.12
20.60
13.46
7.70
3.90
2.03
1.66
2.22
3.17
4.19
5.13
5.93
6.57
6.93
6.83
6.01
4.23
1.38
-2.42
-6.80
-11.26
-15.32
-18.69
-21.39
-23.65
-25.86
-28.43
-31.72
-36.02
-41.36
-47.37
-53.08
-57.00
-57.47
-53.20
-43.88
-30.33
-14.40
1.71
16.00
27.23
34.94
39.25
40.54
39.20
35.57
30.14
23.55
16.67
10.35
5.26
1.71
-0.41
-1.42
-1.65
-1.30
-0.41
1.01
2.80
4.56
5.71
5.64
3.96
0.64
-3.95
-9.14
-14.18
-18.49
-21.83
-24.39
-26.75
-29.70
-33.91
-39.63
-46.39
-52.93
-57.42
-58.01
-53.44
-43.49
-29.20
-12.51
4.28
19.19
30.93
39.04
43.59
44.94
43.47
39.60
33.83
26.90
19.72
13.25
8.19
4.91
3.32
3.06
3.66
4.73
6.02
7.33
8.41
8.88
8.29
6.30
2.84
-1.75
-6.85
-11.78
-16.12
-19.75
-22.98
-26.42
-30.70
-36.30
-43.21
-50.70
-57.25
-60.89
-59.70
-52.56
-39.63
-22.44
-3.40
14.94
30.61
42.54
50.46
54.53
55.05
52.33
46.86
39.46
31.30
23.68
17.65
13.75
11.89
11.56
12.12
13.08
14.29
15.71
17.32
18.79
19.52
18.84
16.27
11.84
6.11
-0.02
-5.70
-10.45
-14.35
-17.90
-21.82
-26.79
-33.11
-40.65
-48.67
-55.79
-60.22
-60.10
-54.09
-41.94
-24.70
-4.55
15.81
33.91
48.05
57.51
62.35
63.03
60.19
54.51
46.82
38.16
29.72
22.64
17.71
15.15
14.58
15.28
16.45
17.53
18.35
18.98
19.55
20.02
20.04
19.06
16.57
12.37
6.71
0.27
-6.11
-11.73
-16.28
-19.92
-23.19
-26.82
-31.44
-37.37
-44.33
-51.36
-56.85
-58.90
-55.95
-47.32
-33.58
-16.44
1.69
18.50
32.23
41.98
47.54
49.12
47.17
42.28
35.27
27.23
19.46
13.15
9.17
7.77
8.62
10.89
13.64
16.08
17.81
18.82
19.37
19.68
19.74
19.23
17.67
14.64
10.09
4.38
-1.78
-7.60
-12.48
-16.23
-19.11
-21.71
-24.72
-28.72
-33.94
-40.14
-46.51
-51.71
-54.08
-52.12
-44.92
-32.68
-16.67
0.96
17.85
32.02
42.36
48.60
51.05
50.25
46.74
41.02
33.78
26.01
18.89
13.54
10.65
10.24
11.68
14.01
16.26
17.85
18.59
18.70
18.46
18.09
17.49
16.37
14.27
10.85
6.06
0.24
-5.92
-11.66
-16.35
-19.83
-22.34
-24.51
-27.08
-30.71
-35.74
-41.98
-48.63
-54.26
-57.11
-55.55
-48.63
-36.52
-20.53
-2.80
14.31
28.89
39.81
46.71
49.80
49.53
46.42
41.08
34.32
27.16
20.73
16.03
13.62
13.51
15.11
17.51
19.82
21.43
22.15
22.19
21.84
21.32
20.53
19.10
16.53
12.49
7.04
0.65
-5.92
-11.91
-16.78
-20.42
-23.11
-25.38
-27.85
-31.11
-35.56
-41.22
-47.54
-53.36
-56.97
-56.62
-51.09
-40.17
-24.92
-7.39
9.98
25.04
36.40
43.58
46.77
46.53
43.50
38.35
31.80
24.71
18.04
12.68
9.32
8.16
8.91
10.86
13.13
14.94
15.84
15.79
15.02
13.88
12.56
10.98
8.84
5.72
1.40
-3.97
-9.87
-15.53
-20.28
-23.79
-26.20
-28.08
-30.21
-33.31
-37.83
-43.73
-50.35
-56.45
-60.41
-60.60
-55.93
-46.19
-32.26
-15.84
0.98
16.32
28.86
37.88
43.16
44.79
43.08
38.60
32.18
24.91
18.00
12.48
8.93
7.46
7.68
8.90
10.48
11.92
13.03
13.82
14.35
14.59
14.27
13.02
10.46
6.47
1.36
-4.29
-9.71
-14.30
-17.86
-20.57
-22.94
-25.55
-28.91
-33.33
-38.80
-44.88
-50.62
-54.57
-55.11
-50.98
-41.75
-28.15
-11.91
4.70
19.61
31.37
39.37
43.69
44.73
42.96
38.91
33.15
26.52
20.00
14.62
11.15
9.88
10.50
12.28
14.32
15.94
16.84
17.13
17.09
16.93
16.54
15.53
13.41
9.86
4.99
-0.67
-6.33
-11.30
-15.19
-18.08
-20.41
-22.79
-25.84
-29.96
-35.24
-41.31
-47.26
-51.65
-52.85
-49.48
-40.98
-27.92
-11.91
4.85
20.16
32.43
40.90
45.52
46.71
45.00
40.99
35.33
28.78
22.28
16.79
13.06
11.39
11.56
12.88
14.51
15.75
16.23
16.03
15.44
14.71
13.86
12.55
10.29
6.69
1.74
-4.09
-9.99
-15.14
-19.04
-21.76
-23.87
-26.18
-29.47
-34.15
-40.12
-46.70
-52.62
-56.33
-56.23
-51.25
-41.17
-26.91
-10.34
6.25
20.75
31.78
38.81
42.04
42.00
39.32
34.59
28.49
21.89
15.80
11.20
8.68
8.27
9.38
11.14
12.74
13.76
14.18
14.28
14.26
14.00
13.09
11.00
7.40
2.39
-3.48
-9.41
-14.68
-18.88
-22.04
-24.62
-27.25
-30.57
-34.96
-40.40
-46.37
-51.79
-55.16
-54.89
-49.81
-39.67
-25.34
-8.68
7.99
22.58
33.67
40.71
43.82
43.50
40.44
35.43
29.37
23.26
18.05
14.42
12.63
12.49
13.50
15.06
16.62
17.82
18.49
18.60
18.10
16.93
14.91
11.89
7.78
2.77
-2.70
-8.05
-12.73
-16.48
-19.42
-22.04
-25.04
-29.06
-34.40
-40.75
-47.03
-51.57
-52.51
-48.45
-39.04
-25.23
-9.00
7.22
21.38
32.24
39.44
43.19
43.86
41.83
37.48
31.46
24.78
18.67
14.22
12.05
12.06
13.56
15.59
17.32
18.29
18.49
18.17
17.59
16.78
15.49
13.31
9.92
5.24
-0.41
-6.44
-12.14
-17.00
-20.81
-23.73
-26.25
-29.02
-32.67
-37.53
-43.45
-49.58
-54.45
-56.29
-53.58
-45.65
-33.01
-17.29
-0.70
14.53
26.88
35.62
40.77
42.72
41.92
38.84
33.99
28.14
22.25
17.41
14.46
13.73
14.91
17.19
19.56
21.22
21.79
21.38
20.39
19.24
18.12
16.90
15.21
12.63
8.94
4.22
-1.09
-6.40
-11.15
-15.00
-17.92
-20.22
-22.35
-24.87
-28.27
-32.85
-38.54
-44.73
-50.23
-53.38
-52.58
-46.78
-36.02
-21.48
-5.21
10.51
23.84
33.74
39.97
42.82
42.75
40.22
35.72
29.95
23.86
18.54
14.97
13.65
14.49
16.79
19.55
21.81
22.96
22.88
21.85
20.30
18.63
16.94
15.06
12.62
9.33
5.07
0.10
-5.10
-9.98
-14.09
-17.30
-19.74
-21.80
-23.97
-26.72
-30.43
-35.18
-40.71
-46.19
-50.31
-51.53
-48.56
-40.85
-28.92
-14.28
1.04
15.03
26.27
34.06
38.38
39.56
38.05
34.36
29.04
22.85
16.72
11.62
8.34
7.24
8.16
10.41
13.08
15.30
16.51
16.64
15.93
14.77
13.39
11.75
9.60
6.61
2.67
-2.09
-7.26
-12.34
-16.90
-20.70
-23.74
-26.19
-28.36
-30.63
-33.38
-37.01
-41.69
-47.12
-52.43
-56.12
-56.51
-52.27
-43.01
-29.53
-13.65
2.39
16.61
27.77
35.47
39.88
41.36
40.23
36.80
31.56
25.34
19.25
14.44
11.70
11.27
12.72
15.22
17.82
19.80
20.86
21.05
20.69
20.03
19.17
17.94
16.03
13.14
9.15
4.25
-1.16
-6.49
-11.22
-15.07
-18.02
-20.34
-22.45
-24.80
-27.84
-31.87
-36.95
-42.75
-48.38
-52.46
-53.40
-49.92
-41.57
-29.01
-13.94
1.48
15.28
26.23
33.90
38.53
40.49
40.13
37.64
33.31
27.73
21.80
16.58
13.01
11.49
11.88
13.56
15.76
17.76
19.16
19.84
19.89
19.42
18.51
17.08
15.00
12.13
8.40
3.93
-1.00
-6.00
-10.70
-14.82
-18.30
-21.23
-23.82
-26.33
-29.02
-32.16
-36.01
-40.68
-45.91
-50.87
-54.15
-54.12
-49.51
-39.97
-26.42
-10.75
4.75
18.16
28.40
35.28
39.14
40.44
39.47
36.40
31.53
25.50
19.34
14.20
10.97
9.97
10.88
12.90
15.07
16.70
17.50
17.59
17.28
16.84
16.24
15.22
13.37
10.37
6.23
1.27
-3.90
-8.69
-12.68
-15.82
-18.34
-20.66
-23.19
-26.29
-30.19
-34.94
-40.30
-45.57
-49.58
-50.87
-48.14
-40.78
-29.26
-15.03
-0.11
13.53
24.52
32.28
36.84
38.57
37.82
34.93
30.28
24.45
18.31
12.82
8.82
6.74
6.48
7.47
8.96
10.31
11.22
11.69
11.92
11.98
11.72
10.74
8.67
5.32
0.86
-4.22
-9.30
-13.83
-17.54
-20.48
-22.97
-25.46
-28.45
-32.35
-37.29
-42.94
-48.40
-52.25
-52.91
-49.19
-40.80
-28.52
-14.07
0.51
13.42
23.54
30.47
34.30
35.28
33.70
29.91
24.47
18.24
12.25
7.44
4.35
2.96
2.73
2.89
2.81
2.30
1.67
1.48
2.21
3.88
5.97
7.61
7.97
6.69
3.91
0.19
-3.79
-7.55
-10.90
-14.00
-17.15
-20.75
-25.16
-30.52
-36.58
-42.49
-46.84
-48.03
-44.74
-36.55
-24.18
-9.33
5.91
19.61
30.53
38.17
42.57
43.99
42.71
39.03
33.44
26.80
20.28
15.07
12.02
11.32
12.46
14.45
16.28
17.34
17.53
17.21
16.79
16.44
15.89
14.55
11.86
7.59
2.05
-4.04
-9.81
-14.62
-18.29
-21.08
-23.60
-26.51
-30.35
-35.34
-41.18
-47.01
-51.44
-52.90
-50.05
-42.32
-30.22
-15.24
0.52
15.00
26.66
34.77
39.26
40.49
38.99
35.31
30.09
24.12
18.32
13.60
10.63
9.59
10.15
11.61
13.19
14.39
15.09
15.53
16.04
16.72
17.30
17.20
15.78
12.74
8.24
2.87
-2.54
-7.32
-11.11
-14.01
-16.45
-19.02
-22.27
-26.68
-32.40
-39.19
-46.18
-51.92
-54.68
-52.93
-46.03
-34.52
-20.04
-4.86
8.88
19.70
26.94
30.62
31.08
28.82
24.51
19.10
13.86
10.18
9.23
11.49
16.57
23.35
30.32
36.10
39.80
41.19
40.61
38.69
36.04
32.97
29.48
25.30
20.19
14.13
7.40
0.53
-5.96
-11.73
-16.74
-21.13
-25.07
-28.62
-31.79
-34.57
-37.04
-39.18
-40.68
-40.80
-38.48
-32.76
-23.33
-10.83
3.23
16.93
28.61
37.27
42.67
45.02
44.67
41.89
36.94
30.27
22.73
15.42
9.55
6.00
5.05
6.33
8.91
11.67
13.68
14.40
13.82
12.32
10.37
8.32
6.20
3.80
0.83
-2.91
-7.35
-12.16
-16.92
-21.27
-25.00
-28.15
-30.91
-33.53
-36.29
-39.47
-43.37
-48.10
-53.43
-58.56
-62.06
-62.28
-57.85
-48.32
-34.49
-18.30
-2.22
11.50
21.44
27.22
29.31
28.57
25.90
21.96
17.23
12.12
7.04
2.40
-1.51
-4.63
-7.01
-8.64
-9.21
-8.13
-4.72
1.32
9.53
18.67
27.07
33.18
36.10
35.75
32.70
27.73
21.57
14.71
7.47
0.17
-6.82
-13.14
-18.52
-22.89
-26.44
-29.54
-32.74
-36.48
-40.90
-45.59
-49.44
-50.88
-48.35
-40.92
-28.79
-13.32
3.33
18.89
31.67
40.87
46.46
48.89
48.70
46.31
42.11
36.62
30.61
24.97
20.53
17.79
16.86
17.43
18.97
20.95
22.91
24.54
25.56
25.81
25.18
23.68
21.46
18.74
15.76
12.67
9.49
6.17
2.63
-1.10
-4.91
-8.59
-11.95
-14.88
-17.39
-19.61
-21.82
-24.41
-27.84
-32.43
-38.08
-44.05
-48.92
-50.93
-48.53
-41.09
-29.19
-14.51
0.73
14.50
25.46
33.13
37.63
39.35
38.60
35.72
31.12
25.48
19.77
14.98
11.88
10.68
11.07
12.40
14.01
15.46
16.65
17.63
18.41
18.79
18.38
16.86
14.15
10.59
6.75
3.17
0.07
-2.71
-5.58
-8.90
-12.76
-16.89
-20.83
-24.13
-26.61
-28.37
-29.79
-31.39
-33.70
-37.15
-41.80
-47.19
-52.20
-55.21
-54.55
-49.11
-38.82
-24.84
-9.19
5.89
18.61
27.97
33.76
36.36
36.30
34.15
30.44
25.77
20.81
16.29
12.88
11.00
10.74
11.85
13.81
16.04
18.07
19.63
20.61
20.98
20.71
19.71
17.88
15.24
11.95
8.25
4.40
0.54
-3.30
-7.17
-11.07
-14.90
-18.50
-21.72
-24.53
-27.06
-29.61
-32.53
-36.21
-40.88
-46.43
-52.21
-56.92
-58.90
-56.54
-48.97
-36.48
-20.54
-3.42
12.63
25.95
35.80
42.22
45.64
46.51
45.18
42.00
37.47
32.30
27.27
23.10
20.19
18.70
18.49
19.31
20.83
22.71
24.56
26.02
26.76
26.52
25.20
22.79
19.46
15.47
11.15
6.78
2.54
-1.50
-5.39
-9.21
-12.95
-16.56
-19.87
-22.75
-25.08
-26.92
-28.50
-30.27
-32.84
-36.72
-41.97
-47.88
-52.92
-55.17
-52.97
-45.58
-33.58
-18.66
-3.05
11.18
22.68
30.91
35.94
38.10
37.75
35.24
31.01
25.73
20.30
15.66
12.54
11.31
11.82
13.59
15.94
18.27
20.20
21.54
22.23
22.26
21.62
20.28
18.32
15.84
13.01
9.99
6.86
3.63
0.21
-3.50
-7.51
-11.71
-15.79
-19.41
-22.29
-24.38
-25.92
-27.46
-29.64
-33.05
-37.82
-43.49
-48.82
-52.11
-51.65
-46.38
-36.34
-22.75
-7.66
6.80
18.99
28.12
34.18
37.54
38.59
37.61
34.81
30.58
25.58
20.64
16.63
14.12
13.28
13.87
15.40
17.27
18.95
20.10
20.50
20.11
19.00
17.29
15.14
12.71
10.13
7.45
4.63
1.55
-1.91
-5.80
-9.97
-14.13
-17.95
-21.12
-23.55
-25.40
-27.02
-28.90
-31.53
-35.18
-39.70
-44.33
-47.80
-48.53
-45.22
-37.37
-25.56
-11.35
3.23
16.30
26.67
33.86
38.00
39.43
38.53
35.61
31.13
25.72
20.17
15.33
11.85
10.04
9.82
10.81
12.42
14.12
15.49
16.36
16.78
16.93
17.07
17.30
17.47
17.20
15.95
13.26
8.95
3.26
-3.22
-9.75
-15.69
-20.70
-24.80
-28.26
-31.53
-35.07
-39.31
-44.57
-50.80
-57.42
-63.13
-66.19
-64.96
-58.51
-47.14
-32.35
-16.39
-1.48
10.78
19.65
25.14
27.60
27.51
25.31
21.56
16.97
12.41
8.70
6.48
6.01
7.18
9.57
12.53
15.40
17.64
18.97
19.37
19.01
18.15
16.97
15.53
13.75
11.50
8.67
5.19
1.14
-3.21
-7.54
-11.47
-14.72
-17.26
-19.25
-21.08
-23.20
-26.04
-29.91
-34.88
-40.57
-46.06
-49.92
-50.56
-46.72
-38.07
-25.38
-10.38
4.83
18.39
29.10
36.47
40.54
41.63
40.22
36.91
32.43
27.65
23.37
20.22
18.51
18.26
19.21
20.99
23.14
25.21
26.81
27.64
27.52
26.41
24.46
21.91
19.07
16.18
13.30
10.31
6.98
3.10
-1.32
-6.03
-10.60
-14.60
-17.77
-20.18
-22.10
-23.94
-26.17
-29.20
-33.35
-38.65
-44.72
-50.47
-54.34
-54.56
-49.87
-40.05
-26.19
-10.37
5.00
17.92
27.37
33.29
36.23
36.84
35.57
32.68
28.46
23.48
18.61
14.81
12.80
12.77
14.30
16.62
18.89
20.48
21.17
21.04
20.37
19.39
18.22
16.84
15.05
12.68
9.56
5.72
1.38
-3.05
-7.15
-10.56
-13.18
-15.12
-16.67
-18.19
-20.01
-22.47
-25.88
-30.41
-35.94
-41.73
-46.46
-48.49
-46.33
-39.35
-28.05
-14.02
0.57
13.67
23.92
30.84
34.68
36.06
35.53
33.51
30.27
26.13
21.62
17.42
14.23
12.55
12.39
13.37
14.82
16.10
16.84
16.94
16.54
15.81
14.76
13.28
11.21
8.40
4.87
0.76
-3.67
-8.10
-12.19
-15.66
-18.41
-20.54
-22.35
-24.22
-26.57
-29.71
-33.85
-38.95
-44.65
-50.11
-53.98
-54.70
-50.96
-42.29
-29.39
-14.06
1.38
14.83
25.02
31.68
35.25
36.44
35.73
33.41
29.70
25.06
20.25
16.21
13.70
12.98
13.75
15.29
16.83
17.83
18.08
17.72
16.98
16.02
14.87
13.39
11.35
8.58
4.98
0.63
-4.19
-9.04
-13.50
-17.23
-20.11
-22.32
-24.19
-26.10
-28.41
-31.40
-35.25
-39.97
-45.28
-50.42
-54.15
-54.97
-51.60
-43.47
-31.09
-15.99
-0.26
14.05
25.48
33.47
38.17
40.16
40.06
38.35
35.38
31.49
27.21
23.23
20.27
18.86
19.15
20.85
23.37
25.93
27.92
28.94
28.91
27.97
26.36
24.28
21.81
18.95
15.60
11.72
7.35
2.66
-2.05
-6.48
-10.40
-13.69
-16.41
-18.76
-21.05
-23.63
-26.91
-31.27
-36.84
-43.28
-49.59
-54.20
-55.30
-51.53
-42.52
-29.17
-13.45
2.24
15.84
26.13
32.84
36.40
37.49
36.67
34.37
30.97
26.94
22.97
19.81
18.09
18.13
19.79
22.55
25.69
28.51
30.56
31.66
31.88
31.40
30.35
28.73
26.42
23.35
19.54
15.25
10.83
6.63
2.82
-0.67
-4.06
-7.63
-11.54
-15.85
-20.51
-25.50
-30.93
-36.83
-42.98
-48.69
-52.72
-53.58
-50.11
-41.94
-29.87
-15.60
-1.26
11.26
20.81
27.09
30.36
31.10
29.72
26.54
21.89
16.34
10.75
6.08
3.16
2.36
3.48
5.80
8.36
10.32
11.21
11.04
10.17
9.02
7.83
6.53
4.81
2.33
-1.10
-5.32
-9.91
-14.36
-18.26
-21.46
-24.09
-26.45
-28.83
-31.51
-34.69
-38.58
-43.30
-48.65
-53.87
-57.60
-58.17
-54.19
-45.20
-32.03
-16.57
-1.15
12.26
22.53
29.47
33.50
35.15
34.77
32.54
28.73
23.90
18.93
14.84
12.43
12.02
13.31
15.54
17.79
19.35
19.89
19.49
18.50
17.27
15.93
14.41
12.41
9.66
6.05
1.70
-3.06
-7.77
-12.06
-15.74
-18.84
-21.54
-24.12
-26.84
-29.97
-33.76
-38.38
-43.77
-49.37
-54.10
-56.43
-54.89
-48.53
-37.45
-22.80
-6.55
9.14
22.48
32.43
38.77
41.85
42.29
40.75
37.82
34.08
30.15
26.68
24.28
23.33
23.85
25.45
27.49
29.27
30.23
30.10
28.94
26.97
24.53
21.88
19.15
16.32
13.28
9.91
6.15
2.09
-2.10
-6.21
-10.11
-13.75
-17.17
-20.39
-23.44
-26.34
-29.25
-32.54
-36.66
-41.91
-48.10
-54.22
-58.58
-59.26
-54.82
-44.93
-30.65
-14.12
2.18
16.15
26.63
33.45
37.12
38.36
37.72
35.55
32.14
27.94
23.65
20.09
17.97
17.62
18.90
21.23
23.82
25.95
27.17
27.38
26.78
25.62
24.10
22.24
19.93
17.00
13.35
9.04
4.27
-0.68
-5.49
-9.92
-13.82
-17.18
-20.09
-22.69
-25.18
-27.86
-31.05
-35.08
-40.07
-45.65
-50.81
-54.00
-53.58
-48.43
-38.51
-25.00
-9.95
4.41
16.40
25.24
30.94
33.95
34.67
33.33
30.08
25.25
19.58
14.07
9.82
7.56
7.49
9.17
11.76
14.34
16.19
16.97
16.75
15.82
14.49
12.95
11.19
9.02
6.23
2.72
-1.43
-5.97
-10.55
-14.85
-18.65
-21.87
-24.60
-26.98
-29.27
-31.82
-35.07
-39.39
-44.88
-51.01
-56.52
-59.62
-58.54
-52.26
-40.97
-26.16
-10.07
5.09
17.77
27.36
33.96
37.89
39.39
38.50
35.35
30.39
24.56
19.08
15.01
12.96
12.88
14.22
16.16
18.01
19.35
20.05
20.22
19.97
19.36
18.34
16.75
14.48
11.42
7.61
3.19
-1.59
-6.40
-10.92
-14.95
-18.46
-21.57
-24.52
-27.57
-30.92
-34.79
-39.36
-44.73
-50.69
-56.49
-60.79
-61.92
-58.38
-49.54
-36.02
-19.56
-2.55
12.81
25.06
33.65
38.73
40.73
40.08
37.18
32.59
27.19
22.08
18.32
16.60
16.98
18.98
21.80
24.65
27.02
28.68
29.57
29.68
28.99
27.49
25.28
22.59
19.67
16.72
13.75
10.63
7.14
3.16
-1.25
-5.86
-10.37
-14.50
-18.09
-21.16
-23.89
-26.65
-29.88
-34.02
-39.24
-45.17
-50.75
-54.38
-54.27
-49.19
-38.93
-24.51
-7.98
8.31
22.28
32.73
39.36
42.54
42.92
41.14
37.77
33.36
28.52
23.94
20.27
17.98
17.24
17.90
19.56
21.68
23.72
25.22
25.89
25.62
24.47
22.61
20.25
17.53
14.50
11.15
7.46
3.47
-0.73
-4.93
-8.97
-12.67
-15.94
-18.74
-21.17
-23.42
-25.85
-28.93
-33.10
-38.57
-44.99
-51.28
-55.79
-56.66
-52.59
-43.30
-29.83
-14.18
1.27
14.61
24.78
31.61
35.51
36.96
36.35
33.89
29.87
24.83
19.58
15.02
11.90
10.56
10.91
12.45
14.51
16.47
17.88
18.51
18.37
17.58
16.30
14.61
12.51
9.87
6.60
2.67
-1.78
-6.51
-11.17
-15.40
-18.97
-21.85
-24.18
-26.25
-28.48
-31.28
-35.02
-39.86
-45.53
-51.18
-55.42
-56.61
-53.39
-45.25
-32.87
-17.88
-2.50
11.30
22.20
29.77
34.21
36.00
35.60
33.35
29.60
24.90
20.00
15.79
13.03
12.10
12.87
14.78
17.05
18.97
20.07
20.25
19.68
18.67
17.42
15.97
14.16
11.71
8.42
4.28
-0.45
-5.31
-9.80
-13.57
-16.56
-19.00
-21.24
-23.65
-26.59
-30.31
-35.00
-40.58
-46.50
-51.65
-54.43
-53.28
-47.23
-36.42
-22.19
-6.62
8.15
20.51
29.71
35.75
38.97
39.75
38.41
35.24
30.73
25.62
20.79
17.05
14.90
14.40
15.22
16.83
18.58
19.95
20.56
20.22
18.90
16.70
13.82
10.51
7.05
3.67
0.58
-2.10
-4.32
-6.07
-7.42
-8.51
-9.54
-10.76
-12.47
-14.94
-18.48
-23.29
-29.51
-36.99
-45.21
-53.05
-58.84
-60.72
-57.14
-47.57
-32.82
-14.92
3.46
19.83
32.59
41.28
46.29
48.40
48.29
46.43
43.14
38.81
34.09
29.77
26.54
24.81
24.52
25.23
26.33
27.26
27.69
27.51
26.82
25.74
24.33
22.56
20.34
17.58
14.25
10.41
6.21
1.85
-2.47
-6.58
-10.34
-13.69
-16.60
-19.13
-21.32
-23.31
-25.32
-27.74
-31.00
-35.38
-40.73
-46.19
-50.27
-51.25
-47.79
-39.51
-27.21
-12.60
2.24
15.55
26.27
34.03
38.92
41.11
40.76
38.07
33.47
27.76
21.98
17.18
14.09
12.91
13.39
14.90
16.76
18.42
19.56
20.08
20.05
19.59
18.77
17.56
15.86
13.47
10.27
6.24
1.51
-3.58
-8.63
-13.25
-17.16
-20.34
-22.88
-25.08
-27.24
-29.71
-32.81
-36.81
-41.68
-46.98
-51.68
-54.29
-53.28
-47.65
-37.43
-23.80
-8.77
5.46
17.20
25.64
30.77
33.08
33.14
31.40
28.18
23.88
19.12
14.71
11.45
9.90
10.13
11.74
13.99
16.09
17.46
17.92
17.64
16.98
16.27
15.60
14.73
13.25
10.77
7.10
2.42
-2.80
-7.95
-12.55
-16.32
-19.34
-21.90
-24.43
-27.33
-30.93
-35.39
-40.64
-46.19
-51.13
-54.12
-53.78
-49.14
-40.05
-27.41
-12.89
1.49
13.98
23.55
29.89
33.25
34.11
32.92
30.04
25.84
20.90
16.00
12.01
9.68
9.30
10.61
12.90
15.26
16.93
17.60
17.37
16.64
15.80
15.02
14.10
12.67
10.31
6.83
2.36
-2.66
-7.64
-12.05
-15.58
-18.23
-20.29
-22.22
-24.57
-27.79
-32.14
-37.46
-43.08
-47.79
-50.07
-48.58
-42.62
-32.50
-19.47
-5.40
7.87
18.94
27.12
32.34
34.86
35.04
33.22
29.77
25.20
20.22
15.66
12.34
10.78
11.04
12.71
15.02
17.17
18.60
19.18
19.10
18.71
18.26
17.67
16.65
14.81
11.89
7.96
3.38
-1.33
-5.61
-9.15
-11.88
-14.05
-16.08
-18.39
-21.38
-25.30
-30.17
-35.63
-40.84
-44.55
-45.35
-42.16
-34.65
-23.49
-10.22
3.25
15.16
24.39
30.55
33.77
34.41
32.83
29.35
24.39
18.61
12.85
8.03
4.87
3.67
4.17
5.71
7.51
8.93
9.74
10.07
10.21
10.39
10.51
10.19
8.89
6.21
2.13
-2.95
-8.34
-13.34
-17.50
-20.74
-23.37
-25.87
-28.80
-32.60
-37.50
-43.33
-49.42
-54.63
-57.48
-56.62
-51.29
-41.69
-29.00
-15.08
-1.89
8.94
16.43
20.25
20.62
18.18
13.93
9.09
4.97
2.70
2.95
5.73
10.42
15.97
21.27
25.40
27.94
28.90
28.66
27.71
26.44
25.02
23.35
21.15
18.17
14.29
9.65
4.61
-0.40
-4.99
-8.95
-12.29
-15.19
-17.99
-21.12
-25.00
-29.87
-35.50
-41.08
-45.20
-46.27
-43.07
-35.27
-23.68
-10.03
3.65
15.61
24.88
31.23
34.89
36.22
35.48
32.92
28.92
24.15
19.52
15.95
14.08
14.03
15.38
17.34
19.11
20.13
20.28
19.75
18.92
18.00
16.91
15.34
12.87
9.30
4.78
-0.21
-5.01
-9.08
-12.13
-14.24
-15.75
-17.21
-19.21
-22.28
-26.70
-32.31
-38.34
-43.48
-46.13
-44.90
-39.11
-29.05
-16.00
-1.76
11.86
23.46
32.29
38.16
41.23
41.79
40.18
36.83
32.34
27.51
23.20
20.18
18.85
19.11
20.44
22.01
23.05
23.09
22.07
20.27
18.13
16.02
14.04
12.06
9.75
6.79
3.07
-1.28
-5.86
-10.13
-13.68
-16.34
-18.23
-19.76
-21.46
-23.87
-27.36
-32.05
-37.68
-43.55
-48.50
-51.16
-50.27
-45.12
-35.87
-23.57
-9.85
3.48
14.96
23.74
29.62
32.76
33.52
32.20
29.14
24.79
19.85
15.27
12.00
10.69
11.41
13.64
16.45
18.89
20.30
20.49
19.69
18.28
16.61
14.81
12.84
10.56
7.85
4.70
1.19
-2.44
-5.94
-9.09
-11.80
-14.14
-16.29
-18.53
-21.14
-24.44
-28.59
-33.53
-38.69
-43.01
-45.07
-43.57
-37.81
-28.05
-15.54
-2.09
10.47
20.79
28.25
32.77
34.64
34.22
31.85
28.00
23.29
18.53
14.58
12.09
11.36
12.21
14.11
16.35
18.29
19.55
19.95
19.51
18.34
16.58
14.37
11.84
9.07
6.10
2.89
-0.62
-4.40
-8.29
-12.02
-15.31
-18.02
-20.19
-22.11
-24.16
-26.76
-30.25
-34.83
-40.31
-46.05
-50.83
-53.15
-51.62
-45.50
-35.10
-21.75
-7.42
5.96
17.00
25.05
30.13
32.58
32.78
31.06
27.81
23.57
19.05
15.07
12.29
11.07
11.38
12.83
14.80
16.67
17.94
18.34
17.85
16.65
15.00
13.15
11.20
9.11
6.72
3.86
0.45
-3.41
-7.49
-11.51
-15.24
-18.53
-21.35
-23.76
-25.91
-28.00
-30.35
-33.31
-37.14
-41.77
-46.60
-50.46
-51.87
-49.45
-42.56
-31.53
-17.70
-2.95
10.85
22.35
30.87
36.34
38.99
39.15
37.20
33.62
29.06
24.33
20.23
17.37
15.98
15.98
17.01
18.59
20.24
21.60
22.41
22.52
21.97
20.86
19.39
17.70
15.80
13.60
10.88
7.49
3.47
-0.95
-5.37
-9.41
-12.79
-15.47
-17.64
-19.68
-22.06
-25.29
-29.74
-35.47
-42.05
-48.48
-53.28
-54.88
-52.09
-44.53
-32.87
-18.63
-3.77
9.88
21.01
28.98
33.71
35.49
34.73
31.92
27.65
22.63
17.71
13.67
11.11
10.25
10.89
12.47
14.29
15.68
16.28
16.06
15.30
14.39
13.59
12.89
11.94
10.27
7.51
3.63
-0.97
-5.67
-9.82
-12.98
-15.13
-16.57
-17.84
-19.55
-22.23
-26.10
-30.96
-36.03
-39.99
-41.35
-38.88
-32.12
-21.58
-8.65
4.90
17.40
27.70
35.27
40.00
42.04
41.58
38.92
34.57
29.28
23.96
19.48
16.40
14.85
14.56
15.00
15.68
16.24
16.57
16.68
16.64
16.43
15.85
14.57
12.21
8.54
3.64
-2.08
-7.97
-13.39
-17.94
-21.65
-24.89
-28.21
-32.10
-36.81
-42.34
-48.27
-53.85
-57.90
-59.07
-56.20
-48.76
-37.21
-22.97
-8.08
5.44
16.19
23.61
27.84
29.39
28.73
26.18
22.00
16.64
10.84
5.57
1.78
0.02
0.27
1.95
4.14
6.01
7.08
7.37
7.18
6.84
6.44
5.68
4.10
1.34
-2.57
-7.17
-11.75
-15.69
-18.68
-20.87
-22.71
-24.75
-27.46
-31.14
-35.85
-41.32
-46.76
-50.89
-52.15
-49.16
-41.35
-29.28
-14.55
0.69
14.44
25.41
33.14
37.76
39.66
39.24
36.81
32.80
27.85
22.79
18.49
15.60
14.33
14.45
15.35
16.34
16.92
16.98
16.75
16.61
16.75
17.01
16.85
15.57
12.72
8.34
2.98
-2.53
-7.40
-11.25
-14.16
-16.62
-19.26
-22.71
-27.40
-33.39
-40.25
-46.94
-51.87
-53.31
-49.94
-41.41
-28.55
-13.23
2.32
16.10
26.85
34.17
38.23
39.52
38.51
35.69
31.59
26.90
22.35
18.56
15.88
14.33
13.65
13.49
13.58
13.78
14.11
14.54
14.90
14.85
13.92
11.70
8.05
3.23
-2.19
-7.42
-11.81
-15.05
-17.30
-19.16
-21.39
-24.73
-29.50
-35.48
-41.79
-47.04
-49.61
-48.13
-41.93
-31.32
-17.62
-2.75
11.27
22.86
31.17
36.07
37.87
37.07
34.19
29.79
24.60
19.43
15.13
12.26
10.98
11.00
11.75
12.69
13.43
13.90
14.14
14.15
13.74
12.55
10.21
6.59
1.83
-3.54
-8.89
-13.64
-17.48
-20.49
-23.09
-25.91
-29.60
-34.50
-40.46
-46.56
-51.29
-52.85
-49.81
-41.62
-29.00
-13.73
1.84
15.52
25.81
32.16
34.84
34.62
32.49
29.42
26.26
23.73
22.31
22.25
23.44
25.48
27.76
29.62
30.51
30.18
28.73
26.54
24.06
21.59
19.08
16.15
12.31
7.27
1.20
-5.29
-11.29
-16.07
-19.28
-21.19
-22.52
-24.19
-27.02
-31.37
-37.01
-42.91
-47.48
-48.91
-45.81
-37.69
-25.34
-10.60
4.25
17.22
27.14
33.73
37.33
38.43
37.37
34.43
29.98
24.72
19.66
15.84
13.94
14.05
15.62
17.79
19.66
20.66
20.71
20.07
19.16
18.30
17.53
16.61
15.04
12.43
8.57
3.72
-1.55
-6.50
-10.52
-13.39
-15.34
-16.96
-18.96
-21.96
-26.28
-31.82
-38.01
-43.79
-47.71
-48.31
-44.56
-36.24
-24.16
-9.94
4.46
17.34
27.57
34.72
38.79
40.03
38.78
35.47
30.74
25.41
20.41
16.48
14.05
13.12
13.35
14.23
15.26
16.09
16.51
16.44
15.92
15.04
13.87
12.49
10.83
8.82
6.36
3.45
0.22
-3.07
-6.14
-8.83
-11.12
-13.17
-15.18
-17.31
-19.67
-22.36
-25.58
-29.59
-34.51
-40.02
-45.15
-48.42
-48.17
-43.23
-33.41
-19.66
-3.81
12.04
26.06
37.14
44.78
48.97
49.89
47.86
43.36
37.18
30.34
24.00
19.09
16.13
15.10
15.52
16.71
17.96
18.77
18.85
18.09
16.53
14.30
11.59
8.58
5.46
2.29
-0.94
-4.33
-8.00
-11.94
-16.02
-19.98
-23.56
-26.57
-28.98
-30.95
-32.78
-34.87
-37.65
-41.48
-46.40
-51.87
-56.71
-59.27
-57.93
-51.74
-40.90
-26.81
-11.60
2.53
14.05
22.31
27.50
30.13
30.70
29.52
26.81
22.95
18.56
14.48
11.51
10.10
10.31
11.75
13.85
16.03
17.86
19.06
19.51
19.20
18.21
16.64
14.64
12.34
9.82
7.08
4.09
0.81
-2.76
-6.53
-10.35
-14.03
-17.38
-20.27
-22.74
-24.98
-27.34
-30.28
-34.19
-39.16
-44.75
-49.88
-53.07
-52.79
-48.09
-38.98
-26.51
-12.49
1.09
12.66
21.40
27.20
30.39
31.39
30.56
28.14
24.49
20.15
15.87
12.43
10.44
10.08
11.12
12.98
14.97
16.54
17.34
17.31
16.54
15.21
13.54
11.70
9.86
8.11
6.44
4.68
2.62
0.10
-2.91
-6.21
-9.48
-12.45
-14.94
-17.02
-18.85
-20.73
-22.96
-25.92
-29.88
-34.79
-40.04
-44.37
-46.08
-43.68
-36.50
-25.09
-11.10
3.26
16.03
26.03
32.95
37.11
38.97
38.88
37.00
33.49
28.75
23.44
18.43
14.55
12.39
12.04
13.17
15.05
16.91
18.15
18.51
18.11
17.22
16.14
14.96
13.53
11.60
8.92
5.46
1.39
-2.97
-7.27
-11.23
-14.69
-17.65
-20.16
-22.36
-24.50
-26.94
-30.14
-34.48
-39.95
-45.87
-50.90
-53.28
-51.52
-44.94
-34.05
-20.40
-6.06
7.12
17.91
25.86
31.03
33.61
33.74
31.55
27.32
21.76
15.91
10.94
7.75
6.61
7.16
8.60
10.05
10.94
11.16
11.00
10.82
10.81
10.79
10.32
8.90
6.23
2.33
-2.43
-7.52
-12.40
-16.68
-20.16
-22.90
-25.17
-27.38
-30.02
-33.57
-38.28
-44.02
-50.12
-55.29
-57.92
-56.52
-50.26
-39.35
-25.06
-9.33
5.81
18.80
28.79
35.59
39.37
40.39
38.93
35.33
30.23
24.50
19.21
15.26
13.19
12.97
14.08
15.77
17.35
18.43
18.93
19.03
18.89
18.48
17.51
15.60
12.47
8.18
3.12
-2.12
-6.93
-10.94
-14.04
-16.45
-18.55
-20.89
-24.02
-28.39
-34.13
-40.79
-47.26
-51.88
-52.91
-49.10
-40.27
-27.41
-12.39
2.63
15.83
26.13
33.22
37.23
38.49
37.32
34.10
29.42
24.10
19.15
15.47
13.54
13.30
14.18
15.42
16.35
16.67
16.52
16.26
16.20
16.34
16.29
15.43
13.15
9.25
4.03
-1.80
-7.36
-12.00
-15.45
-17.86
-19.70
-21.56
-24.04
-27.62
-32.53
-38.54
-44.82
-49.89
-52.01
-49.66
-42.26
-30.40
-15.77
-0.57
13.19
24.22
32.05
36.80
38.80
38.35
35.74
31.43
26.20
21.05
17.00
14.71
14.28
15.25
16.84
18.28
19.08
19.18
18.79
18.24
17.70
17.05
15.96
13.98
10.83
6.57
1.59
-3.48
-8.03
-11.68
-14.44
-16.62
-18.72
-21.32
-24.86
-29.57
-35.29
-41.30
-46.32
-48.75
-47.10
-40.64
-29.75
-15.93
-1.29
12.14
22.97
30.63
35.21
37.02
36.36
33.45
28.69
22.82
16.93
12.21
9.51
9.04
10.36
12.56
14.68
16.11
16.70
16.70
16.45
16.14
15.67
14.63
12.59
9.33
4.95
-0.07
-5.06
-9.42
-12.80
-15.28
-17.32
-19.54
-22.55
-26.76
-32.23
-38.59
-44.99
-50.19
-52.75
-51.38
-45.42
-35.10
-21.65
-6.94
7.07
18.81
27.51
33.04
35.71
35.91
33.96
30.20
25.13
19.57
14.49
10.84
9.19
9.57
11.47
14.06
16.52
18.29
19.20
19.38
19.12
18.58
17.78
16.49
14.43
11.40
7.45
2.90
-1.76
-5.98
-9.44
-12.05
-14.06
-15.91
-18.12
-21.19
-25.48
-31.03
-37.42
-43.64
-48.18
-49.38
-45.94
-37.44
-24.67
-9.41
6.09
19.80
30.40
37.51
41.43
42.72
41.92
39.42
35.55
30.80
25.90
21.72
18.99
18.06
18.78
20.53
22.50
23.97
24.52
24.14
23.07
21.64
20.09
18.39
16.35
13.69
10.30
6.28
1.95
-2.26
-6.01
-9.18
-11.85
-14.26
-16.69
-19.39
-22.56
-26.42
-31.22
-37.06
-43.60
-49.92
-54.49
-55.63
-52.02
-43.35
-30.51
-15.37
-0.17
13.14
23.40
30.30
34.12
35.43
34.71
32.38
28.84
24.65
20.52
17.23
15.35
15.07
16.13
17.95
19.86
21.33
22.13
22.24
21.77
20.83
19.43
17.55
15.20
12.43
9.31
5.91
2.25
-1.62
-5.60
-9.46
-12.95
-15.87
-18.19
-20.10
-21.97
-24.25
-27.32
-31.46
-36.61
-42.29
-47.50
-50.86
-50.86
-46.47
-37.53
-24.95
-10.51
3.74
16.10
25.61
32.07
35.73
36.98
36.09
33.34
29.14
24.25
19.60
16.12
14.38
14.46
15.92
18.10
20.32
22.13
23.31
23.81
23.62
22.75
21.18
18.98
16.26
13.23
10.05
6.85
3.65
0.43
-2.84
-6.14
-9.41
-12.55
-15.52
-18.30
-21.00
-23.80
-27.03
-31.02
-35.91
-41.39
-46.48
-49.72
-49.50
-44.75
-35.45
-22.73
-8.56
4.96
16.25
24.58
29.98
32.86
33.58
32.36
29.32
24.83
19.55
14.49
10.63
8.62
8.57
10.00
12.12
14.12
15.48
16.04
15.96
15.51
14.90
14.12
13.01
11.29
8.74
5.29
1.05
-3.66
-8.44
-12.86
-16.63
-19.67
-22.11
-24.21
-26.32
-28.78
-31.91
-35.96
-40.97
-46.61
-51.98
-55.68
-56.10
-52.00
-43.07
-30.15
-15.07
-0.06
12.99
22.99
29.69
33.44
34.75
34.00
31.44
27.37
22.32
17.10
12.64
9.76
8.82
9.72
11.84
14.34
16.36
17.29
16.93
15.47
13.38
11.22
9.37
7.89
6.46
4.63
2.00
-1.44
-5.34
-9.13
-12.27
-14.59
-16.25
-17.66
-19.14
-20.90
-23.00
-25.52
-28.55
-32.07
-35.62
-38.12
-38.07
-34.06
-25.41
-12.64
2.62
18.20
32.08
42.98
50.47
54.73
56.07
54.73
50.89
44.89
37.53
29.99
23.58
19.28
17.42
17.56
18.82
20.20
21.02
21.00
20.26
19.04
17.56
15.83
13.73
11.06
7.65
3.47
-1.35
-6.49
-11.55
-16.10
-19.85
-22.72
-24.90
-26.83
-29.11
-32.37
-37.05
-43.18
-50.14
-56.66
-61.04
-61.70
-57.73
-49.32
-37.70
-24.72
-12.24
-1.64
6.36
11.56
13.98
13.76
11.14
6.62
1.04
-4.56
-9.16
-12.08
-13.17
-12.77
-11.52
-10.08
-8.89
-8.06
-7.48
-6.91
-6.27
-5.71
-5.64
-6.54
-8.70
-12.06
-16.17
-20.36
-24.06
-26.97
-29.18
-31.03
-33.00
-35.55
-39.05
-43.68
-49.20
-54.84
-59.22
-60.65
-57.63
-49.49
-36.75
-21.07
-4.79
9.84
21.22
28.61
31.99
31.81
28.75
23.67
17.68
12.09
8.22
6.98
8.59
12.51
17.60
22.51
26.22
28.18
28.43
27.32
25.23
22.27
18.31
13.12
6.65
-0.68
-8.02
-14.26
-18.49
-20.31
-20.06
-18.66
-17.28
-17.04
-18.77
-22.83
-29.12
-36.92
-44.92
-51.26
-54.02
-51.66
-43.64
-30.56
-14.11
3.43
19.80
33.22
42.68
47.94
49.37
47.73
43.98
39.08
33.83
28.87
24.61
21.32
19.04
17.61
16.67
15.74
14.39
12.48
10.22
8.07
6.47
5.59
5.25
4.98
4.32
3.12
1.61
0.36
-0.11
0.40
1.62
2.87
3.27
2.04
-1.27
-6.57
-13.15
-19.68
-24.41
-25.61
-22.09
-13.64
-1.20
13.41
28.05
40.91
50.88
57.59
61.18
62.00
60.43
56.89
52.00
46.59
41.59
37.76
35.45
34.46
34.24
34.07
33.46
32.22
30.46
28.40
26.10
23.45
20.18
16.06
11.07
5.42
-0.46
-6.13
-11.24
-15.67
-19.57
-23.28
-27.25
-31.77
-36.70
-41.31
-44.32
-44.32
-40.26
-31.94
-20.18
-6.61
6.93
18.85
28.22
34.74
38.54
39.94
39.20
36.60
32.50
27.40
22.00
17.09
13.38
11.40
11.26
12.71
15.13
17.72
19.73
20.66
20.32
18.79
16.33
13.27
9.95
6.70
3.77
1.25
-0.94
-3.21
-6.12
-10.32
-16.16
-23.40
-31.04
-37.44
-40.72
-39.41
-32.99
-22.17
-8.71
5.21
17.58
27.14
33.43
36.61
37.14
35.53
32.22
27.73
22.70
17.90
14.02
11.53
10.48
10.51
11.05
11.52
11.57
11.13
10.26
9.03
7.35
4.95
1.60
-2.77
-7.89
-13.25
-18.26
-22.57
-26.13
-29.19
-32.21
-35.68
-39.98
-45.25
-51.25
-57.13
-61.55
-62.85
-59.67
-51.48
-38.91
-23.64
-7.87
6.36
17.77
25.89
30.93
33.29
33.31
31.22
27.32
22.19
16.77
12.14
9.21
8.35
9.29
11.22
13.17
14.40
14.69
14.26
13.58
12.96
12.34
11.31
9.33
6.08
1.65
-3.46
-8.55
-13.01
-16.54
-19.26
-21.56
-23.95
-26.93
-30.85
-35.83
-41.67
-47.69
-52.68
-55.14
-53.60
-47.25
-36.32
-22.10
-6.61
7.99
20.10
28.92
34.41
36.98
37.11
35.25
31.82
27.34
22.51
18.16
15.00
13.47
13.55
14.78
16.44
17.77
18.22
17.67
16.31
14.59
12.89
11.36
9.81
7.82
5.00
1.16
-3.48
-8.43
-13.11
-17.09
-20.24
-22.71
-24.85
-26.99
-29.44
-32.49
-36.40
-41.32
-47.01
-52.54
-56.38
-56.69
-52.04
-42.12
-27.97
-11.72
4.16
17.65
27.70
34.21
37.63
38.55
37.37
34.45
30.22
25.33
20.65
16.95
14.67
13.84
14.08
14.86
15.70
16.34
16.74
16.96
17.02
16.84
16.19
14.81
12.51
9.33
5.57
1.70
-1.79
-4.61
-6.82
-8.85
-11.21
-14.32
-18.19
-22.43
-26.40
-29.55
-31.69
-33.13
-34.57
-36.85
-40.70
-46.36
-53.42
-60.65
-66.20
-68.08
-64.78
-55.87
-42.20
-25.68
-8.64
6.91
19.67
29.17
35.40
38.61
39.01
36.95
32.97
27.91
22.75
18.41
15.48
14.12
14.09
14.92
16.11
17.28
18.27
19.03
19.59
19.93
19.92
19.37
18.13
16.14
13.57
10.73
7.98
5.58
3.62
1.95
0.22
-2.02
-5.07
-9.01
-13.55
-18.18
-22.34
-25.63
-28.00
-29.67
-31.16
-33.03
-35.85
-40.05
-45.75
-52.49
-59.12
-63.88
-64.81
-60.46
-50.47
-35.82
-18.54
-1.02
14.66
27.33
36.61
42.70
45.99
46.80
45.42
42.26
37.94
33.29
29.14
26.11
24.47
24.08
24.53
25.35
26.15
26.80
27.35
27.95
28.63
29.18
29.19
28.20
25.91
22.42
18.17
13.82
9.98
6.95
4.57
2.36
-0.28
-3.76
-8.12
-12.99
-17.81
-22.00
-25.21
-27.48
-29.16
-30.80
-33.05
-36.45
-41.26
-47.24
-53.51
-58.58
-60.62
-58.10
-50.32
-37.77
-22.06
-5.34
10.35
23.63
33.89
41.13
45.53
47.28
46.53
43.55
38.93
33.50
28.19
23.78
20.68
18.91
18.20
18.21
18.64
19.36
20.32
21.50
22.73
23.70
23.96
23.14
21.03
17.77
13.79
9.68
5.94
2.80
0.16
-2.38
-5.31
-8.91
-13.21
-17.91
-22.51
-26.58
-29.86
-32.43
-34.67
-37.16
-40.55
-45.23
-51.04
-57.04
-61.56
-62.59
-58.52
-48.75
-34.05
-16.38
1.76
18.07
31.07
40.18
45.58
47.79
47.37
44.87
40.81
35.84
30.66
25.99
22.37
20.09
19.14
19.29
20.18
21.42
22.69
23.76
24.47
24.74
24.48
23.67
22.29
20.39
18.03
15.31
12.24
8.79
4.87
0.39
-4.62
-10.01
-15.54
-20.92
-25.95
-30.58
-34.93
-39.23
-43.85
-49.12
-55.16
-61.62
-67.46
-71.03
-70.51
-64.56
-53.00
-37.05
-19.00
-1.44
13.52
24.81
32.40
36.84
38.79
38.64
36.54
32.66
27.42
21.53
15.83
11.09
7.77
6.00
5.63
6.34
7.76
9.46
11.01
12.04
12.32
11.81
10.65
9.03
7.10
4.85
2.17
-1.07
-4.89
-9.12
-13.49
-17.70
-21.51
-24.88
-27.86
-30.62
-33.44
-36.65
-40.63
-45.62
-51.42
-57.18
-61.35
-62.08
-57.85
-48.10
-33.63
-16.35
1.30
17.13
29.77
38.72
44.18
46.60
46.38
43.84
39.35
33.44
26.89
20.56
15.26
11.50
9.40
8.74
9.06
9.87
10.78
11.63
12.42
13.19
13.92
14.40
14.26
13.12
10.69
6.98
2.33
-2.69
-7.48
-11.63
-15.07
-18.05
-20.98
-24.26
-28.12
-32.71
-38.07
-44.06
-50.20
-55.47
-58.39
-57.36
-51.32
-40.30
-25.60
-9.38
6.08
19.06
28.85
35.48
39.39
40.85
39.91
36.50
30.85
23.71
16.33
10.11
6.22
5.27
7.15
11.12
16.09
20.90
24.53
26.28
25.81
23.10
18.33
11.81
3.93
-4.80
-13.73
-22.08
-29.05
-34.08
-37.01
-38.27
-38.78
-39.75
-42.24
-46.85
-53.37
-60.71
-67.04
-70.32
-68.87
-61.95
-50.01
-34.52
-17.46
-0.78
14.09
26.29
35.39
41.22
43.75
43.16
40.00
35.25
30.18
26.03
23.69
23.43
24.98
27.67
30.78
33.78
36.45
38.76
40.69
42.13
42.78
42.33
40.63
37.80
34.23
30.44
26.86
23.71
20.96
18.28
15.17
11.01
5.31
-2.01
-10.28
-18.03
-23.23
-23.92
-18.95
-8.49
5.90
21.76
36.51
48.18
55.76
59.11
58.66
54.98
48.71
40.48
31.10
21.55
12.85
5.88
1.15
-1.29
-1.83
-1.16
-0.04
0.87
1.09
0.39
-1.30
-3.90
-7.33
-11.48
-16.17
-21.15
-26.04
-30.39
-33.87
-36.48
-38.68
-41.33
-45.28
-50.84
-57.30
-62.93
-65.36
-62.52
-53.47
-38.90
-20.94
-2.41
14.12
27.08
35.99
41.27
43.64
43.76
42.04
38.82
34.46
29.49
24.51
20.09
16.62
14.24
12.83
12.08
11.52
10.62
8.90
6.07
2.08
-2.97
-8.91
-15.69
-23.33
-31.84
-40.94
-50.06
-58.46
-65.62
-71.61
-77.07
-82.89
-89.56
-96.73
-103.19
-107.41
-108.11
-104.74
-97.32
-86.15
-71.40
-53.28
-32.41
-10.26
10.80
28.10
39.62
44.74
44.46
40.85
36.20
32.20
29.67
28.70
29.08
30.61
33.16
36.47
39.99
42.85
44.14
43.26
40.22
35.63
30.47
25.63
21.56
18.14
14.80
10.79
5.41
-1.72
-10.43
-19.91
-28.67
-34.77
-36.34
-32.19
-22.35
-8.15
8.17
24.12
37.73
47.91
54.39
57.42
57.45
54.94
50.43
44.66
38.51
32.85
28.32
25.20
23.35
22.43
22.03
21.81
21.51
20.91
19.77
17.83
14.91
10.98
6.29
1.27
-3.57
-7.89
-11.62
-14.98
-18.40
-22.40
-27.34
-33.28
-39.80
-45.86
-49.97
-50.48
-46.14
-36.59
-22.65
-6.11
10.78
25.94
38.00
46.44
51.35
53.18
52.46
49.74
45.62
40.82
36.07
32.04
29.12
27.39
26.63
26.43
26.31
25.79
24.51
22.29
19.14
15.31
11.21
7.31
4.02
1.58
0.01
-0.87
-1.43
-2.19
-3.70
-6.54
-11.15
-17.58
-25.27
-32.94
-38.77
-40.90
-38.07
-30.15
-18.28
-4.56
8.72
19.66
27.33
31.74
33.48
33.32
31.85
29.38
26.04
22.03
17.67
13.48
9.98
7.60
6.46
6.41
7.04
7.88
8.53
8.70
8.27
7.19
5.48
3.25
0.72
-1.71
-3.62
-4.73
-5.02
-4.89
-5.02
-6.25
-9.30
-14.50
-21.54
-29.34
-36.16
-40.07
-39.45
-33.71
-23.47
-10.43
3.21
15.49
25.09
31.56
34.95
35.60
33.89
30.28
25.45
20.30
15.78
12.60
10.94
10.44
10.40
10.10
9.12
7.52
5.74
4.27
3.36
2.82
2.02
0.18
-3.26
-8.34
-14.54
-20.95
-26.64
-30.99
-33.84
-35.56
-36.85
-38.58
-41.53
-46.08
-52.05
-58.46
-63.69
-65.88
-63.53
-56.08
-44.17
-29.53
-14.37
-0.73
10.09
17.62
22.07
23.95
23.74
21.85
18.68
14.78
10.85
7.61
5.54
4.74
4.90
5.53
6.22
6.87
7.67
8.89
10.58
12.45
13.88
14.12
12.62
9.14
3.91
-2.53
-9.46
-16.14
-21.96
-26.50
-29.56
-31.21
-31.79
-31.92
-32.38
-33.86
-36.59
-40.05
-42.95
-43.58
-40.48
-33.05
-21.87
-8.48
5.29
18.01
29.03
38.37
46.37
53.13
58.40
61.72
62.82
61.87
59.51
56.62
54.00
52.08
50.91
50.30
49.93
49.57
49.09
48.38
47.32
45.69
43.22
39.60
34.68
28.44
21.10
13.03
4.76
-3.22
-10.46
-16.67
-21.77
-25.84
-29.13
-32.07
-35.15
-38.95
-43.82
-49.72
-55.93
-61.07
-63.35
-61.18
-53.82
-41.71
-26.43
-10.16
5.04
17.73
27.37
34.04
38.10
39.85
39.46
37.06
33.04
28.06
23.05
18.96
16.46
15.80
16.67
18.41
20.21
21.43
21.80
21.40
20.60
19.77
19.08
18.39
17.31
15.38
12.32
8.15
3.27
-1.70
-6.14
-9.70
-12.39
-14.57
-16.79
-19.58
-23.29
-28.08
-33.80
-39.97
-45.70
-49.68
-50.45
-46.82
-38.36
-25.72
-10.55
4.93
18.58
28.92
35.32
37.94
37.32
34.10
28.88
22.25
14.95
7.89
2.04
-1.84
-3.46
-3.11
-1.58
0.17
1.37
1.73
1.40
0.79
0.20
-0.41
-1.45
-3.42
-6.62
-10.96
-15.92
-20.85
-25.20
-28.75
-31.65
-34.25
-37.01
-40.34
-44.62
-50.05
-56.41
-62.88
-68.00
-69.93
-67.08
-58.80
-45.72
-29.67
-13.03
2.03
14.20
23.11
29.05
32.42
33.42
32.07
28.47
23.11
17.01
11.44
7.48
5.58
5.49
6.37
7.34
7.82
7.77
7.56
7.61
8.07
8.67
8.79
7.74
5.07
0.74
-4.89
-11.17
-17.46
-23.24
-28.31
-32.72
-36.76
-40.90
-45.55
-50.87
-56.49
-61.31
-63.67
-61.77
-54.42
-41.54
-24.42
-5.38
12.93
28.39
39.80
46.99
50.45
50.87
48.83
44.71
38.90
31.95
24.76
18.35
13.66
11.18
10.77
11.70
12.96
13.67
13.44
12.46
11.28
10.40
9.89
9.29
7.81
4.75
-0.05
-6.10
-12.43
-18.09
-22.54
-25.87
-28.68
-31.70
-35.49
-40.31
-46.12
-52.67
-59.42
-65.37
-69.03
-68.70
-62.96
-51.39
-34.86
-15.46
4.13
21.47
35.02
44.29
49.63
51.71
51.10
48.21
43.40
37.22
30.54
24.46
20.04
17.92
18.05
19.79
22.12
24.11
25.22
25.46
25.22
24.95
24.84
24.70
24.01
22.24
19.06
14.59
9.28
3.74
-1.52
-6.25
-10.49
-14.43
-18.34
-22.50
-27.24
-32.81
-39.29
-46.20
-52.39
-56.13
-55.60
-49.61
-38.12
-22.41
-4.70
12.59
27.51
38.95
46.60
50.67
51.46
49.32
44.62
38.03
30.54
23.37
17.63
14.04
12.66
12.96
14.13
15.33
16.10
16.36
16.34
16.31
16.39
16.41
15.98
14.68
12.19
8.46
3.69
-1.73
-7.31
-12.61
-17.30
-21.25
-24.51
-27.33
-30.14
-33.44
-37.65
-42.90
-48.78
-54.23
-57.63
-57.24
-51.85
-41.24
-26.39
-9.30
7.74
22.71
34.40
42.39
46.90
48.32
47.02
43.31
37.60
30.59
23.25
16.70
11.85
9.15
8.47
9.21
10.60
11.98
13.01
13.68
14.16
14.55
14.73
14.34
12.95
10.22
6.14
1.02
-4.53
-9.86
-14.45
-18.09
-20.94
-23.41
-26.00
-29.19
-33.34
-38.60
-44.79
-51.25
-56.73
-59.55
-58.06
-51.30
-39.42
-23.79
-6.62
9.80
23.75
34.41
41.71
45.92
47.26
45.86
41.87
35.78
28.50
21.27
15.22
11.13
9.15
8.90
9.70
10.85
11.92
12.76
13.46
14.10
14.61
14.69
13.88
11.75
8.18
3.38
-2.09
-7.53
-12.36
-16.31
-19.43
-22.07
-24.72
-27.87
-31.96
-37.18
-43.32
-49.60
-54.61
-56.64
-54.15
-46.38
-33.77
-17.88
-0.95
14.80
27.75
37.10
42.75
44.97
44.13
40.62
34.98
27.99
20.71
14.19
9.28
6.33
5.16
5.19
5.74
6.29
6.67
6.95
7.24
7.49
7.34
6.31
3.96
0.19
-4.71
-10.14
-15.44
-20.16
-24.23
-27.90
-31.64
-35.96
-41.26
-47.69
-54.98
-62.33
-68.34
-71.28
-69.58
-62.37
-49.95
-33.81
-16.24
0.28
13.75
22.94
27.49
27.70
24.23
17.99
9.97
1.22
-7.28
-14.79
-21.01
-26.17
-30.99
-36.24
-42.32
-48.71
-53.91
-55.87
-52.78
-43.99
-30.42
-14.33
1.56
14.97
24.76
30.88
33.94
34.64
33.42
30.47
25.93
20.10
13.43
6.42
-0.41
-6.43
-10.81
-12.50
-10.45
-4.06
6.47
19.99
34.67
48.47
59.73
67.50
71.58
72.31
70.32
66.32
61.05
55.31
49.98
45.81
43.31
42.56
43.26
44.84
46.72
48.50
50.00
51.13
51.77
51.57
50.04
46.67
41.21
33.82
25.08
15.81
6.82
-1.28
-8.27
-14.26
-19.69
-25.12
-31.08
-37.78
-44.84
-51.22
-55.33
-55.53
-50.74
-40.94
-27.30
-11.86
3.14
15.90
25.41
31.45
34.21
34.05
31.28
26.29
19.68
12.40
5.63
0.41
-2.58
-3.32
-2.31
-0.32
1.93
4.02
5.79
7.21
8.17
8.34
7.33
4.81
0.78
-4.41
-10.06
-15.45
-19.99
-23.51
-26.18
-28.52
-31.19
-34.81
-39.72
-45.83
-52.40
-58.12
-61.32
-60.42
-54.45
-43.48
-28.67
-11.93
4.60
19.13
30.47
38.13
42.06
42.50
39.85
34.76
28.13
21.10
14.82
10.17
7.60
6.96
7.74
9.21
10.76
12.03
12.94
13.60
14.05
14.16
13.60
11.95
8.94
4.64
-0.52
-5.88
-10.81
-14.93
-18.30
-21.27
-24.46
-28.43
-33.58
-39.87
-46.68
-52.80
-56.59
-56.39
-51.11
-40.62
-25.95
-9.00
7.99
23.06
34.92
43.03
47.36
48.15
45.77
40.76
33.93
26.40
19.43
14.08
10.94
9.93
10.45
11.71
13.02
14.06
14.76
15.19
15.29
14.81
13.37
10.67
6.69
1.72
-3.73
-9.10
-13.95
-18.08
-21.56
-24.69
-27.96
-31.98
-37.21
-43.69
-50.75
-56.94
-60.31
-59.04
-52.13
-39.87
-23.88
-6.55
9.72
23.26
33.31
39.90
43.34
43.91
41.68
36.87
30.10
22.56
15.79
11.14
9.30
10.01
12.22
14.64
16.28
16.78
16.40
15.69
15.05
14.45
13.47
11.50
8.13
3.37
-2.34
-8.26
-13.62
-17.93
-21.05
-23.27
-25.21
-27.65
-31.31
-36.64
-43.46
-50.81
-57.00
-59.94
-57.84
-49.83
-36.36
-19.11
-0.50
17.07
31.80
42.79
49.92
53.53
54.06
51.93
47.62
41.80
35.42
29.57
25.24
22.98
22.76
24.05
26.06
28.03
29.45
30.09
29.92
28.97
27.28
24.91
21.94
18.47
14.55
10.23
5.49
0.39
-4.91
-10.17
-15.14
-19.63
-23.60
-27.14
-30.48
-33.92
-37.88
-42.73
-48.65
-55.26
-61.47
-65.53
-65.51
-59.99
-48.71
-32.76
-14.36
3.90
19.82
32.07
40.28
44.71
45.88
44.33
40.62
35.46
29.80
24.70
21.05
19.29
19.35
20.68
22.58
24.44
25.90
26.86
27.29
27.15
26.29
24.53
21.81
18.28
14.29
10.24
6.42
2.89
-0.58
-4.33
-8.61
-13.44
-18.52
-23.38
-27.55
-30.77
-33.08
-34.83
-36.57
-39.00
-42.70
-47.93
-54.38
-60.96
-65.91
-67.23
-63.34
-53.68
-39.07
-21.40
-3.10
13.67
27.47
37.70
44.39
47.79
48.20
45.95
41.57
35.90
30.05
25.17
22.12
21.20
22.11
24.15
26.48
28.45
29.80
30.61
31.13
31.46
31.45
30.69
28.72
25.29
20.58
15.17
9.84
5.28
1.77
-0.90
-3.31
-6.11
-9.68
-13.96
-18.49
-22.63
-25.86
-28.07
-29.53
-30.84
-32.72
-35.80
-40.49
-46.79
-54.17
-61.41
-66.72
-68.15
-64.19
-54.39
-39.63
-21.95
-3.89
12.26
25.05
33.94
39.13
41.11
40.38
37.45
32.87
27.44
22.08
17.74
15.04
14.13
14.67
16.01
17.53
18.84
19.88
20.83
21.84
22.84
23.47
23.24
21.75
18.91
15.03
10.71
6.59
3.08
0.22
-2.32
-5.02
-8.28
-12.24
-16.67
-21.10
-25.02
-28.08
-30.20
-31.65
-32.96
-34.80
-37.86
-42.56
-48.83
-55.88
-62.11
-65.48
-64.09
-56.87
-44.12
-27.43
-9.19
8.18
22.94
34.28
42.11
46.71
48.35
47.27
43.83
38.72
32.96
27.68
23.78
21.60
20.93
21.24
21.97
22.84
23.85
25.16
26.76
28.39
29.49
29.44
27.83
24.67
20.43
15.82
11.51
7.86
4.77
1.78
-1.64
-5.82
-10.70
-15.87
-20.75
-24.86
-28.05
-30.53
-32.73
-35.22
-38.52
-43.01
-48.74
-55.25
-61.50
-65.88
-66.60
-62.30
-52.53
-38.16
-21.02
-3.41
12.63
25.83
35.70
42.37
46.12
47.21
45.88
42.48
37.67
32.33
27.45
23.81
21.81
21.35
22.01
23.18
24.35
25.23
25.73
25.89
25.66
24.96
23.55
21.28
18.13
14.28
10.00
5.58
1.16
-3.28
-7.83
-12.58
-17.46
-22.25
-26.65
-30.34
-33.15
-35.17
-36.85
-38.91
-42.14
-47.04
-53.37
-60.01
-65.06
-66.40
-62.45
-52.78
-38.37
-21.27
-3.94
11.55
23.95
32.95
38.78
41.85
42.47
40.82
37.19
32.15
26.61
21.62
18.05
16.35
16.44
17.78
19.69
21.51
22.80
23.40
23.30
22.57
21.31
19.58
17.42
14.84
11.87
8.53
4.84
0.83
-3.39
-7.66
-11.78
-15.52
-18.69
-21.27
-23.43
-25.53
-28.18
-31.97
-37.33
-44.19
-51.72
-58.37
-62.16
-61.30
-54.84
-43.11
-27.65
-10.71
5.44
19.13
29.54
36.55
40.40
41.46
40.08
36.69
31.92
26.63
21.76
18.10
16.09
15.74
16.74
18.59
20.80
23.01
24.90
26.23
26.73
26.20
24.55
21.90
18.59
14.97
11.33
7.73
4.05
0.15
-3.95
-8.03
-11.81
-15.04
-17.75
-20.20
-22.79
-25.88
-29.74
-34.56
-40.38
-47.02
-53.79
-59.45
-62.27
-60.54
-53.23
-40.52
-23.89
-5.67
11.64
26.11
36.71
43.32
46.36
46.45
44.17
40.11
34.93
29.46
24.60
21.08
19.33
19.31
20.54
22.34
24.10
25.42
26.17
26.41
26.17
25.37
23.85
21.44
18.18
14.30
10.23
6.34
2.80
-0.50
-3.85
-7.53
-11.64
-15.99
-20.23
-24.00
-27.14
-29.81
-32.44
-35.63
-39.84
-45.21
-51.30
-57.03
-60.87
-61.18
-56.80
-47.49
-34.11
-18.40
-2.45
11.90
23.43
31.71
36.82
39.12
38.95
36.71
32.86
28.09
23.19
18.96
15.93
14.30
13.98
14.62
15.83
17.28
18.67
19.80
20.43
20.40
19.60
17.99
15.64
12.72
9.43
6.02
2.64
-0.61
-3.79
-7.05
-10.55
-14.32
-18.24
-22.02
-25.38
-28.13
-30.38
-32.48
-35.03
-38.57
-43.43
-49.39
-55.58
-60.52
-62.44
-59.85
-52.07
-39.54
-23.79
-6.99
8.75
21.89
31.66
37.97
41.13
41.53
39.57
35.72
30.60
25.00
19.86
16.04
14.11
14.26
16.22
19.41
23.13
26.71
29.61
31.47
32.09
31.39
29.43
26.39
22.62
18.54
14.51
10.72
7.13
3.51
-0.37
-4.58
-8.98
-13.27
-17.15
-20.46
-23.26
-25.78
-28.34
-31.33
-35.13
-39.92
-45.49
-51.06
-55.27
-56.41
-53.05
-44.62
-31.80
-16.38
-0.72
12.98
23.36
30.03
33.41
34.27
33.32
31.09
27.91
24.16
20.28
16.82
14.27
12.91
12.75
13.54
14.93
16.51
17.97
19.08
19.69
19.68
18.97
17.56
15.49
12.89
9.95
6.83
3.67
0.50
-2.72
-6.10
-9.70
-13.52
-17.38
-20.99
-24.06
-26.47
-28.37
-30.28
-32.87
-36.75
-42.04
-48.06
-53.43
-56.31
-55.08
-48.92
-38.22
-24.46
-9.69
4.10
15.55
24.06
29.64
32.56
33.15
31.73
28.70
24.70
20.51
16.99
14.73
13.97
14.54
15.99
17.75
19.36
20.51
21.03
20.85
19.97
18.35
16.03
13.07
9.56
5.60
1.24
-3.50
-8.56
-13.76
-18.76
-23.12
-26.50
-28.78
-30.08
-30.85
-31.70
-33.26
-36.07
-40.37
-45.85
-51.56
-55.92
-57.09
-53.50
-44.48
-30.53
-13.33
4.80
21.52
35.10
44.66
50.16
52.12
51.26
48.22
43.44
37.26
30.11
22.68
15.94
10.97
8.57
8.97
11.66
15.63
19.76
23.22
25.74
27.46
28.62
29.26
29.17
27.97
25.42
21.61
16.97
12.06
7.38
3.14
-0.68
-4.23
-7.62
-10.87
-13.97
-16.93
-20.00
-23.64
-28.31
-34.23
-40.96
-47.32
-51.59
-52.06
-47.66
-38.48
-25.78
-11.55
2.17
13.90
23.02
29.55
33.78
35.99
36.25
34.69
31.65
27.82
24.15
21.51
20.45
20.97
22.61
24.68
26.50
27.59
27.72
26.88
25.13
22.60
19.43
15.75
11.70
7.42
3.05
-1.32
-5.57
-9.58
-13.26
-16.54
-19.40
-21.94
-24.34
-26.86
-29.84
-33.62
-38.39
-43.93
-49.45
-53.55
-54.58
-51.15
-42.75
-30.05
-14.80
0.79
14.70
25.63
33.13
37.36
38.70
37.49
34.03
28.77
22.43
16.09
10.84
7.53
6.48
7.35
9.37
11.62
13.41
14.40
14.70
14.63
14.51
14.44
14.18
13.32
11.38
8.13
3.66
-1.57
-6.91
-11.72
-15.64
-18.65
-21.07
-23.40
-26.13
-29.61
-34.01
-39.23
-44.79
-49.79
-52.96
-52.90
-48.56
-39.66
-26.95
-12.05
2.96
16.18
26.37
33.13
36.65
37.48
36.16
33.17
28.96
24.15
19.49
15.76
13.56
13.10
14.12
16.02
18.08
19.70
20.62
20.78
20.29
19.27
17.75
15.75
13.34
10.59
7.57
4.27
0.61
-3.51
-8.02
-12.61
-16.86
-20.36
-22.99
-24.92
-26.61
-28.56
-31.26
-35.03
-40.07
-46.26
-52.98
-58.99
-62.54
-61.88
-55.90
-44.67
-29.60
-12.93
3.01
16.42
26.45
33.07
36.67
37.74
36.73
34.08
30.38
26.40
22.91
20.54
19.51
19.66
20.56
21.73
22.88
23.89
24.77
25.51
25.89
25.58
24.22
21.64
17.99
13.71
9.35
5.34
1.86
-1.28
-4.46
-8.09
-12.36
-17.19
-22.18
-26.80
-30.57
-33.23
-34.89
-36.06
-37.50
-40.07
-44.34
-50.26
-56.94
-62.68
-65.37
-63.18
-55.26
-42.08
-25.37
-7.56
8.98
22.59
32.52
38.82
41.94
42.43
40.84
37.76
33.93
30.22
27.49
26.24
26.54
27.95
29.82
31.53
32.77
33.56
34.08
34.51
34.73
34.43
33.13
30.51
26.52
21.51
16.05
10.81
6.27
2.58
-0.49
-3.40
-6.60
-10.35
-14.58
-18.89
-22.77
-25.80
-27.89
-29.29
-30.57
-32.41
-35.41
-39.89
-45.65
-51.90
-57.30
-60.17
-58.98
-52.84
-41.89
-27.29
-10.95
5.07
19.05
30.00
37.59
42.00
43.61
42.89
40.35
36.64
32.50
28.71
25.95
24.56
24.52
25.48
26.89
28.26
29.29
29.87
30.04
29.80
29.05
27.57
25.13
21.68
17.42
12.80
8.37
4.61
1.67
-0.61
-2.70
-5.11
-8.19
-11.96
-16.12
-20.13
-23.49
-25.94
-27.57
-28.83
-30.37
-32.92
-37.01
-42.79
-49.81
-56.94
-62.52
-64.75
-62.23
-54.48
-42.18
-26.99
-11.04
3.77
16.16
25.63
32.23
36.22
37.86
37.37
35.08
31.56
27.62
24.13
21.78
20.88
21.30
22.60
24.21
25.76
27.16
28.50
29.95
31.41
32.56
32.84
31.73
29.02
24.91
19.95
14.82
10.03
5.76
1.81
-2.25
-6.81
-12.03
-17.75
-23.48
-28.70
-33.01
-36.34
-39.03
-41.64
-44.88
-49.29
-55.07
-61.87
-68.73
-74.06
-76.05
-73.16
-64.76
-51.34
-34.55
-16.65
0.18
14.34
25.07
32.32
36.34
37.51
36.20
32.90
28.32
23.39
19.13
16.32
15.33
15.96
17.61
19.56
21.19
22.21
22.70
22.87
22.89
22.71
22.09
20.70
18.32
15.01
11.09
7.05
3.36
0.28
-2.25
-4.48
-6.82
-9.58
-12.85
-16.43
-19.97
-23.09
-25.57
-27.49
-29.16
-31.06
-33.72
-37.59
-42.92
-49.51
-56.49
-62.31
-65.02
-62.81
-54.77
-41.31
-24.16
-5.86
11.15
25.16
35.51
42.38
46.34
47.89
47.37
45.07
41.43
37.17
33.15
30.16
28.64
28.54
29.44
30.72
31.87
32.64
33.09
33.39
33.62
33.70
33.31
32.05
29.67
26.20
21.95
17.46
13.22
9.51
6.31
3.31
0.08
-3.75
-8.22
-13.07
-17.76
-21.77
-24.85
-27.08
-28.94
-31.07
-34.10
-38.50
-44.37
-51.34
-58.37
-63.89
-66.03
-63.19
-54.63
-40.93
-23.85
-5.85
10.73
24.25
34.07
40.28
43.35
43.78
41.95
38.30
33.41
28.10
23.25
19.59
17.52
17.03
17.79
19.36
21.36
23.60
25.99
28.39
30.48
31.77
31.70
29.97
26.64
22.20
17.40
12.91
9.08
5.78
2.55
-1.13
-5.59
-10.78
-16.34
-21.76
-26.61
-30.70
-34.12
-37.20
-40.43
-44.34
-49.40
-55.77
-63.12
-70.40
-75.96
-77.96
-74.94
-66.45
-53.31
-37.39
-21.00
-6.16
5.85
14.70
20.64
24.12
25.51
25.01
22.87
19.54
15.75
12.40
10.27
9.76
10.75
12.72
15.01
17.08
18.73
19.99
20.98
21.68
21.85
21.10
19.11
15.79
11.34
6.15
0.64
-4.87
-10.23
-15.42
-20.37
-24.96
-28.97
-32.20
-34.60
-36.40
-38.05
-40.19
-43.44
-48.18
-54.29
-60.93
-66.59
-69.39
-67.61
-60.31
-47.76
-31.38
-13.31
4.23
19.59
31.91
41.00
47.08
50.39
51.13
49.55
46.11
41.58
36.94
33.14
30.87
30.37
31.42
33.47
35.87
38.07
39.75
40.85
41.46
41.68
41.58
41.12
40.17
38.57
36.14
32.70
28.14
22.50
16.03
9.14
2.34
-3.89
-9.33
-14.00
-18.22
-22.49
-27.38
-33.27
-40.11
-47.26
-53.44
-57.03
-56.54
-51.20
-41.29
-28.12
-13.64
0.16
11.75
20.30
25.65
28.00
27.73
25.32
21.30
16.36
11.32
6.97
3.88
2.28
2.01
2.60
3.51
4.36
5.01
5.52
6.06
6.70
7.23
7.29
6.39
4.23
0.83
-3.39
-7.77
-11.63
-14.57
-16.55
-17.96
-19.40
-21.50
-24.76
-29.44
-35.38
-42.04
-48.35
-52.93
-54.34
-51.53
-44.26
-33.17
-19.73
-5.76
7.05
17.47
24.92
29.35
31.12
30.72
28.72
25.63
21.97
18.20
14.76
12.03
10.27
9.64
10.13
11.58
13.74
16.24
18.67
20.58
21.55
21.19
19.27
15.83
11.24
6.14
1.30
-2.56
-5.11
-6.52
-7.46
-8.87
-11.70
-16.58
-23.54
-31.90
-40.29
-46.92
-49.97
-48.14
-41.05
-29.51
-15.29
-0.64
12.36
22.33
28.75
31.80
32.00
29.86
25.78
20.09
13.24
5.87
-1.21
-7.29
-11.91
-15.03
-16.95
-18.19
-19.31
-20.68
-22.54
-24.95
-27.96
-31.58
-35.73
-40.27
-44.89
-49.21
-52.95
-56.09
-58.97
-62.23
-66.61
-72.53
-79.79
-87.48
-94.06
-97.81
-97.18
-91.21
-79.67
-63.14
-42.86
-20.64
1.50
21.58
38.07
50.11
57.61
61.09
61.37
59.34
55.71
51.08
45.98
40.91
36.32
32.45
29.30
26.68
24.33
22.15
20.26
18.90
18.14
17.72
16.97
15.06
11.40
6.03
-0.28
-6.29
-10.86
-13.44
-14.37
-14.69
-15.71
-18.53
-23.60
-30.71
-39.04
-47.38
-54.35
-58.58
-59.03
-55.17
-47.16
-35.86
-22.65
-9.02
3.74
14.78
23.77
30.77
36.11
40.18
43.35
45.91
48.18
50.51
53.33
57.11
62.24
68.91
76.96
85.97
95.31
104.31
112.36
118.97
123.76
126.48
127.10
125.75
122.77
118.56
113.47
107.69
101.19
93.82
85.39
75.78
65.04
53.51
41.86
31.07
22.26
16.41
13.96
14.65
17.47
21.02
23.98
25.57
25.65
24.54
22.74
20.53
17.80
14.36
10.23
5.93
2.31
0.21
0.11
2.03
5.55
10.02
14.88
19.89
24.99
30.05
34.65
38.06
39.66
39.06
36.16
31.28
25.11
18.53
12.29
6.78
1.97
-1.78
-4.60
-7.23
-10.83
-16.23
-23.25
-30.58
-36.22
-38.22
-33.91
-22.36
-5.04
14.62
32.92
47.24
56.48
60.48
59.63
56.90
54.71
53.93
54.14
54.99
57.07
61.52
69.01
79.26
94.31
114.88
139.54
165.27
189.44
210.90
229.83
246.34
241.95
206.82
144.95
72.93
7.76
-41.75
-74.78
-94.58
-105.17
-111.79
-114.07
-110.79
-102.18
-90.75
-79.88
-72.72
-69.27
-69.19
-71.61
-73.15
-71.86
-68.61
-66.88
-70.48
-82.21
-101.88
-126.67
-152.09
-172.13
-182.81
-183.19
-175.03
-161.18
-145.85
-131.91
-120.70
-112.43
-106.43
-102.66
-101.50
-103.07
-106.84
-114.15
-125.26
-138.93
-153.09
-166.00
-177.18
-186.88
-195.43
-202.98
-212.93
-227.45
-246.00
-265.81
-283.82
-297.98
-307.08
-310.38
-286.48
-227.56
-143.48
-55.33
19.64
74.77
111.12
132.92
144.68
150.28
149.56
142.43
131.28
120.48
113.91
113.42
118.95
129.55
142.33
152.40
156.58
154.88
149.71
143.76
138.67
134.91
132.30
130.30
126.91
120.87
112.52
103.43
95.21
88.69
84.01
80.81
78.46
75.60
71.20
65.08
57.79
50.02
42.20
34.44
26.63
18.50
9.64
-0.10
-10.36
-20.40
-29.46
-37.15
-43.53
-49.09
-54.51
-60.38
-67.04
-74.55
-82.72
-91.16
-99.23
-106.05
-110.52
-111.58
-108.49
-101.11
-90.04
-76.43
-61.59
-46.69
-32.52
-19.56
-8.08
1.64
9.39
15.03
18.72
20.92
22.25
23.37
24.72
26.43
28.41
30.46
32.40
34.11
35.44
36.26
36.41
35.75
34.22
31.87
28.94
25.71
22.42
19.19
16.07
13.09
10.30
7.72
5.34
3.21
1.27
-0.80
-3.49
-7.27
-12.30
-18.23
-24.15
-28.73
-30.13
-27.02
-19.18
-7.66
5.63
18.66
29.77
37.95
42.80
45.30
46.57
47.21
47.10
45.86
43.47
40.36
37.23
34.71
34.59
38.12
45.17
54.18
63.09
70.46
75.72
79.02
80.79
83.44
89.19
98.82
111.54
125.85
140.63
155.21
169.13
170.00
149.90
109.22
57.29
5.90
-37.24
-69.81
-92.93
-108.80
-118.53
-122.33
-119.59
-110.63
-97.32
-82.39
-68.08
-55.75
-45.51
-38.27
-32.64
-27.19
-21.59
-16.39
-12.30
-9.24
-6.55
-3.05
0.06
2.59
4.32
4.79
3.92
1.93
0.90
0.35
-0.67
-3.28
-7.73
-14.03
-22.62
-32.86
-43.51
-53.11
-60.80
-66.41
-70.40
-73.08
-74.66
-75.19
-73.99
-70.33
-63.63
-53.99
-41.62
-26.72
-9.21
11.58
33.49
52.63
65.10
69.15
67.54
62.94
57.69
53.87
52.89
54.17
56.94
59.61
60.32
57.49
50.54
39.58
25.42
9.28
-6.68
-19.01
-25.15
-24.82
-22.39
-19.22
-15.82
-13.03
-10.14
-7.72
-6.20
-5.71
-5.88
-5.85
-4.44
-1.23
3.45
8.84
13.61
16.57
16.75
13.74
7.93
0.73
-6.41
-12.21
-15.87
-17.47
-17.74
-17.77
-18.52
-20.41
-23.10
-26.20
-29.42
-32.67
-36.11
-39.83
-43.70
-47.31
-49.99
-50.95
-49.79
-46.52
-41.53
-35.53
-29.29
-23.51
-18.70
-15.10
-12.70
-11.40
-11.05
-11.50
-12.65
-14.35
-16.44
-18.82
-21.44
-24.41
-27.95
-32.36
-37.77
-43.97
-50.29
-55.63
-58.69
-58.32
-53.95
-45.73
-34.64
-22.14
-9.77
1.24
10.25
17.17
22.32
26.09
28.70
30.22
30.68
30.22
29.24
28.37
28.21
29.16
31.23
34.05
37.03
39.55
41.08
41.29
40.03
37.29
33.21
28.05
22.18
15.99
9.76
3.58
-2.63
-9.16
-16.38
-24.55
-33.67
-43.31
-52.61
-60.38
-65.31
-66.39
-63.19
-56.10
-46.26
-35.24
-24.57
-15.31
-7.78
-1.66
3.69
8.88
14.26
19.80
25.30
30.44
35.02
38.96
42.34
45.33
48.15
50.99
53.99
57.09
60.02
62.31
63.36
62.56
59.51
54.12
46.74
38.06
28.99
20.38
12.78
6.24
0.37
-5.47
-11.76
-18.50
-25.06
-30.30
-32.95
-32.08
-27.46
-19.73
-10.17
-0.28
8.64
15.80
20.94
24.20
25.90
26.33
25.78
24.50
22.85
21.18
19.77
18.71
17.84
16.88
15.54
13.75
11.69
9.62
7.77
6.15
4.52
2.56
0.06
-3.00
-6.39
-9.78
-12.96
-15.96
-19.05
-22.64
-27.13
-32.68
-39.07
-45.65
-51.44
-55.36
-56.49
-54.41
-49.37
-42.16
-33.93
-25.75
-18.37
-12.12
-7.03
-3.04
-0.14
1.60
2.20
1.83
0.81
-0.46
-1.67
-2.71
-3.60
-4.39
-5.07
-5.57
-5.88
-6.11
-6.45
-7.09
-8.05
-9.25
-10.56
-11.91
-13.37
-14.98
-16.70
-18.32
-19.61
-20.49
-21.07
-21.49
-21.70
-21.21
-19.26
-15.09
-8.35
0.62
10.91
21.35
30.92
39.00
45.37
50.01
52.98
54.30
54.04
52.46
49.94
46.98
44.01
41.27
38.86
36.72
34.75
32.80
30.76
28.50
25.90
22.89
19.48
15.78
11.93
8.12
4.47
1.08
-2.00
-4.72
-7.12
-9.35
-11.72
-14.56
-18.01
-21.82
-25.27
-27.33
-26.97
-23.58
-17.26
-8.78
0.64
9.71
17.45
23.29
27.12
29.07
29.41
28.50
26.73
24.58
22.46
20.72
19.51
18.76
18.33
18.00
17.66
17.25
16.81
16.38
15.95
15.45
14.76
13.72
12.21
10.19
7.76
5.14
2.59
0.34
-1.55
-3.24
-4.98
-7.03
-9.47
-12.04
-14.18
-15.07
-13.90
-10.17
-3.86
4.50
14.03
23.82
33.22
42.01
50.21
57.88
64.82
70.63
74.95
77.72
79.28
80.08
80.28
79.40
76.45
70.51
61.24
49.27
35.92
22.56
10.02
-1.64
-12.85
-24.01
-35.14
-45.83
-55.55
-64.07
-71.55
-78.40
-84.91
-91.08
-96.60
-101.11
-104.47
-106.90
-108.88
-110.80
-112.67
-113.89
-113.32
-109.66
-101.93
-90.06
-74.94
-58.14
-41.46
-26.41
-13.83
-3.96
3.41
8.64
11.93
13.54
13.91
13.80
14.13
15.69
18.73
22.90
27.49
31.47
34.32
36.21
37.87
40.07
43.09
46.45
49.13
50.19
48.40
43.53
36.48
28.89
22.21
17.30
13.73
10.43
6.25
-1.05
-12.76
-28.41
-46.01
-63.06
-77.04
-87.01
-92.80
-94.84
-96.29
-99.92
-106.72
-115.94
-126.16
-135.52
-143.90
-151.24
-157.40
-164.93
-175.59
-188.85
-202.37
-213.69
-220.65
-224.01
-225.18
-207.80
-164.94
-102.45
-35.27
23.36
62.14
87.35
104.53
117.01
126.62
132.59
133.60
130.44
125.42
121.09
119.68
120.34
121.62
122.62
120.97
115.36
106.81
97.17
88.44
82.30
77.92
73.80
68.84
61.04
49.09
33.75
16.17
-2.63
-20.12
-33.55
-42.33
-46.53
-46.90
-44.35
-39.03
-32.12
-24.06
-14.90
-5.06
5.13
15.80
26.94
34.46
42.59
50.14
56.62
61.88
65.67
67.74
68.25
67.63
66.33
65.44
64.72
64.36
64.40
64.55
64.35
63.57
62.33
61.03
60.71
61.42
63.37
66.43
70.01
73.21
75.11
74.88
71.92
66.24
57.71
46.99
35.05
22.91
11.29
0.46
-9.71
-19.46
-28.73
-37.42
-45.12
-51.51
-56.56
-60.53
-63.81
-66.61
-68.88
-70.39
-71.01
-70.78
-70.00
-69.09
-68.40
-68.15
-68.34
-68.79
-69.28
-69.64
-69.84
-70.01
-70.34
-70.87
-71.28
-70.74
-68.12
-62.40
-53.15
-40.85
-26.82
-12.77
-0.28
9.64
16.68
21.00
22.93
22.81
21.07
18.31
15.40
13.34
12.74
13.44
14.54
14.82
13.28
9.62
4.23
-2.09
-8.55
-14.72
-20.62
-26.45
-32.24
-37.76
-42.64
-46.59
-49.65
-51.81
-53.31
-54.49
-55.72
-57.13
-58.60
-59.62
-59.39
-56.93
-50.71
-39.96
-25.11
-7.55
11.07
29.42
46.57
62.06
75.53
88.05
100.07
111.12
120.35
127.47
133.08
138.05
143.35
149.31
157.92
169.88
184.14
198.58
211.59
222.55
231.24
237.82
241.92
245.70
249.89
253.20
253.01
247.44
236.19
219.79
199.71
158.91
92.74
10.23
-71.78
-140.34
-190.41
-221.09
-237.66
-243.54
-241.41
-230.89
-212.89
-189.44
-164.56
-141.46
-121.23
-103.41
-86.52
-70.05
-52.27
-33.37
-15.60
-2.17
5.19
7.06
5.45
2.74
-0.51
-3.76
-7.86
-14.64
-25.95
-42.25
-62.44
-82.49
-97.40
-105.12
-106.07
-102.38
-96.22
-89.01
-81.21
-72.82
-65.27
-58.68
-53.99
-51.61
-51.19
-51.74
-52.07
-51.04
-47.85
-42.30
-34.00
-24.03
-13.66
-3.79
5.17
13.17
20.34
26.80
32.52
37.28
40.42
41.60
40.99
39.18
36.98
35.07
33.91
33.68
34.34
35.42
36.48
37.19
37.31
36.58
34.83
31.95
28.00
23.23
17.87
12.21
6.55
1.18
-3.71
-8.05
-11.86
-15.31
-18.65
-22.21
-26.19
-30.51
-34.72
-38.03
-39.47
-38.21
-33.82
-26.44
-16.70
-5.60
5.83
16.67
26.22
33.99
39.68
43.16
44.56
44.23
42.71
40.63
38.54
36.78
35.39
34.15
32.68
30.63
27.90
24.69
21.40
18.39
15.75
13.20
10.19
6.22
1.13
-4.82
-11.08
-17.06
-22.31
-26.66
-30.09
-32.75
-34.84
-36.73
-38.85
-41.54
-44.82
-48.27
-50.99
-51.98
-50.46
-46.23
-39.77
-32.09
-24.33
-17.47
-12.08
-8.32
-6.05
-5.03
-5.01
-5.78
-7.07
-8.54
-9.84
-10.65
-10.80
-10.27
-9.14
-7.54
-5.54
-3.18
-0.52
2.33
5.12
7.53
9.25
10.03
9.71
8.28
5.84
2.59
-1.20
-5.27
-9.44
-13.64
-17.94
-22.39
-26.97
-31.38
-35.09
-37.37
-37.44
-34.72
-29.01
-20.58
-10.19
1.08
12.04
21.63
29.12
34.21
37.01
38.01
37.97
37.71
37.96
39.15
41.38
44.37
47.61
50.42
52.17
52.44
51.02
48.03
43.79
38.76
33.34
27.80
22.18
16.38
10.29
3.91
-2.56
-8.87
-14.84
-20.47
-25.92
-31.35
-36.84
-42.17
-46.86
-50.22
-51.48
-50.00
-45.49
-38.06
-28.34
-17.23
-5.75
5.26
15.31
24.19
31.88
38.40
43.68
47.64
50.21
51.42
51.44
50.48
48.77
46.51
43.88
41.02
37.99
34.81
31.44
27.94
24.36
20.74
16.98
12.88
8.18
2.68
-3.65
-10.67
-17.98
-25.16
-32.08
-38.87
-45.77
-52.86
-59.93
-66.45
-71.80
-75.04
-75.45
-72.88
-67.75
-60.83
-52.96
-44.88
-37.24
-30.77
-25.46
-21.13
-17.70
-15.19
-13.48
-12.08
-10.27
-7.32
-2.99
3.52
12.55
23.73
36.03
48.38
60.15
71.46
82.95
91.01
93.09
88.71
79.81
68.94
57.49
45.78
33.88
23.72
14.58
6.82
0.98
-2.76
-4.73
-5.39
-4.95
-3.68
-1.55
1.06
4.31
8.12
12.05
15.37
17.55
18.36
17.88
16.31
13.57
10.25
7.02
4.58
3.43
3.90
6.10
9.92
14.98
20.51
25.91
30.62
34.11
36.04
36.42
35.66
34.37
33.23
32.55
32.46
32.74
33.02
32.84
31.80
29.56
25.89
20.63
13.77
5.59
-3.33
-12.14
-19.89
-25.79
-29.35
-30.51
-29.58
-27.14
-23.76
-20.01
-16.34
-13.13
-10.71
-9.29
-8.91
-9.40
-10.40
-11.50
-12.41
-12.96
-13.09
-12.73
-11.72
-9.93
-7.33
-4.09
-0.60
2.73
5.63
8.00
9.79
10.83
10.75
9.13
5.81
1.27
-3.40
-6.80
-7.79
-6.06
-2.20
2.54
6.95
10.37
12.80
14.65
16.19
17.23
17.11
15.20
11.22
5.57
-0.91
-7.33
-13.14
-18.31
-23.11
-27.80
-32.33
-36.35
-39.37
-41.09
-41.54
-41.19
-40.72
-40.80
-41.82
-43.76
-46.28
-48.90
-51.30
-53.48
-55.73
-58.43
-61.67
-65.12
-68.02
-69.45
-68.73
-65.66
-60.71
-54.75
-48.73
-43.32
-38.72
-34.78
-31.23
-28.01
-25.29
-23.41
-22.52
-22.42
-22.55
-22.32
-21.47
-20.31
-19.56
-20.01
-22.04
-25.38
-29.11
-32.10
-33.44
-32.85
-30.77
-28.11
-25.87
-24.70
-24.73
-25.65
-26.89
-27.87
-28.05
-27.03
-24.52
-20.41
-14.81
-8.07
-0.67
6.96
14.55
21.92
28.84
34.91
39.64
42.61
43.79
43.61
42.73
41.83
41.25
41.06
41.14
41.30
41.44
41.49
41.36
41.05
40.75
40.84
41.84
44.18
47.98
52.95
58.40
63.41
67.02
68.37
66.85
62.14
54.34
43.97
32.07
20.07
9.69
2.61
0.06
2.40
8.91
17.86
27.02
34.23
38.01
37.82
34.00
27.47
19.44
11.26
4.35
0.03
-0.65
2.60
8.98
16.42
21.89
22.15
14.90
-0.35
-21.84
-46.02
-68.65
-86.24
-97.14
-101.81
-102.23
-100.74
-99.03
-97.63
-96.13
-93.87
-90.57
-86.59
-82.71
-79.61
-77.51
-76.06
-74.52
-72.21
-68.74
-64.11
-58.47
-51.88
-44.25
-35.42
-25.41
-14.62
-3.93
5.58
12.94
17.66
19.86
20.19
19.58
18.89
18.66
19.03
19.79
20.53
20.87
20.53
19.45
17.70
15.49
13.11
10.82
8.86
7.31
6.12
5.11
4.05
2.72
1.04
-1.00
-3.31
-5.80
-8.46
-11.31
-14.46
-17.86
-21.30
-24.29
-26.10
-25.99
-23.42
-18.32
-11.10
-2.62
6.16
14.34
21.36
26.90
30.89
33.35
34.39
34.22
33.14
31.57
29.90
28.44
27.29
26.41
25.65
24.83
23.84
22.64
21.30
19.94
18.61
17.34
16.02
14.50
12.62
10.32
7.66
4.79
1.89
-0.97
-3.80
-6.77
-10.04
-13.68
-17.53
-21.23
-24.14
-25.55
-24.81
-21.59
-16.02
-8.67
-0.46
7.63
14.80
20.57
24.77
27.42
28.64
28.57
27.42
25.51
23.20
20.89
18.86
17.22
15.96
14.99
14.22
13.61
13.12
12.65
12.02
11.03
9.50
7.40
4.82
1.93
-1.09
-4.12
-7.17
-10.35
-13.92
-18.12
-23.01
-28.34
-33.36
-36.96
-37.90
-35.28
-28.87
-19.26
-7.69
4.30
15.38
24.61
31.57
36.21
38.66
39.14
37.97
35.62
32.66
29.70
27.20
25.36
24.13
23.29
22.59
21.86
21.02
20.03
18.83
17.35
15.51
13.28
10.68
7.77
4.62
1.28
-2.25
-6.00
-10.10
-14.78
-20.28
-26.73
-33.89
-40.91
-46.44
-48.85
-46.86
-40.00
-28.87
-15.04
-0.47
13.03
24.29
32.82
38.68
42.17
43.55
43.06
41.00
37.82
34.19
30.80
28.24
26.80
26.43
26.80
27.46
27.97
28.04
27.53
26.46
24.86
22.80
20.28
17.31
13.93
10.18
6.11
1.67
-3.29
-9.00
-15.53
-22.56
-29.29
-34.44
-36.65
-34.88
-28.77
-18.79
-6.10
7.84
21.57
33.97
44.32
52.28
57.83
61.10
62.35
61.90
60.07
57.18
53.61
49.78
46.16
43.13
40.79
38.93
36.92
34.03
29.74
23.95
17.06
9.83
3.02
-2.90
-8.01
-12.70
-17.51
-22.83
-28.83
-35.45
-42.58
-50.04
-57.51
-64.31
-69.24
-70.88
-67.98
-60.06
-47.78
-32.88
-17.73
-4.50
5.35
11.45
14.26
14.66
13.52
11.49
8.96
6.15
3.28
0.57
-1.79
-3.71
-5.11
-6.02
-6.49
-6.66
-6.70
-6.85
-7.38
-8.53
-10.50
-13.35
-17.07
-21.57
-26.69
-32.24
-38.11
-44.33
-51.09
-58.75
-67.60
-77.58
-88.05
-97.70
-104.77
-107.53
-104.82
-96.44
-83.19
-66.67
-48.67
-30.76
-13.99
1.06
14.24
25.64
35.55
44.42
52.81
61.14
69.59
77.88
85.45
91.65
96.01
98.41
99.02
98.19
96.22
93.32
89.61
85.15
80.05
74.40
68.29
61.75
54.76
47.35
39.55
31.46
23.23
14.98
6.86
-1.01
-8.42
-15.05
-20.44
-24.04
-25.40
-24.26
-20.76
-15.44
-9.10
-2.67
3.08
7.65
10.89
12.91
13.97
14.34
14.26
13.88
13.27
12.49
11.56
10.51
9.34
8.04
6.56
4.86
2.93
0.84
-1.22
-3.03
-4.41
-5.27
-5.70
-5.84
-5.79
-5.57
-5.12
-4.44
-3.72
-3.37
-3.84
-5.33
-7.61
-9.93
-11.36
-11.08
-8.76
-4.61
0.70
6.35
11.70
16.46
20.56
24.15
27.30
29.93
31.89
33.05
33.36
32.88
31.60
29.46
26.46
22.67
18.48
14.45
11.07
8.52
6.39
3.95
0.59
-3.80
-8.62
-12.83
-15.55
-16.53
-16.33
-16.01
-16.50
-18.16
-20.72
-23.52
-25.96
-27.84
-29.42
-31.10
-33.02
-34.91
-36.10
-35.92
-34.07
-30.68
-26.46
-22.22
-18.56
-15.67
-13.26
-10.90
-8.27
-5.36
-2.57
-0.38
0.88
1.27
1.21
1.29
1.95
3.28
4.98
6.54
7.54
7.88
7.77
7.60
7.74
8.31
9.21
10.19
11.08
11.82
12.52
13.29
14.12
14.86
15.33
15.47
15.43
15.47
15.76
16.22
16.52
16.29
15.34
13.85
12.27
11.03
10.32
9.95
9.45
8.40
6.54
3.91
0.65
-3.12
-7.45
-12.49
-18.32
-24.71
-31.13
-36.82
-41.09
-43.58
-44.46
-44.31
-43.93
-44.00
-44.84
-46.37
-48.19
-49.79
-50.71
-50.62
-49.37
-46.97
-43.53
-39.29
-34.48
-29.37
-24.11
-18.80
-13.51
-8.28
-3.19
1.72
6.46
11.01
15.33
19.29
22.66
25.22
26.79
27.33
26.97
25.92
24.42
22.68
20.85
19.02
17.25
15.57
14.00
12.53
11.17
9.92
8.87
8.15
7.93
8.37
9.45
11.00
12.70
14.21
15.31
15.98
16.38
16.71
17.08
17.43
17.58
17.32
16.56
15.33
13.76
11.95
9.97
7.74
5.15
2.09
-1.54
-5.76
-10.58
-15.93
-21.70
-27.62
-33.27
-38.18
-41.90
-44.17
-45.01
-44.73
-43.73
-42.37
-40.83
-39.11
-37.10
-34.73
-32.00
-29.06
-26.08
-23.25
-20.67
-18.43
-16.57
-15.06
-13.84
-12.89
-12.19
-11.78
-11.71
-11.97
-12.41
-12.75
-12.69
-12.06
-10.87
-9.34
-7.78
-6.47
-5.53
-4.89
-4.39
-3.90
-3.37
-2.88
-2.53
-2.27
-1.92
-1.09
0.57
3.22
6.74
10.74
14.78
18.57
22.11
25.56
29.07
32.55
35.68
38.05
39.35
39.59
39.02
38.01
36.84
35.59
34.17
32.40
30.23
27.73
25.10
22.52
20.09
17.74
15.32
12.66
9.71
6.59
3.54
0.87
-1.14
-2.40
-2.99
-3.13
-3.06
-2.96
-2.88
-2.79
-2.59
-2.29
-1.97
-1.84
-2.11
-2.86
-4.01
-5.29
-6.35
-6.84
-6.56
-5.49
-3.76
-1.62
0.71
3.08
5.41
7.66
9.84
11.89
13.73
15.29
16.55
17.63
18.70
19.99
21.63
23.64
25.86
28.05
29.98
31.59
32.96
34.30
35.79
37.48
39.33
41.28
43.35
45.54
47.72
49.49
50.24
49.41
46.77
42.66
37.80
32.99
28.72
24.99
21.51
18.06
14.66
11.56
8.92
6.58
3.97
0.47
-4.19
-9.70
-15.24
-19.90
-23.10
-24.93
-25.95
-26.92
-28.41
-30.59
-33.29
-36.19
-39.05
-41.80
-44.47
-47.04
-49.38
-51.23
-52.33
-52.56
-52.05
-51.20
-50.47
-50.18
-50.48
-51.27
-52.44
-53.97
-56.00
-58.81
-62.60
-67.37
-72.88
-78.63
-84.01
-88.36
-91.15
-92.10
-91.19
-88.73
-85.26
-81.41
-77.84
-75.07
-73.43
-72.96
-73.31
-73.70
-73.00
-70.03
-63.96
-54.66
-42.84
-29.83
-17.15
-6.02
2.88
9.53
14.26
17.57
19.89
21.49
22.51
23.10
23.44
23.77
24.34
25.24
26.41
27.57
28.37
28.56
28.02
26.87
25.32
23.59
21.77
19.78
17.44
14.54
10.99
6.79
2.15
-2.66
-7.35
-11.73
-15.82
-19.86
-24.23
-29.37
-35.56
-42.80
-50.64
-58.27
-64.56
-68.36
-68.72
-65.13
-57.67
-46.94
-33.90
-19.57
-4.87
9.55
23.21
35.75
46.88
56.45
64.52
71.41
77.60
83.59
89.64
95.69
101.39
106.23
109.67
111.27
110.75
108.03
103.28
96.97
89.79
82.55
75.92
70.21
65.28
60.64
55.61
49.71
42.73
34.88
26.63
18.44
10.63
3.24
-3.93
-11.24
-19.02
-27.45
-36.44
-45.50
-53.86
-60.43
-64.14
-64.16
-60.26
-52.92
-43.18
-32.38
-21.79
-12.31
-4.47
1.52
5.63
7.90
8.52
7.85
6.46
4.96
3.86
3.37
3.37
3.47
3.24
2.38
0.90
-0.96
-2.80
-4.33
-5.42
-6.24
-7.11
-8.41
-10.35
-12.98
-16.11
-19.46
-22.69
-25.57
-28.02
-30.16
-32.31
-34.89
-38.28
-42.57
-47.42
-52.00
-55.17
-55.82
-53.28
-47.50
-39.08
-28.96
-18.16
-7.53
2.27
10.69
17.22
21.47
23.26
22.80
20.76
18.06
15.60
13.96
13.27
13.32
13.74
14.33
15.06
16.10
17.59
19.45
21.37
22.85
23.45
22.95
21.40
19.07
16.31
13.42
10.53
7.77
5.22
3.00
1.25
0.06
-0.61
-0.91
-0.96
-0.68
0.38
2.97
7.94
15.88
26.89
40.46
55.60
71.08
85.73
98.60
108.94
116.25
120.16
120.43
117.01
110.12
100.37
88.71
76.31
64.27
53.36
43.85
35.48
27.75
20.17
12.58
5.12
-1.83
-8.04
-13.52
-18.59
-23.66
-29.02
-34.64
-40.18
-45.18
-49.30
-52.52
-55.12
-57.62
-60.48
-63.97
-68.10
-72.58
-76.92
-80.43
-82.30
-81.75
-78.20
-71.50
-62.02
-50.62
-38.45
-26.62
-16.01
-7.15
-0.27
4.62
7.65
9.16
9.65
9.69
9.82
10.35
11.21
12.02
12.31
11.73
10.24
8.13
5.79
3.52
1.36
-0.91
-3.59
-6.90
-10.82
-15.09
-19.42
-23.55
-27.45
-31.27
-35.27
-39.69
-44.73
-50.45
-56.79
-63.48
-70.01
-75.61
-79.38
-80.50
-78.48
-73.37
-65.78
-56.73
-47.42
-38.86
-31.70
-26.19
-22.17
-19.32
-17.25
-15.60
-14.04
-12.19
-9.61
-5.89
-0.77
5.63
12.79
19.93
26.34
31.69
36.22
40.50
45.11
50.18
55.21
59.23
61.30
60.90
58.28
54.30
50.11
46.70
44.65
44.06
44.67
46.15
48.16
50.43
52.74
54.90
56.85
58.73
60.92
63.92
68.10
73.53
79.94
86.80
93.52
99.55
104.28
106.99
106.84
103.24
96.26
86.83
76.65
67.61
61.04
57.24
55.53
54.75
53.84
52.26
49.99
47.29
44.42
41.48
38.45
35.26
31.80
27.92
23.42
18.06
11.73
4.47
-3.49
-11.81
-20.11
-28.03
-35.30
-41.84
-47.79
-53.49
-59.26
-65.11
-70.46
-74.21
-75.15
-72.52
-66.45
-57.98
-48.63
-39.85
-32.45
-26.62
-22.14
-18.83
-16.77
-16.16
-17.06
-19.10
-21.45
-23.18
-23.55
-22.36
-19.94
-16.94
-14.01
-11.53
-9.51
-7.75
-6.04
-4.39
-3.07
-2.56
-3.33
-5.59
-9.20
-13.61
-18.11
-22.04
-25.04
-27.16
-28.77
-30.38
-32.46
-35.30
-38.91
-43.02
-47.03
-50.00
-50.89
-48.75
-43.18
-34.51
-23.86
-12.76
-2.70
5.35
11.10
14.83
16.94
17.78
17.47
16.14
14.08
11.94
10.50
10.35
11.54
13.53
15.45
16.54
16.51
15.64
14.51
13.64
13.09
12.47
11.19
8.81
5.28
1.06
-3.24
-7.11
-10.48
-13.59
-16.84
-20.44
-24.31
-28.13
-31.64
-34.84
-38.03
-41.45
-45.00
-47.96
-49.15
-47.47
-42.41
-34.33
-24.50
-14.49
-5.69
1.19
6.07
9.31
11.29
12.24
12.12
10.86
8.60
5.78
3.04
1.08
0.40
1.17
3.13
5.72
8.30
10.27
11.31
11.35
10.62
9.42
8.02
6.51
4.79
2.67
0.00
-3.17
-6.62
-10.00
-12.99
-15.49
-17.57
-19.53
-21.69
-24.37
-27.79
-32.01
-36.91
-42.12
-46.94
-50.39
-51.42
-49.15
-43.17
-33.82
-22.07
-9.34
2.92
13.54
21.82
27.57
30.93
32.24
31.94
30.50
28.46
26.31
24.54
23.48
23.24
23.76
24.80
26.05
27.17
27.87
27.92
27.21
25.77
23.78
21.55
19.35
17.33
15.36
13.21
10.60
7.43
3.85
0.15
-3.31
-6.34
-8.92
-11.22
-13.47
-15.85
-18.56
-21.79
-25.69
-30.34
-35.49
-40.49
-44.30
-45.69
-43.66
-37.85
-28.72
-17.50
-5.81
4.85
13.49
19.72
23.66
25.68
26.14
25.31
23.44
20.89
18.12
15.65
13.94
13.16
13.25
13.92
14.82
15.70
16.40
16.89
17.18
17.23
16.95
16.23
15.00
13.24
10.98
8.34
5.43
2.38
-0.69
-3.72
-6.65
-9.46
-12.17
-14.81
-17.41
-20.09
-23.01
-26.39
-30.37
-34.79
-39.03
-42.00
-42.42
-39.30
-32.34
-22.21
-10.35
1.48
11.81
19.76
25.18
28.34
29.64
29.33
27.53
24.46
20.49
16.30
12.67
10.26
9.36
9.82
11.12
12.64
13.85
14.49
14.57
14.24
13.67
12.86
11.71
10.02
7.66
4.61
1.07
-2.70
-6.43
-9.93
-13.15
-16.11
-18.84
-21.36
-23.71
-26.08
-28.80
-32.27
-36.67
-41.65
-46.21
-48.89
-48.25
-43.45
-34.63
-22.94
-10.07
2.29
12.90
21.14
26.87
30.18
31.18
30.06
27.10
22.86
18.11
13.70
10.38
8.58
8.40
9.53
11.44
13.54
15.35
16.65
17.54
18.23
18.90
19.42
19.44
18.45
16.11
12.47
7.99
3.39
-0.68
-3.94
-6.51
-8.80
-11.35
-14.60
-18.79
-23.93
-29.79
-35.78
-40.92
-43.97
-43.71
-39.41
-31.11
-19.75
-6.89
5.82
17.01
25.88
32.09
35.66
36.70
35.45
32.29
27.83
22.82
18.02
14.09
11.40
10.02
9.75
10.15
10.75
11.11
11.09
10.76
10.42
10.27
10.30
10.15
9.28
7.29
4.08
0.04
-4.19
-7.97
-10.99
-13.32
-15.39
-17.73
-20.80
-24.82
-29.67
-34.90
-39.67
-42.91
-43.42
-40.29
-33.22
-22.74
-10.12
2.95
14.90
24.63
31.64
35.92
37.72
37.31
34.98
31.17
26.45
21.59
17.37
14.36
12.76
12.31
12.53
12.91
13.14
13.23
13.36
13.75
14.39
14.96
14.89
13.63
10.89
6.80
1.86
-3.23
-7.86
-11.67
-14.68
-17.23
-19.83
-23.06
-27.36
-32.83
-39.05
-44.99
-49.13
-49.92
-46.26
-38.03
-26.18
-12.47
1.09
12.89
22.01
28.28
31.92
33.30
32.69
30.37
26.76
22.50
18.37
15.07
12.98
12.07
11.97
12.22
12.41
12.36
12.11
11.78
11.41
10.85
9.80
7.90
4.99
1.24
-2.83
-6.55
-9.41
-11.31
-12.64
-14.16
-16.71
-20.85
-26.59
-33.24
-39.58
-44.05
-45.16
-41.92
-34.21
-22.89
-9.64
3.59
15.05
23.61
28.94
31.29
31.27
29.44
26.27
22.25
17.88
13.71
10.21
7.78
6.63
6.81
8.08
9.97
12.00
13.68
14.54
14.18
12.58
10.08
7.31
4.77
2.45
0.24
-2.14
-5.08
-8.85
-13.39
-18.33
-23.20
-27.68
-31.99
-35.71
-38.05
-38.19
-35.78
-31.16
-25.22
-19.04
-13.39
-8.66
-3.59
3.73
14.56
27.05
36.91
39.69
34.04
24.97
15.32
7.33
2.62
1.40
3.90
10.13
20.13
33.95
51.18
70.20
89.18
106.02
118.52
125.13
125.44
120.33
111.49
100.59
88.41
75.79
63.78
53.91
48.16
48.47
55.93
70.15
88.84
108.21
124.64
135.65
140.43
139.81
135.75
130.64
126.63
125.09
126.01
128.14
129.17
126.32
117.37
101.60
80.29
56.33
33.09
13.28
-1.75
-12.08
-18.60
-22.37
-24.24
-24.96
-25.39
-26.58
-29.52
-34.57
-41.20
-48.10
-53.67
-56.76
-57.18
-55.72
-53.86
-53.09
-54.38
-57.90
-63.07
-68.89
-74.44
-79.16
-82.91
-85.83
-88.05
-89.49
-89.86
-88.82
-86.24
-82.34
-77.72
-73.12
-69.27
-66.61
-65.37
-65.56
-67.07
-69.75
-73.32
-77.44
-81.68
-85.65
-89.14
-92.16
-94.96
-97.89
-101.24
-105.10
-109.28
-113.35
-116.76
-118.99
-119.67
-118.69
-116.16
-112.44
-107.92
-102.89
-97.44
-91.46
-84.74
-77.14
-68.81
-60.18
-51.88
-44.58
-38.73
-34.43
-31.39
-29.07
-26.73
-23.74
-19.55
-13.88
-6.70
1.70
10.80
19.83
27.91
34.20
38.08
39.39
38.45
36.03
33.12
30.65
29.14
28.66
28.89
29.27
29.25
28.51
26.97
24.80
22.29
19.77
17.47
15.55
14.00
12.75
11.63
10.45
8.98
7.06
4.55
1.46
-2.11
-5.96
-9.95
-14.11
-18.68
-24.02
-30.41
-37.85
-45.82
-53.39
-59.53
-63.50
-65.16
-65.05
-64.21
-63.73
-64.40
-66.40
-69.45
-73.08
-76.94
-81.02
-85.63
-91.20
-98.03
-106.22
-115.66
-126.01
-136.75
-147.22
-156.64
-164.24
-169.45
-171.99
-172.06
-170.19
-167.06
-163.29
-159.12
-154.43
-148.74
-141.54
-132.59
-122.23
-111.45
-101.63
-94.09
-89.53
-87.71
-87.40
-86.81
-84.13
-77.89
-67.22
-51.92
-32.26
-8.98
16.87
43.81
70.26
94.71
115.95
133.45
147.48
158.96
169.27
179.62
190.60
201.69
211.21
216.71
215.88
207.60
192.85
174.77
157.95
146.99
144.84
151.78
165.37
181.35
195.27
203.83
205.65
201.04
191.29
177.83
161.88
144.55
126.98
109.95
93.41
76.12
56.17
32.42
6.11
-18.56
-35.67
-40.23
-30.80
-10.53
14.16
36.53
52.35
61.09
65.01
66.94
68.44
69.20
67.98
63.96
57.62
50.43
44.04
39.35
36.12
33.44
30.38
26.66
22.73
19.55
17.98
18.26
19.79
21.27
21.25
18.68
13.41
6.15
-1.83
-9.38
-15.95
-21.81
-27.83
-35.00
-44.01
-54.86
-66.95
-79.12
-89.88
-97.62
-100.93
-98.93
-91.52
-79.56
-64.63
-48.67
-33.46
-20.30
-9.83
-2.15
3.08
6.42
8.52
10.05
11.51
13.16
15.04
16.94
18.58
19.69
20.16
20.05
19.53
18.82
18.07
17.26
16.19
14.60
12.27
9.18
5.54
1.67
-2.11
-5.64
-9.01
-12.54
-16.66
-21.84
-28.38
-36.20
-44.65
-52.41
-57.70
-58.68
-54.08
-43.66
-28.46
-10.52
7.74
24.09
37.10
46.23
51.82
54.51
54.86
53.24
49.99
45.57
40.58
35.72
31.57
28.62
26.96
26.33
26.16
25.88
25.09
23.51
21.10
17.88
14.35
10.91
7.64
4.42
1.07
-2.43
-6.11
-10.18
-15.04
-20.15
-25.16
-29.93
-34.18
-36.79
-35.94
-29.88
-17.95
-0.97
21.02
46.52
72.49
95.37
112.85
124.57
131.40
134.61
135.23
137.31
143.26
152.53
162.35
170.13
174.84
176.69
176.34
174.58
176.58
185.80
202.03
221.78
241.21
257.89
270.70
279.43
257.12
193.40
99.93
2.22
-80.37
-142.60
-188.07
-222.23
-248.64
-268.26
-276.22
-270.43
-252.61
-228.19
-202.86
-180.30
-162.36
-150.32
-144.38
-140.51
-135.53
-128.90
-122.52
-118.12
-115.84
-114.58
-112.98
-110.06
-103.53
-92.78
-78.91
-64.55
-52.00
-42.26
-35.19
-30.15
-26.41
-22.93
-18.98
-14.66
-10.90
-8.38
-7.02
-6.19
-5.07
-3.15
-0.19
3.41
6.70
8.60
8.53
6.93
4.29
1.54
-0.35
-0.50
1.66
6.15
12.25
18.66
23.88
26.60
26.35
23.51
19.13
14.44
10.31
6.95
4.13
1.47
-1.27
-3.93
-6.16
-7.63
-8.09
-7.56
-6.26
-4.55
-2.75
-1.12
0.21
1.11
1.46
1.08
-0.16
-2.38
-5.53
-9.43
-13.78
-18.16
-22.22
-25.73
-28.66
-31.22
-33.79
-36.82
-40.59
-45.07
-49.73
-53.55
-55.19
-53.31
-47.00
-36.12
-21.45
-4.53
12.69
28.49
41.70
51.95
59.41
64.49
67.46
68.32
66.95
63.33
57.78
51.00
43.87
37.20
31.53
27.11
23.92
21.85
20.80
20.63
21.23
22.40
23.94
25.67
27.40
29.04
30.52
31.86
33.11
34.30
35.43
36.31
36.61
35.87
33.63
29.55
23.49
15.59
6.25
-4.01
-14.56
-24.81
-34.26
-42.55
-49.41
-54.64
-58.09
-59.72
-59.64
-58.27
-56.23
-54.24
-52.83
-52.19
-52.05
-51.87
-51.03
-49.12
-46.12
-42.34
-38.28
-34.37
-30.83
-27.58
-24.30
-20.66
-16.47
-11.85
-7.13
-2.79
0.79
3.44
5.16
6.05
6.16
5.40
3.60
0.62
-3.61
-8.98
-15.28
-22.12
-29.02
-35.31
-40.24
-43.03
-43.09
-40.21
-34.63
-27.01
-18.34
-9.74
-2.30
3.20
6.37
7.41
7.07
6.38
6.43
8.00
11.43
16.48
22.53
28.75
34.32
38.59
41.21
42.17
41.69
40.16
38.02
35.69
33.43
31.38
29.55
27.79
25.90
23.65
20.90
17.62
13.81
9.47
4.52
-1.11
-7.25
-13.25
-17.97
-20.04
-18.36
-12.65
-3.62
7.17
17.94
27.27
34.54
39.86
43.70
46.50
48.36
49.17
48.77
47.31
45.26
43.31
42.06
41.75
42.18
42.82
43.11
42.68
41.47
39.60
37.21
34.32
30.80
26.53
21.61
16.39
11.42
7.30
4.35
2.61
1.84
1.71
1.97
2.48
3.17
3.94
4.55
4.80
4.62
4.24
4.13
4.74
6.18
7.90
8.69
6.93
1.26
-9.00
-23.44
-40.69
-58.90
-76.22
-91.31
-103.41
-112.21
-117.56
-119.30
-117.30
-111.66
-102.91
-92.11
-80.60
-69.57
-59.79
-51.37
-44.04
-37.40
-31.38
-26.33
-22.81
-21.32
-21.84
-23.84
-26.38
-28.58
-29.86
-30.20
-30.06
-30.05
-30.75
-32.53
-35.47
-39.38
-43.72
-47.67
-50.17
-50.17
-47.00
-40.61
-31.60
-21.01
-9.90
0.95
11.20
20.70
29.33
36.76
42.50
46.15
47.68
47.53
46.47
45.35
44.73
44.73
45.08
45.28
44.92
43.80
41.97
39.66
37.10
34.43
31.61
28.51
25.02
21.09
16.86
12.53
8.28
4.20
0.28
-3.55
-7.34
-11.12
-14.94
-18.92
-23.28
-28.18
-33.59
-39.10
-43.95
-47.27
-48.34
-46.88
-43.06
-37.41
-30.55
-23.02
-15.27
-7.66
-0.64
5.39
10.08
13.41
15.63
17.34
19.14
21.46
24.40
27.69
30.93
33.77
36.04
37.73
38.94
39.73
40.09
39.95
39.28
38.12
36.58
34.75
32.70
30.43
27.92
25.17
22.25
19.23
16.27
13.49
11.01
8.87
7.01
5.31
3.54
1.56
-0.61
-2.73
-4.37
-5.05
-4.41
-2.43
0.65
4.33
8.13
11.65
14.74
17.37
19.52
21.15
22.14
22.36
21.72
20.31
18.35
16.22
14.31
12.98
12.39
12.52
13.18
14.04
14.83
15.38
15.64
15.66
15.47
15.03
14.28
13.17
11.78
10.23
8.68
7.16
5.58
3.78
1.60
-0.98
-3.82
-6.73
-9.55
-12.19
-14.68
-17.10
-19.56
-22.03
-24.38
-26.34
-27.56
-27.72
-26.62
-24.25
-20.77
-16.45
-11.64
-6.68
-1.97
2.11
5.18
7.03
7.67
7.35
6.53
5.67
5.15
5.14
5.61
6.47
7.58
8.74
9.77
10.45
10.61
10.17
9.20
7.94
6.64
5.49
4.47
3.38
1.91
-0.19
-3.01
-6.42
-10.15
-13.87
-17.27
-20.16
-22.49
-24.30
-25.84
-27.41
-29.29
-31.59
-34.11
-36.31
-37.48
-36.96
-34.45
-30.10
-24.41
-18.09
-11.78
-5.92
-0.80
3.42
6.57
8.58
9.45
9.36
8.66
7.71
6.86
6.27
5.96
5.87
5.94
6.16
6.59
7.31
8.31
9.50
10.68
11.67
12.34
12.72
12.91
13.03
13.11
13.04
12.66
11.87
10.65
9.12
7.39
5.50
3.42
1.08
-1.54
-4.27
-6.96
-9.44
-11.72
-13.92
-16.13
-18.27
-19.97
-20.74
-20.10
-17.90
-14.45
-10.34
-6.30
-2.86
-0.20
1.82
3.43
4.85
6.02
6.80
7.09
7.01
6.89
7.09
7.81
8.94
10.00
10.45
9.94
8.54
6.69
5.01
3.95
3.64
3.75
3.79
3.31
2.17
0.57
-1.10
-2.47
-3.40
-4.05
-4.73
-5.75
-7.23
-9.07
-11.01
-12.81
-14.33
-15.61
-16.87
-18.37
-20.29
-22.66
-25.27
-27.78
-29.75
-30.77
-30.60
-29.16
-26.56
-23.04
-18.94
-14.59
-10.28
-6.23
-2.57
0.63
3.35
5.53
7.17
8.27
8.95
9.36
9.69
10.10
10.65
11.31
12.02
12.77
13.59
14.49
15.40
16.13
16.45
16.20
15.45
14.43
13.46
12.76
12.31
11.91
11.26
10.19
8.70
6.94
5.07
3.20
1.32
-0.60
-2.56
-4.54
-6.55
-8.63
-10.88
-13.36
-15.93
-18.28
-19.88
-20.24
-19.05
-16.33
-12.40
-7.85
-3.28
0.79
4.04
6.32
7.62
8.00
7.59
6.55
5.11
3.56
2.20
1.33
1.09
1.50
2.42
3.63
4.90
6.03
6.85
7.25
7.20
6.67
5.78
4.67
3.53
2.53
1.73
1.18
0.82
0.57
0.32
-0.08
-0.76
-1.82
-3.31
-5.16
-7.22
-9.36
-11.47
-13.54
-15.60
-17.61
-19.38
-20.58
-20.77
-19.52
-16.65
-12.27
-6.81
-0.91
4.77
9.65
13.42
15.92
17.19
17.40
16.79
15.71
14.53
13.57
13.04
12.97
13.25
13.67
14.02
14.18
14.08
13.72
13.13
12.35
11.44
10.49
9.54
8.64
7.79
6.91
5.92
4.72
3.24
1.45
-0.64
-2.98
-5.42
-7.83
-10.04
-11.95
-13.57
-15.11
-16.89
-19.26
-22.38
-26.05
-29.63
-32.20
-32.81
-30.88
-26.39
-19.92
-12.37
-4.66
2.55
8.90
14.24
18.46
21.35
22.76
22.72
21.51
19.67
17.81
16.41
15.70
15.61
15.97
16.56
17.23
17.83
18.20
18.19
17.69
16.70
15.40
13.96
12.54
11.11
9.54
7.68
5.44
2.91
0.32
-2.12
-4.26
-6.11
-7.79
-9.49
-11.36
-13.57
-16.23
-19.44
-23.18
-27.19
-30.86
-33.34
-33.70
-31.29
-26.03
-18.52
-9.90
-1.45
5.77
11.22
14.90
17.10
18.21
18.47
17.99
16.83
15.16
13.26
11.48
10.14
9.38
9.13
9.15
9.17
9.01
8.62
8.10
7.61
7.24
6.93
6.54
5.84
4.63
2.84
0.55
-2.11
-4.92
-7.70
-10.31
-12.69
-14.84
-16.80
-18.65
-20.56
-22.74
-25.45
-28.88
-32.94
-37.06
-40.27
-41.36
-39.35
-33.91
-25.49
-15.24
-4.57
5.30
13.65
20.24
25.13
28.47
30.29
30.63
29.63
27.64
25.26
23.09
21.67
21.21
21.63
22.59
23.70
24.61
25.14
25.30
25.13
24.66
23.84
22.59
20.83
18.58
15.94
13.08
10.16
7.24
4.35
1.47
-1.38
-4.16
-6.77
-9.17
-11.37
-13.48
-15.71
-18.34
-21.61
-25.58
-30.02
-34.32
-37.60
-38.88
-37.39
-32.88
-25.71
-16.75
-7.14
2.11
10.24
16.88
21.92
25.41
27.41
28.07
27.57
26.24
24.48
22.68
21.17
20.08
19.41
19.06
18.93
18.96
19.08
19.18
19.08
18.57
17.49
15.78
13.61
11.21
8.84
6.61
4.47
2.28
-0.11
-2.78
-5.62
-8.41
-10.92
-12.96
-14.50
-15.68
-16.78
-18.16
-20.10
-22.71
-25.84
-29.01
-31.54
-32.67
-31.76
-28.50
-22.95
-15.56
-7.13
1.39
9.04
15.11
19.21
21.36
21.90
21.32
20.08
18.53
16.86
15.20
13.71
12.59
12.01
12.06
12.66
13.59
14.52
15.13
15.17
14.56
13.35
11.72
9.90
8.04
6.21
4.36
2.36
0.14
-2.31
-4.93
-7.63
-10.33
-12.95
-15.45
-17.74
-19.77
-21.53
-23.18
-25.01
-27.39
-30.50
-34.09
-37.43
-39.42
-38.99
-35.48
-29.03
-20.49
-11.11
-2.10
5.75
12.19
17.28
21.11
23.67
24.79
24.40
22.74
20.35
17.95
16.12
15.10
14.82
14.99
15.37
15.86
16.47
17.21
17.94
18.39
18.28
17.44
15.99
14.22
12.46
10.89
9.38
7.59
5.15
1.92
-1.90
-5.80
-9.19
-11.70
-13.40
-14.74
-16.30
-18.51
-21.50
-25.13
-29.06
-32.94
-36.36
-38.81
-39.61
-38.06
-33.70
-26.60
-17.49
-7.58
1.79
9.55
15.17
18.71
20.54
21.18
20.99
20.21
18.90
17.21
15.32
13.55
12.21
11.49
11.40
11.78
12.36
12.88
13.18
13.15
12.79
12.12
11.19
10.05
8.73
7.22
5.50
3.54
1.31
-1.15
-3.72
-6.28
-8.68
-10.85
-12.79
-14.60
-16.43
-18.50
-20.97
-23.93
-27.28
-30.64
-33.36
-34.67
-33.92
-30.75
-25.32
-18.23
-10.36
-2.66
4.12
9.48
13.23
15.42
16.20
15.82
14.57
12.80
10.87
9.15
7.94
7.42
7.64
8.51
9.77
11.10
12.16
12.70
12.65
12.10
11.23
10.23
9.21
8.12
6.80
5.03
2.70
-0.10
-3.15
-6.11
-8.77
-11.07
-13.19
-15.37
-17.85
-20.76
-24.15
-27.95
-31.98
-35.84
-38.91
-40.36
-39.40
-35.55
-28.94
-20.29
-10.74
-1.53
6.39
12.48
16.64
19.02
19.91
19.63
18.46
16.78
14.96
13.37
12.28
11.87
12.08
12.74
13.60
14.43
15.09
15.51
15.68
15.58
15.19
14.50
13.51
12.23
10.62
8.61
6.11
3.10
-0.29
-3.76
-7.00
-9.75
-11.98
-13.91
-15.88
-18.27
-21.31
-24.99
-29.07
-33.05
-36.24
-37.87
-37.30
-34.15
-28.52
-20.97
-12.40
-3.77
4.10
10.71
15.88
19.63
22.05
23.18
23.04
21.77
19.66
17.21
15.00
13.51
12.97
13.26
13.99
14.66
14.89
14.52
13.70
12.74
11.94
11.43
11.01
10.34
9.01
6.82
3.86
0.50
-2.77
-5.58
-7.84
-9.71
-11.45
-13.36
-15.59
-18.23
-21.33
-24.86
-28.69
-32.41
-35.31
-36.50
-35.20
-31.06
-24.32
-15.79
-6.60
2.14
9.58
15.27
19.12
21.24
21.88
21.38
20.12
18.54
17.07
16.04
15.64
15.81
16.34
16.86
17.03
16.61
15.60
14.22
12.78
11.52
10.47
9.44
8.13
6.30
3.88
1.07
-1.77
-4.30
-6.26
-7.62
-8.45
-9.00
-9.55
-10.46
-12.09
-14.62
-17.94
-21.48
-24.27
-25.22
-23.43
-18.57
-10.97
-1.48
8.78
18.80
27.80
35.34
41.17
45.20
47.48
48.24
47.87
46.91
45.83
45.01
44.55
44.37
44.30
44.18
43.96
43.71
43.58
43.67
43.98
44.38
44.65
44.50
43.68
42.06
39.60
36.42
32.72
28.71
24.59
20.45
16.30
12.08
7.68
2.94
-2.29
-8.19
-14.85
-22.13
-29.55
-36.36
-41.73
-45.01
-46.01
-45.09
-43.03
-40.73
-38.93
-37.99
-37.84
-38.18
-38.63
-38.95
-39.06
-38.99
-38.72
-38.11
-36.94
-35.03
-32.40
-29.27
-25.97
-22.75
-19.63
-16.52
-13.35
-10.44
-8.49
-8.43
-10.94
-15.95
-22.54
-29.08
-33.91
-35.89
-34.76
-31.06
-25.66
-19.37
-12.66
-5.80
0.90
6.87
11.37
13.71
13.73
11.94
9.52
7.96
8.48
11.61
16.95
23.33
29.23
33.40
35.26
35.05
33.51
