1553115946.00
64.000000
-0.00
-0.00
-0.00
-0.00
-0.00
-0.00
-0.00
-0.00
-0.00
-0.00
0.00
0.01
0.01
-0.00
-0.03
-0.05
-0.05
0.00
0.13
0.36
0.66
1.01
1.37
1.72
2.06
2.40
2.79
3.24
3.80
4.42
5.06
5.67
6.22
6.72
7.21
7.79
8.49
9.43
10.51
11.64
12.70
13.64
14.50
15.44
16.68
18.35
20.70
23.52
26.56
29.51
32.20
34.72
37.37
40.59
44.70
50.11
56.45
63.23
69.85
75.97
81.65
87.36
93.83
101.61
111.27
122.32
133.97
145.35
155.88
165.57
175.04
185.65
196.14
208.84
224.36
242.85
263.10
282.16
295.67
298.94
288.63
263.91
227.24
182.52
134.10
85.23
37.40
-9.21
-54.81
-99.11
-141.24
-179.73
-213.71
-242.69
-266.42
-284.57
-296.49
-301.80
-300.09
-291.43
-276.37
-256.37
-233.25
-208.85
-184.60
-161.44
-139.67
-119.12
-99.57
-80.84
-63.22
-47.21
-33.36
-21.68
-12.05
-4.15
2.47
8.23
13.42
18.06
22.11
25.39
27.80
29.29
29.90
29.80
29.16
28.15
26.91
25.49
23.97
22.42
20.86
19.31
17.81
16.36
15.01
13.69
12.39
11.09
9.78
8.41
6.97
5.45
3.90
2.34
0.81
-0.62
-1.92
-3.05
-4.05
-4.94
-5.71
-6.41
-7.08
-7.71
-8.32
-8.88
-9.42
-9.92
-10.33
-10.67
-10.93
-11.08
-11.12
-11.05
-10.92
-10.76
-10.55
-10.35
-10.15
-9.95
-9.75
-9.53
-9.31
-9.08
-8.79
-8.45
-8.07
-7.62
-7.12
-6.60
-6.10
-5.69
-5.36
-5.19
-5.21
-5.42
-5.83
-6.42
-7.18
-8.07
-8.99
-9.89
-10.73
-11.42
-11.92
-12.20
-12.29
-12.20
-11.91
-11.49
-10.97
-10.36
-9.68
-8.97
-8.23
-7.50
-6.75
-6.00
-5.24
-4.46
-3.65
-2.82
-1.98
-1.15
-0.29
0.56
1.42
2.28
3.19
4.12
5.07
6.03
7.04
8.07
9.12
10.23
11.42
12.69
14.04
15.43
16.86
18.19
19.31
20.10
20.44
20.19
19.18
17.28
14.40
10.46
5.49
-0.31
-6.63
-13.10
-19.35
-25.08
-30.05
-34.22
-37.59
-40.18
-41.96
-42.93
-43.04
-42.30
-40.72
-38.54
-36.03
-33.45
-30.97
-28.63
-26.28
-23.70
-20.62
-17.08
-13.32
-9.83
-7.13
-5.51
-4.89
-4.75
-4.31
-3.05
-0.92
1.53
3.31
3.40
1.37
-2.38
-6.67
-10.27
-12.45
-13.60
-15.21
-19.10
-26.55
-37.51
-50.58
-64.22
-77.89
-92.74
-110.73
-132.80
-157.34
-180.23
-196.60
-203.69
-202.36
-196.36
-189.46
-182.47
-172.69
-156.13
-131.14
-101.13
-73.56
-56.07
-51.60
-56.21
-61.17
-58.13
-44.02
-23.09
-4.15
4.81
1.44
-9.10
-17.50
-15.84
-2.27
17.63
34.29
39.62
31.83
16.72
4.18
2.32
12.93
30.20
44.19
46.64
35.79
17.88
3.34
0.82
12.10
30.76
45.86
48.13
35.45
14.59
-2.77
-6.71
5.14
25.91
43.49
47.45
35.09
13.42
-5.17
-10.10
1.33
22.26
40.38
45.07
33.54
12.66
-5.36
-10.15
0.80
20.56
36.98
39.81
26.73
5.05
-12.76
-16.36
-3.47
18.53
37.09
41.60
29.62
8.41
-9.51
-13.72
-1.96
18.46
35.09
37.56
23.79
1.50
-16.40
-19.32
-5.08
18.55
38.44
43.47
30.90
8.03
-12.29
-19.08
-9.50
9.73
26.44
30.40
19.27
0.11
-15.12
-16.80
-3.30
17.93
35.01
38.61
27.40
8.79
-5.85
-8.08
2.75
19.16
30.32
28.68
14.50
-3.83
-15.01
-11.50
5.90
28.03
42.43
40.29
21.74
-3.95
-23.31
-26.21
-11.66
11.75
30.90
35.59
24.52
5.31
-10.40
-14.06
-5.00
9.83
20.80
21.60
13.02
1.97
-3.43
1.12
13.48
26.40
32.17
27.11
13.82
-0.39
-7.74
-4.50
6.98
19.42
24.87
19.06
4.13
-12.88
-23.96
-24.55
-16.20
-5.36
0.75
-1.78
-10.80
-20.01
-22.72
-15.93
-2.14
12.06
20.05
18.80
10.99
3.00
0.98
7.34
19.10
29.61
32.47
25.16
10.77
-4.03
-12.67
-12.29
-5.26
2.32
4.35
-1.86
-13.90
-26.00
-32.38
-30.39
-21.97
-12.31
-6.54
-6.95
-11.55
-15.63
-14.78
-7.52
3.72
13.88
18.39
15.67
8.54
2.60
2.96
11.24
24.44
36.05
39.57
32.02
16.15
-0.51
-9.44
-5.57
9.55
27.95
39.07
35.24
16.44
-9.30
-29.92
-35.72
-24.92
-4.71
12.98
18.32
9.45
-6.66
-18.86
-18.84
-6.12
11.57
23.46
22.38
9.28
-7.07
-15.82
-10.64
6.29
25.27
34.71
27.80
6.63
-18.40
-34.31
-32.65
-14.43
10.13
26.99
25.99
6.73
-21.02
-42.82
-47.57
-33.88
-10.63
8.48
12.95
1.75
-16.47
-28.99
-26.92
-10.56
10.98
25.56
25.42
11.80
-5.86
-16.02
-11.91
4.43
23.41
33.77
29.06
11.64
-8.68
-20.38
-16.87
-0.30
19.68
31.55
28.41
12.15
-7.98
-20.88
-19.99
-7.08
9.19
18.58
15.39
2.04
-12.81
-19.55
-13.45
2.43
19.22
27.43
22.62
8.04
-7.46
-14.80
-9.83
4.23
18.96
25.77
20.84
7.52
-6.02
-11.64
-6.02
7.40
20.59
25.71
19.55
5.73
-7.84
-13.57
-8.54
3.69
15.43
19.35
12.73
-0.67
-13.21
-17.86
-12.23
-0.18
10.78
13.87
7.05
-5.47
-16.27
-18.84
-11.63
0.91
11.19
12.82
4.24
-9.91
-21.73
-24.00
-14.35
3.24
20.63
29.55
25.87
12.14
-4.13
-14.06
-12.36
-0.32
15.06
24.77
22.82
10.09
-6.38
-17.04
-15.47
-2.38
14.82
26.04
24.44
10.84
-7.07
-18.47
-16.09
-0.63
19.53
32.88
31.29
15.14
-7.07
-23.17
-24.19
-9.77
11.90
28.79
31.99
20.98
3.17
-10.66
-13.04
-4.40
7.73
13.72
8.07
-6.69
-21.95
-28.20
-21.07
-4.34
12.46
19.64
13.11
-3.03
-19.38
-26.61
-20.81
-5.73
9.79
17.08
12.51
-0.24
-12.83
-17.34
-10.82
2.83
15.37
19.13
11.53
-3.04
-15.99
-19.64
-11.68
3.14
15.87
18.58
9.00
-7.58
-21.60
-24.72
-14.71
2.98
18.44
22.97
14.03
-2.94
-17.98
-22.38
-13.62
3.05
17.83
22.14
13.46
-2.88
-17.11
-20.76
-11.43
5.59
20.63
25.18
16.81
0.81
-13.17
-16.75
-7.68
8.64
22.45
25.30
14.95
-2.79
-17.73
-21.11
-10.73
7.50
23.03
26.62
15.71
-3.78
-20.99
-26.42
-17.22
0.90
17.16
21.90
12.15
-6.25
-22.41
-26.60
-16.02
3.52
21.00
26.60
17.34
-0.96
-17.38
-22.36
-13.13
4.45
19.61
22.96
11.99
-6.99
-22.86
-26.03
-14.03
6.89
25.43
31.56
22.18
3.01
-14.95
-21.88
-14.48
2.00
17.23
21.80
12.80
-4.23
-18.85
-21.92
-11.04
7.75
23.51
26.66
14.74
-5.76
-23.17
-27.43
-15.92
4.66
22.27
26.43
14.31
-7.20
-25.74
-30.54
-18.64
3.39
23.38
30.53
21.49
2.31
-15.52
-21.84
-13.56
3.57
18.70
22.32
11.84
-6.53
-21.75
-24.43
-12.40
7.73
24.34
27.49
14.70
-7.17
-25.94
-31.10
-19.80
1.26
19.86
25.24
14.30
-6.34
-24.49
-29.46
-18.17
3.04
22.30
29.06
20.09
1.37
-15.79
-21.47
-12.78
4.43
19.36
22.66
12.01
-6.26
-21.12
-23.41
-11.24
8.61
24.59
27.07
14.04
-7.27
-24.65
-27.98
-15.18
6.27
23.63
26.21
11.65
-12.23
-32.06
-36.59
-23.22
0.35
20.51
25.53
12.40
-11.27
-31.84
-37.58
-25.40
-2.56
17.90
24.82
15.47
-3.07
-18.63
-21.31
-9.28
10.45
26.61
30.63
21.56
6.44
-4.54
-4.27
7.05
22.13
31.28
28.20
13.86
-3.74
-14.33
-11.34
4.17
23.73
36.05
33.32
16.03
-7.12
-23.90
-25.37
-11.09
10.62
27.66
30.90
19.71
1.50
-13.03
-16.28
-8.09
4.81
13.60
12.71
3.15
-8.70
-15.42
-13.12
-3.66
6.65
11.06
6.42
-5.01
-16.99
-22.93
-19.60
-9.04
2.54
8.41
4.84
-6.42
-19.58
-28.02
-27.90
-20.34
-10.51
-4.30
-5.06
-11.18
-17.61
-18.81
-12.02
0.93
14.56
22.97
22.95
16.17
7.71
3.19
5.55
13.39
21.81
25.46
21.57
11.76
0.69
-6.66
-7.82
-4.28
-0.58
-1.35
-8.66
-20.38
-31.36
-36.39
-33.06
-23.21
-12.12
-5.52
-6.57
-13.65
-21.27
-23.07
-15.42
0.15
17.44
28.85
29.53
20.49
7.99
-0.10
1.13
10.65
21.90
26.82
20.67
5.43
-10.96
-19.08
-13.52
3.68
23.51
34.79
30.19
10.63
-14.75
-33.50
-36.49
-23.04
-1.25
16.62
21.09
10.93
-6.43
-19.69
-20.43
-8.03
10.17
23.65
25.07
14.71
0.13
-8.80
-5.97
7.26
22.79
30.58
24.62
6.61
-14.45
-27.28
-24.69
-7.72
14.40
29.22
27.85
10.17
-14.86
-34.23
-38.13
-25.59
-4.99
10.97
12.74
-0.28
-19.56
-32.75
-31.27
-15.55
5.24
18.81
17.15
1.53
-18.29
-30.07
-26.37
-8.97
12.30
25.52
23.66
8.80
-9.36
-19.45
-15.18
1.09
19.96
30.62
27.23
12.32
-5.10
-15.00
-12.12
1.02
15.98
23.48
18.87
4.98
-9.91
-17.04
-12.31
1.28
15.58
22.11
17.01
3.47
-10.42
-16.46
-11.08
2.49
16.32
22.34
17.08
3.85
-9.48
-15.08
-9.65
3.46
16.54
21.91
16.42
3.53
-9.21
-14.51
-9.61
1.96
12.85
16.13
9.48
-3.21
-14.45
-17.63
-10.85
1.74
12.63
15.31
8.05
-4.77
-15.69
-18.36
-11.33
0.95
10.99
12.46
3.81
-10.45
-22.52
-25.21
-15.97
1.50
19.29
29.15
26.65
13.86
-2.11
-12.45
-11.43
0.22
15.90
26.54
25.56
13.11
-4.03
-16.09
-15.77
-2.87
15.68
29.59
31.17
20.09
2.96
-10.49
-13.37
-5.94
5.00
10.55
5.38
-8.35
-22.78
-28.87
-22.17
-5.93
11.03
19.34
14.63
0.31
-15.02
-22.35
-17.55
-3.85
10.50
17.11
12.31
-0.33
-12.64
-16.68
-9.45
5.11
18.60
23.08
15.72
0.80
-13.06
-17.93
-11.13
3.00
15.84
19.58
11.68
-3.13
-16.09
-19.40
-10.85
4.67
18.13
21.54
12.59
-3.66
-17.92
-22.07
-13.78
1.97
15.93
19.91
11.47
-4.41
-18.57
-22.90
-14.97
0.56
14.88
20.08
13.55
-0.44
-13.64
-18.69
-13.15
-1.04
9.89
12.65
5.11
-8.32
-19.59
-21.57
-12.27
3.67
17.71
22.12
14.39
-0.96
-15.25
-20.55
-14.14
-0.27
12.66
16.88
9.84
-4.02
-16.31
-19.52
-11.47
3.28
16.32
20.15
12.58
-1.75
-14.37
-17.93
-10.35
3.74
15.90
18.74
10.23
-4.74
-17.50
-20.53
-11.81
3.84
17.70
22.05
14.58
-0.09
-13.42
-17.91
-11.29
2.03
13.97
17.38
10.31
-2.66
-13.52
-15.50
-7.04
7.13
18.84
21.17
12.35
-2.91
-16.28
-20.61
-13.80
-0.24
12.00
15.77
8.94
-4.16
-15.64
-18.65
-11.32
2.00
13.57
16.78
9.99
-2.27
-12.29
-13.88
-5.88
6.87
16.62
17.20
7.72
-6.50
-17.24
-18.03
-7.96
7.55
19.81
21.74
11.85
-4.59
-18.76
-23.28
-16.23
-2.30
10.22
14.27
7.98
-4.13
-14.27
-15.98
-7.83
5.73
17.30
20.81
15.01
4.28
-4.39
-5.59
1.42
12.11
19.63
18.75
9.03
-4.53
-14.55
-15.47
-6.71
6.73
17.15
18.43
9.46
-4.94
-17.01
-20.40
-13.71
-1.38
9.26
12.14
6.04
-4.68
-13.17
-14.04
-6.60
4.82
13.78
15.49
9.52
0.19
-6.55
-6.58
-0.02
8.71
13.81
11.47
2.29
-8.73
-15.22
-13.09
-2.98
9.62
17.52
15.72
4.54
-10.27
-20.81
-21.39
-11.84
2.33
13.41
15.79
9.29
-1.17
-8.81
-8.98
-1.85
8.12
15.31
16.28
11.61
5.36
1.97
3.69
9.32
14.81
16.03
11.03
1.47
-8.18
-12.97
-10.22
-1.16
9.47
15.94
14.51
5.62
-6.67
-16.88
-21.14
-19.24
-14.39
-10.76
-11.01
-14.19
-16.99
-15.72
-8.83
1.86
12.06
17.59
16.53
10.57
3.96
0.93
3.49
10.16
16.82
19.21
15.30
6.76
-2.33
-7.65
-7.15
-2.29
2.78
3.83
-1.17
-10.52
-20.05
-25.40
-24.41
-18.49
-11.59
-7.80
-9.13
-13.95
-18.41
-18.56
-12.77
-2.78
7.21
13.03
12.68
7.74
2.16
-0.15
2.56
8.79
14.63
16.17
11.62
2.90
-5.41
-8.56
-4.19
5.99
16.76
22.13
18.50
7.23
-6.10
-14.57
-13.76
-4.44
7.77
15.70
14.60
5.30
-6.60
-13.99
-12.48
-2.96
9.04
16.83
16.45
8.98
-0.14
-4.85
-1.89
7.13
16.65
20.46
15.28
2.99
-10.12
-16.88
-13.31
-1.15
12.67
19.76
14.89
-0.63
-19.35
-31.80
-31.72
-19.80
-3.31
8.17
8.26
-2.39
-16.67
-25.56
-23.56
-11.88
2.48
11.25
9.83
0.09
-10.89
-15.46
-9.90
3.21
16.59
22.52
17.36
3.77
-10.69
-18.07
-14.43
-2.15
11.43
18.36
14.47
1.96
-12.03
-19.66
-16.84
-5.59
7.25
14.12
11.10
0.28
-11.65
-17.44
-13.48
-1.94
10.67
17.41
14.81
5.09
-5.52
-10.54
-6.94
3.01
13.31
17.85
13.93
4.03
-5.89
-9.96
-5.80
4.03
13.67
17.44
13.00
2.99
-6.93
-11.32
-8.04
0.49
8.97
12.37
8.82
0.87
-6.42
-8.59
-4.28
3.67
10.24
11.16
5.46
-3.56
-10.68
-11.61
-5.63
3.73
10.90
11.32
3.93
-7.66
-17.38
-19.49
-11.74
3.09
18.69
28.07
26.94
16.35
2.02
-8.48
-9.58
-1.07
11.89
21.57
22.01
12.94
-0.44
-10.56
-12.10
-5.47
3.84
8.74
5.12
-5.21
-16.16
-20.90
-16.20
-4.70
6.97
12.09
7.76
-2.92
-13.35
-16.98
-11.21
0.82
12.37
16.89
11.74
0.01
-11.59
-16.63
-12.54
-2.33
7.49
10.72
5.17
-5.73
-15.43
-17.99
-11.65
-0.03
10.32
13.56
8.00
-2.67
-11.95
-14.23
-7.97
3.21
12.88
15.45
9.36
-1.59
-10.84
-12.63
-5.40
7.11
18.15
21.69
15.78
3.99
-7.06
-11.38
-7.00
2.78
11.67
13.95
7.87
-2.99
-12.28
-14.36
-7.63
4.36
15.16
18.97
13.84
3.03
-7.19
-11.14
-6.83
2.64
11.23
13.35
7.20
-3.74
-13.11
-15.21
-8.41
3.54
13.83
16.39
9.42
-3.14
-14.18
-17.48
-11.25
0.52
10.69
13.09
6.16
-5.79
-15.55
-17.07
-9.11
3.90
14.59
16.80
9.06
-4.27
-15.78
-19.22
-12.98
-1.19
8.87
10.93
3.32
-9.61
-20.41
-22.61
-14.56
-0.64
11.49
15.07
8.24
-4.69
-15.92
-18.71
-11.18
2.43
14.49
18.40
12.35
0.66
-9.24
-11.08
-3.32
9.80
21.04
24.16
17.52
5.17
-5.82
-9.39
-3.80
7.23
16.99
19.64
13.42
2.07
-7.81
-10.42
-4.16
7.28
17.14
19.45
12.46
0.02
-10.91
-14.26
-8.30
3.06
12.84
14.94
7.79
-4.41
-14.36
-15.94
-7.72
5.87
17.23
19.85
12.01
-1.81
-13.75
-17.04
-9.85
3.38
14.66
16.99
8.39
-6.44
-19.12
-22.39
-14.26
0.39
12.86
15.52
6.38
-9.40
-22.60
-25.41
-15.98
0.25
13.79
16.62
6.82
-9.83
-23.48
-25.90
-15.10
3.21
19.17
24.27
16.14
0.06
-14.40
-19.06
-11.59
2.95
15.40
17.87
8.39
-7.53
-20.26
-21.84
-10.58
7.38
21.66
23.53
11.07
-9.22
-26.24
-30.75
-20.60
-2.31
12.93
15.85
4.41
-14.53
-29.56
-31.47
-18.58
1.98
18.56
21.61
9.33
-11.10
-27.83
-31.19
-19.12
1.68
19.91
26.28
18.63
3.06
-10.28
-13.26
-4.33
10.84
23.22
25.95
18.24
5.79
-3.15
-2.89
6.44
18.81
26.07
22.77
9.48
-6.96
-17.40
-15.62
-1.90
16.49
29.35
28.96
14.87
-5.72
-21.92
-25.19
-14.35
3.96
19.30
23.43
15.27
0.88
-10.57
-12.47
-4.58
7.23
15.16
14.18
5.26
-5.78
-11.97
-9.57
-0.15
10.50
16.02
13.07
3.24
-8.18
-15.29
-14.88
-8.12
0.21
4.72
2.30
-5.79
-15.17
-20.73
-19.55
-12.70
-4.47
0.30
-1.23
-7.74
-14.96
-17.98
-14.08
-4.45
6.43
13.44
13.60
8.14
1.40
-1.60
1.91
10.78
20.53
26.06
24.29
16.20
5.76
-2.27
-4.95
-2.79
0.77
1.66
-2.51
-10.78
-19.56
-24.81
-24.21
-18.66
-11.78
-7.84
-9.34
-15.10
-20.91
-21.76
-14.74
-1.09
14.12
24.66
26.46
20.33
11.34
5.89
7.95
16.69
26.64
31.01
25.64
11.98
-3.32
-11.99
-8.88
4.81
21.51
31.14
26.55
7.87
-16.88
-35.91
-39.93
-27.49
-6.00
12.39
17.61
7.61
-10.71
-25.87
-28.83
-18.28
-1.19
11.83
13.16
2.87
-11.24
-18.84
-13.47
3.39
22.76
33.40
28.27
8.74
-15.57
-32.09
-32.23
-16.17
6.91
23.85
24.72
8.60
-15.89
-35.48
-39.75
-27.23
-6.04
10.99
13.91
1.70
-17.30
-30.73
-29.78
-14.50
6.25
20.36
19.78
5.38
-13.57
-25.29
-22.46
-6.50
13.39
25.86
24.01
9.46
-8.74
-19.68
-16.90
-2.07
16.12
27.20
24.93
11.02
-6.27
-17.11
-15.79
-4.00
10.48
18.64
15.39
2.88
-11.26
-18.49
-14.42
-1.43
13.03
20.75
17.58
5.90
-7.10
-13.73
-10.15
1.35
13.96
20.42
17.12
6.48
-4.85
-9.98
-5.65
5.60
17.23
22.40
17.93
6.39
-5.73
-11.79
-8.66
1.22
11.58
16.02
11.56
0.76
-10.27
-15.46
-12.18
-3.03
6.11
9.50
4.95
-4.57
-13.21
-15.52
-9.85
0.43
9.17
10.86
3.83
-8.28
-18.82
-21.32
-13.18
2.57
18.97
28.41
26.56
15.05
0.32
-9.42
-8.76
1.69
15.74
24.77
22.65
9.79
-7.23
-18.86
-18.19
-5.30
12.87
26.05
26.52
13.85
-5.07
-19.52
-21.13
-8.92
10.30
25.75
28.92
18.85
2.00
-11.49
-14.03
-5.38
7.81
16.12
13.41
0.93
-13.93
-22.08
-18.42
-5.31
9.20
16.11
10.95
-3.15
-18.02
-24.83
-19.50
-5.18
9.96
17.30
12.84
-0.32
-14.16
-20.48
-15.58
-2.64
10.51
15.93
10.29
-2.79
-15.32
-19.49
-12.39
2.10
15.75
20.64
13.86
-0.48
-13.90
-18.49
-11.50
2.84
16.01
20.07
12.36
-2.55
-15.83
-19.42
-10.82
5.24
19.59
23.86
15.25
-1.48
-16.88
-22.38
-15.02
0.47
14.67
18.82
9.95
-6.96
-22.21
-26.86
-17.95
-0.38
16.05
22.22
14.93
-1.06
-16.09
-21.32
-13.74
1.90
16.13
20.27
11.49
-5.13
-19.88
-24.02
-14.79
2.70
18.55
23.70
15.08
-2.29
-18.43
-24.17
-16.24
0.64
16.74
22.91
15.80
0.07
-14.74
-19.65
-11.51
5.09
20.59
25.94
17.90
1.21
-14.37
-19.79
-11.85
4.63
19.90
24.87
16.45
-0.38
-15.79
-20.85
-12.68
3.70
18.51
22.87
13.97
-2.98
-18.06
-22.44
-13.42
3.67
18.75
22.73
12.84
-5.39
-21.46
-26.03
-16.32
1.98
17.97
21.92
10.91
-8.99
-26.35
-31.12
-20.32
-0.18
17.81
23.38
13.52
-5.57
-22.35
-26.78
-16.01
3.79
21.20
26.23
15.97
-3.32
-20.22
-24.77
-14.07
5.82
23.61
29.21
19.51
0.37
-16.98
-22.52
-13.07
5.70
22.79
28.28
18.97
0.62
-15.81
-20.57
-10.78
7.64
23.56
27.10
15.42
-5.20
-23.13
-28.17
-17.42
2.73
20.42
25.07
13.52
-7.85
-27.04
-33.43
-23.78
-4.17
13.85
20.03
11.37
-6.04
-21.00
-23.95
-12.58
6.72
22.75
26.12
14.73
-4.64
-20.54
-23.59
-11.89
7.54
23.02
24.87
11.22
-10.50
-27.93
-30.95
-17.57
4.55
22.54
25.61
11.48
-12.05
-31.77
-36.53
-23.79
-0.87
19.60
27.00
18.91
2.04
-12.31
-15.10
-4.79
12.14
25.63
28.21
19.35
5.61
-3.87
-2.96
7.94
22.00
30.24
26.75
12.37
-5.51
-17.07
-15.61
-1.49
17.70
31.40
31.77
18.38
-1.99
-19.24
-25.73
-20.61
-9.75
-1.72
-2.58
-11.97
-23.86
-30.54
-27.39
-15.69
-1.74
7.18
7.03
-0.45
-9.12
-12.20
-6.28
6.74
20.60
28.35
26.10
15.37
1.86
-7.77
-9.54
-4.27
3.09
6.60
2.61
-7.89
-20.38
-29.35
-31.34
-26.86
-19.78
-14.75
-14.64
-18.55
-22.89
-23.40
-17.80
-7.21
4.41
12.65
14.98
12.45
8.83
8.19
12.43
20.07
26.74
27.76
20.84
7.99
-5.06
-11.71
-8.15
4.25
18.95
27.50
23.99
8.92
-10.79
-25.24
-26.97
-15.36
2.83
17.30
20.06
10.40
-5.01
-16.21
-16.04
-4.47
11.43
22.08
21.11
9.36
-5.47
-13.70
-9.51
5.47
22.75
31.81
26.07
6.97
-16.33
-31.79
-31.23
-14.91
8.16
25.03
25.95
9.89
-14.56
-34.18
-38.50
-25.86
-4.33
13.13
16.18
3.35
-17.13
-32.49
-33.01
-17.80
4.78
22.32
25.74
14.55
-3.06
-15.57
-15.13
-2.13
15.09
25.49
21.92
5.62
-14.21
-25.87
-22.01
-4.02
18.34
32.41
29.75
11.02
-14.14
-32.62
-35.24
-21.95
-1.73
12.86
13.03
-0.91
-19.98
-32.19
-29.75
-13.75
6.66
19.91
18.83
4.97
-12.62
-22.96
-19.62
-4.48
13.68
24.51
22.19
8.94
-6.73
-15.17
-11.31
2.44
17.88
25.95
22.08
8.92
-5.51
-12.73
-8.59
4.16
17.86
24.38
19.88
7.16
-6.40
-13.20
-9.76
1.23
12.81
17.86
13.30
2.09
-8.83
-12.74
-6.98
5.18
16.62
20.51
14.24
1.39
-10.80
-15.30
-9.57
2.85
14.56
18.37
11.29
-3.38
-17.99
-24.52
-18.82
-3.21
14.95
27.00
27.58
17.89
4.35
-5.08
-5.63
1.36
9.61
11.95
5.02
-8.10
-19.95
-23.16
-15.24
-0.58
12.23
15.23
5.85
-11.13
-26.64
-31.56
-22.00
-1.56
20.77
34.89
34.65
21.30
2.56
-11.37
-13.10
-2.23
14.69
27.83
29.63
19.60
4.01
-7.88
-9.55
-1.37
9.88
15.39
9.96
-4.24
-19.33
-26.28
-20.56
-5.27
10.88
18.64
13.63
-0.73
-15.82
-22.59
-16.84
-1.90
13.74
21.20
16.40
2.61
-11.79
-18.40
-13.55
-0.76
11.69
15.67
8.11
-6.74
-20.14
-23.96
-15.54
0.49
15.06
19.77
11.83
-4.10
-18.83
-24.04
-16.91
-2.01
11.66
15.85
7.89
-7.37
-20.73
-23.90
-14.38
2.79
18.06
22.76
14.17
-2.56
-17.61
-22.25
-13.83
2.46
16.74
20.24
10.40
-7.20
-22.35
-26.07
-15.78
3.01
20.01
25.98
17.94
1.04
-14.66
-20.13
-12.33
3.89
18.93
24.04
16.35
0.79
-13.13
-16.89
-7.97
8.44
22.56
25.54
14.74
-4.37
-21.36
-26.90
-17.98
0.11
16.97
23.08
15.15
-1.65
-17.17
-22.07
-13.24
4.27
20.43
26.01
17.91
1.17
-14.21
-19.21
-10.96
5.27
19.34
22.10
10.90
-8.40
-24.89
-28.90
-17.65
2.73
20.75
26.07
15.50
-4.87
-23.36
-29.57
-20.21
-1.15
16.37
22.29
13.52
-4.10
-19.63
-23.54
-13.18
5.54
21.84
26.30
16.34
-2.05
-17.97
-22.00
-11.50
7.61
24.45
29.36
19.48
0.67
-16.08
-21.08
-11.47
6.75
22.46
25.75
13.83
-6.84
-24.52
-28.97
-17.41
3.53
21.75
26.56
14.93
-6.49
-25.45
-31.25
-20.88
-0.83
16.89
21.83
11.13
-8.57
-25.36
-29.10
-17.23
3.55
21.41
26.24
15.45
-4.24
-21.02
-24.89
-13.44
6.56
23.24
26.50
13.91
-7.52
-25.65
-30.26
-18.90
1.52
18.96
23.25
11.92
-8.05
-24.64
-27.85
-15.47
5.54
23.16
27.32
15.66
-4.88
-22.31
-26.56
-15.21
5.14
22.87
28.11
18.43
0.23
-15.37
-19.19
-9.28
7.98
21.98
24.32
13.82
-2.59
-14.37
-13.80
-0.61
17.51
29.51
27.46
11.30
-10.54
-25.99
-26.30
-11.05
11.16
27.61
28.62
13.33
-9.71
-27.48
-29.95
-15.99
6.20
24.06
27.97
16.92
-1.52
-16.12
-18.83
-9.34
5.28
15.46
15.10
5.22
-7.18
-13.66
-9.59
3.20
17.56
25.53
22.80
11.19
-2.78
-11.68
-11.47
-3.66
5.80
10.18
5.87
-5.28
-17.47
-24.20
-21.97
-12.32
-0.83
6.36
5.83
-0.84
-8.56
-11.72
-7.56
2.15
12.07
16.60
13.00
3.58
-6.09
-10.15
-5.92
4.43
14.98
19.56
15.08
3.67
-8.95
-16.62
-16.22
-9.44
-1.75
1.02
-4.03
-14.91
-26.23
-32.29
-30.27
-21.98
-12.67
-7.76
-9.92
-17.23
-24.68
-27.19
-22.61
-12.91
-3.02
2.27
1.09
-4.05
-7.79
-5.21
5.27
20.61
34.25
39.51
33.07
17.34
-0.26
-11.01
-9.35
3.90
21.32
32.65
30.29
13.92
-9.01
-27.12
-31.43
-20.50
-1.37
14.65
18.51
8.91
-7.06
-18.61
-17.78
-4.29
14.34
27.69
28.74
18.07
3.46
-5.24
-2.18
11.01
25.98
32.72
25.41
6.07
-16.06
-29.63
-27.51
-10.84
11.17
26.16
25.28
8.23
-16.33
-35.65
-39.99
-28.22
-8.47
6.76
7.91
-5.68
-25.41
-38.74
-36.75
-19.65
3.25
19.30
19.90
5.75
-13.66
-26.05
-23.65
-7.74
12.17
24.33
21.67
6.12
-12.57
-22.82
-18.06
-0.58
19.86
31.73
28.41
12.02
-8.00
-20.46
-18.89
-5.15
11.96
22.04
19.21
5.76
-9.74
-17.61
-12.88
1.77
17.86
26.20
22.22
8.76
-5.93
-13.20
-8.98
3.89
17.48
23.58
18.44
5.15
-8.44
-14.40
-9.27
3.81
17.14
22.94
17.81
4.89
-8.32
-14.42
-10.32
0.79
11.69
15.35
9.11
-3.41
-14.88
-18.54
-12.25
0.08
11.09
14.18
7.46
-4.84
-15.39
-17.83
-10.78
1.29
10.86
11.65
2.32
-12.30
-24.21
-26.16
-15.84
2.61
20.94
30.75
27.77
14.38
-2.08
-12.84
-12.45
-1.89
12.28
21.49
19.94
8.36
-6.64
-15.97
-13.49
0.09
17.66
29.33
28.19
14.61
-4.23
-17.74
-18.22
-5.50
13.09
26.69
27.08
13.90
-5.49
-19.77
-20.30
-6.51
13.93
29.34
30.98
18.38
-0.88
-15.72
-18.42
-9.49
3.09
9.08
2.63
-13.48
-30.01
-36.67
-28.60
-9.67
10.01
19.99
15.50
0.34
-16.01
-23.98
-19.31
-5.57
8.54
14.46
8.78
-4.50
-16.75
-19.90
-11.20
4.93
19.58
24.45
16.67
0.79
-14.04
-19.45
-12.54
2.24
15.98
20.49
13.06
-1.57
-14.41
-17.40
-8.25
7.93
21.70
24.65
14.33
-3.89
-20.02
-25.24
-16.81
0.05
15.35
20.10
11.45
-5.30
-20.13
-24.08
-14.49
3.27
19.12
23.99
15.14
-2.07
-17.56
-22.50
-14.28
1.73
15.63
18.79
8.91
-8.21
-22.32
-24.67
-13.14
6.25
22.83
27.40
17.39
-1.34
-18.09
-23.53
-14.85
2.50
18.23
23.16
14.50
-2.24
-16.78
-20.09
-9.61
8.97
25.13
29.49
19.21
-0.04
-17.55
-23.79
-15.64
1.56
17.48
22.73
14.25
-2.58
-17.48
-21.25
-11.22
6.97
22.72
26.57
15.73
-3.90
-21.35
-26.99
-17.97
-0.16
15.52
19.53
9.22
-9.18
-24.49
-27.14
-14.80
5.99
23.71
28.37
17.36
-2.78
-20.36
-25.32
-14.95
4.43
21.36
25.95
15.56
-3.40
-19.54
-23.25
-12.37
6.43
21.61
23.52
10.09
-11.59
-29.43
-33.33
-20.90
0.95
20.11
26.12
16.10
-3.33
-20.24
-24.38
-13.06
7.06
24.10
27.87
15.85
-5.01
-22.53
-26.46
-14.40
6.60
24.22
28.03
15.54
-5.95
-23.84
-27.56
-14.73
7.30
25.67
29.44
15.91
-7.51
-27.79
-33.75
-22.40
-0.67
18.72
24.68
14.02
-6.60
-24.87
-30.07
-19.13
1.52
19.95
25.67
15.76
-3.31
-19.79
-23.64
-12.47
6.83
22.35
24.06
9.95
-12.35
-30.06
-32.73
-18.42
4.87
23.73
26.98
12.21
-12.59
-33.76
-39.89
-28.20
-6.11
13.35
19.24
9.11
-9.68
-24.73
-26.19
-12.55
8.60
25.53
29.45
19.75
4.08
-6.84
-5.77
6.75
22.85
32.45
29.33
14.81
-2.69
-12.87
-9.54
5.74
24.26
35.09
31.16
13.66
-8.55
-23.64
-23.54
-8.50
12.98
29.16
31.61
20.22
2.58
-10.83
-12.90
-3.99
8.86
16.75
14.40
3.46
-8.94
-14.87
-10.50
1.57
13.89
18.71
12.47
-2.15
-17.89
-27.15
-26.18
-17.07
-6.42
-1.30
-5.38
-16.57
-28.77
-35.27
-32.52
-22.17
-9.94
-2.06
-1.93
-7.83
-14.48
-16.16
-10.14
1.66
13.87
20.92
20.26
14.27
8.44
8.11
15.20
26.84
36.82
39.28
31.95
17.64
2.62
-7.14
-9.06
-5.39
-1.75
-3.60
-13.20
-27.66
-40.46
-44.88
-37.62
-21.05
-2.27
10.56
12.34
4.20
-7.33
-14.10
-10.94
1.15
15.77
24.97
24.04
14.70
3.84
-0.79
4.67
17.64
30.48
35.04
27.43
10.56
-6.98
-15.75
-10.67
5.88
24.76
34.76
28.52
6.92
-20.82
-41.80
-46.29
-33.17
-10.72
8.02
12.53
0.98
-18.80
-34.20
-35.43
-21.29
0.14
16.66
19.23
7.53
-10.00
-21.47
-18.94
-3.15
16.70
28.58
24.67
6.19
-16.91
-31.75
-29.87
-12.26
10.97
26.18
23.93
4.61
-21.68
-40.84
-42.89
-27.66
-4.80
12.04
13.33
-0.67
-20.18
-32.23
-28.49
-10.41
11.78
25.33
22.65
6.00
-14.00
-24.90
-19.87
-1.73
18.90
30.03
25.45
8.43
-10.54
-20.13
-14.85
1.88
20.16
29.61
25.41
11.05
-4.36
-11.66
-7.06
5.82
18.50
22.86
15.90
1.73
-11.29
-15.51
-8.50
5.50
18.20
22.07
14.75
0.65
-12.01
-15.74
-8.34
5.76
18.22
21.49
12.99
-3.00
-17.87
-23.10
-14.82
3.90
24.72
38.31
39.04
28.11
12.30
-0.04
-3.63
0.67
7.06
8.71
2.22
-9.67
-20.11
-22.41
-14.48
-0.57
11.25
13.90
5.57
-8.80
-21.00
-23.91
-16.01
-2.29
8.94
10.74
1.50
-13.73
-26.42
-28.88
-18.52
0.42
19.33
29.45
26.33
12.49
-4.24
-14.57
-12.73
0.18
17.03
28.34
27.49
14.87
-2.47
-14.64
-14.50
-2.10
15.44
27.93
28.12
16.21
-0.67
-12.74
-13.50
-3.97
8.37
14.32
8.77
-5.56
-20.22
-25.96
-18.53
-1.75
14.96
21.99
15.25
-1.15
-17.77
-25.19
-19.52
-4.75
10.05
16.08
9.95
-4.02
-16.87
-20.33
-11.69
4.37
18.68
22.98
14.65
-1.40
-15.81
-20.40
-12.68
2.39
15.62
18.94
10.10
-5.57
-18.57
-20.81
-10.38
7.00
21.34
24.10
13.20
-5.32
-20.91
-24.71
-14.58
3.34
18.35
21.41
10.37
-8.36
-23.83
-26.84
-15.25
4.60
21.69
26.64
16.94
-1.31
-17.32
-21.90
-12.57
4.92
20.17
24.23
14.67
-2.70
-17.51
-20.89
-10.62
7.37
22.54
25.79
14.72
-4.60
-21.36
-26.28
-16.79
1.31
17.54
22.72
14.25
-2.21
-16.46
-19.79
-10.05
6.96
21.03
23.48
12.28
-6.42
-22.04
-25.70
-15.32
2.84
17.90
20.55
8.53
-11.60
-28.36
-31.97
-20.02
0.85
18.88
23.91
13.24
-6.50
-23.57
-27.91
-16.95
2.84
19.98
24.71
14.57
-3.93
-19.52
-22.82
-11.69
7.43
23.47
27.20
16.49
-2.23
-18.02
-21.77
-11.39
6.88
22.23
25.50
14.48
-4.52
-20.49
-24.09
-13.04
6.35
22.88
26.97
16.12
-3.24
-19.75
-23.78
-12.87
6.61
23.39
27.82
17.53
-1.00
-16.51
-19.65
-8.49
10.18
24.84
25.97
11.67
-10.78
-29.24
-33.62
-21.66
-0.46
17.69
22.31
10.74
-10.08
-27.85
-32.19
-20.51
0.29
18.10
22.66
11.53
-8.22
-24.49
-27.32
-14.61
6.41
23.64
27.07
14.63
-6.34
-23.59
-27.11
-14.84
5.98
23.22
26.85
14.67
-6.17
-23.61
-27.77
-16.50
3.18
19.41
22.44
10.25
-9.95
-26.13
-28.58
-15.45
5.95
23.64
27.91
16.99
-1.81
-16.77
-18.75
-6.51
12.39
26.29
26.37
11.92
-8.75
-23.28
-22.61
-6.21
17.08
34.14
34.91
18.38
-6.67
-26.55
-30.47
-16.74
6.44
26.01
31.54
21.24
2.27
-14.07
-19.30
-12.49
-0.05
9.05
9.08
1.03
-8.39
-11.56
-4.87
9.04
22.60
27.93
21.36
5.76
-10.74
-19.24
-14.96
0.02
17.57
28.01
25.22
10.33
-9.53
-25.15
-30.47
-25.83
-17.22
-11.99
-14.42
-22.59
-30.28
-30.96
-21.96
-6.33
8.95
17.34
16.15
8.38
0.57
-1.17
5.34
17.15
27.75
31.04
24.54
11.15
-2.92
-11.55
-12.01
-6.44
-0.30
0.97
-4.97
-15.74
-25.98
-30.35
-26.51
-16.51
-5.55
1.24
1.37
-3.24
-8.07
-8.69
-3.37
5.78
14.23
17.93
15.63
9.81
5.10
5.18
10.65
18.33
22.79
19.44
7.09
-10.56
-26.29
-32.69
-25.94
-8.22
12.57
26.34
25.82
10.81
-11.41
-29.73
-35.16
-26.00
-8.70
5.95
9.24
0.18
-14.14
-23.11
-19.18
-2.75
17.99
32.10
32.46
20.02
3.24
-7.34
-5.37
7.60
23.06
30.74
24.74
7.08
-13.02
-24.51
-20.89
-4.00
16.60
28.74
24.38
4.35
-21.77
-40.81
-43.35
-28.99
-6.56
11.05
14.34
2.76
-15.28
-27.86
-26.76
-12.37
6.80
19.59
18.99
6.44
-9.19
-17.32
-12.20
3.63
20.83
28.88
22.47
4.67
-14.59
-24.42
-19.26
-2.07
17.24
27.52
22.66
5.20
-15.21
-27.45
-25.22
-10.67
7.11
17.56
14.80
1.19
-14.39
-22.11
-17.04
-2.07
13.95
21.74
16.98
3.08
-11.13
-16.77
-10.19
4.88
19.77
25.98
20.22
6.35
-7.12
-12.11
-5.59
8.60
22.29
27.66
21.71
8.06
-5.52
-11.79
-7.99
2.45
12.32
15.00
8.22
-4.33
-15.59
-19.34
-13.81
-2.84
6.62
8.60
1.73
-9.72
-18.81
-19.90
-12.21
-0.52
7.95
7.61
-2.27
-16.60
-27.70
-28.99
-18.72
-1.05
16.24
25.68
23.62
12.47
-1.12
-9.53
-8.21
1.62
14.09
21.74
19.75
9.12
-4.04
-11.57
-8.10
5.42
22.08
32.59
30.42
16.11
-3.18
-16.80
-16.75
-2.63
18.22
34.40
36.69
23.72
2.41
-15.39
-19.77
-8.64
11.30
28.55
33.39
23.92
6.27
-9.17
-14.31
-8.36
2.33
8.66
4.80
-7.74
-21.64
-28.23
-23.05
-8.93
5.95
12.96
8.19
-4.93
-18.28
-23.62
-17.44
-3.30
10.60
16.21
10.29
-3.40
-16.56
-21.21
-14.37
-0.05
13.31
17.82
10.77
-3.35
-15.82
-18.93
-10.57
4.28
16.62
18.75
8.87
-7.41
-20.53
-22.61
-12.05
5.27
19.49
22.35
11.92
-5.93
-21.20
-25.47
-16.54
0.15
14.91
19.39
11.29
-4.03
-17.03
-19.57
-9.66
7.11
21.06
23.91
13.72
-3.70
-18.35
-21.90
-12.47
4.15
18.05
21.02
11.23
-5.35
-18.79
-21.03
-10.49
6.75
20.66
22.96
11.92
-6.33
-21.53
-25.17
-15.28
2.25
17.28
21.18
11.81
-5.05
-19.26
-22.29
-12.06
5.66
20.80
24.82
15.63
-0.95
-14.89
-17.90
-8.13
8.55
22.12
24.27
13.21
-4.85
-19.49
-22.22
-11.26
7.02
21.91
24.43
12.57
-7.22
-23.82
-27.93
-17.23
2.01
18.76
23.57
13.96
-3.90
-19.18
-22.75
-12.51
5.30
19.92
22.37
10.79
-8.12
-23.23
-25.47
-13.14
6.84
22.93
25.60
12.75
-8.62
-26.70
-31.65
-21.07
-1.51
15.59
20.53
10.79
-7.36
-22.91
-26.69
-16.42
1.86
17.62
22.02
12.98
-3.39
-16.69
-18.40
-6.93
11.27
25.42
26.70
13.44
-7.44
-24.43
-28.06
-16.33
3.80
20.48
23.71
11.11
-10.34
-28.51
-33.21
-21.81
-0.95
17.59
23.75
14.84
-2.79
-17.94
-21.28
-10.69
7.35
21.87
23.86
11.61
-7.91
-23.26
-25.21
-12.10
8.91
26.07
29.81
18.21
-1.64
-18.05
-21.59
-10.46
8.32
23.24
25.09
12.32
-7.64
-22.96
-24.37
-10.52
10.84
27.39
29.15
14.29
-9.54
-29.57
-35.22
-24.01
-2.98
15.67
21.72
12.87
-4.11
-17.94
-19.77
-8.37
9.32
22.83
24.59
14.45
-0.21
-9.45
-6.87
6.47
22.42
30.64
24.63
5.76
-16.85
-31.40
-29.92
-12.91
10.58
27.78
29.14
13.94
-9.41
-28.10
-32.20
-20.30
-0.01
16.97
21.70
13.35
-1.01
-11.33
-10.86
-0.15
13.72
22.11
20.13
9.72
-2.02
-7.34
-2.66
9.40
21.65
26.79
21.54
8.53
-5.57
-13.98
-13.61
-6.69
0.79
2.83
-3.24
-14.88
-26.31
-31.80
-28.85
-19.73
-9.93
-4.87
-6.92
-13.63
-19.77
-20.32
-13.44
-1.66
9.53
14.97
12.52
4.70
-3.22
-6.08
-1.82
7.41
16.36
19.95
15.97
6.74
-2.72
-7.44
-5.43
1.16
7.38
8.59
3.03
-6.94
-16.44
-20.94
-18.82
-12.20
-5.69
-3.53
-7.37
-14.73
-20.50
-19.65
-10.11
5.78
22.07
32.23
32.59
24.64
14.28
8.28
10.43
19.14
28.14
30.20
21.50
4.55
-12.85
-21.69
-16.95
-0.80
17.96
28.26
22.64
1.73
-25.50
-46.23
-50.58
-37.08
-13.62
7.05
14.47
6.56
-9.57
-22.39
-23.02
-10.59
7.50
20.56
21.32
10.40
-3.95
-11.34
-5.73
10.73
28.70
37.11
29.66
8.66
-15.74
-31.11
-29.62
-12.49
10.41
25.84
24.44
6.11
-19.80
-39.78
-43.73
-30.70
-9.32
7.36
9.56
-3.39
-22.70
-35.71
-33.58
-16.71
5.46
20.16
18.99
2.96
-17.95
-30.98
-28.10
-10.76
11.11
25.20
24.05
9.45
-8.90
-19.49
-15.79
-0.04
18.43
28.95
25.79
11.61
-4.51
-12.75
-8.29
5.85
20.89
27.73
22.24
7.82
-6.93
-13.48
-8.31
5.05
18.32
23.47
17.33
3.62
-9.62
-14.97
-9.77
2.22
13.35
16.65
9.88
-2.98
-14.27
-17.24
-9.88
3.74
15.97
20.01
13.64
0.85
-10.91
-15.12
-9.72
1.48
11.49
14.25
8.17
-2.69
-11.38
-12.26
-4.26
8.20
18.00
19.37
11.21
-1.88
-12.72
-15.43
-8.92
2.40
11.48
12.58
4.52
-8.32
-18.68
-20.20
-10.95
5.19
20.74
28.33
24.47
11.78
-2.70
-11.11
-9.06
1.73
14.51
21.24
17.10
3.85
-11.32
-19.56
-15.63
-1.36
15.40
24.99
21.43
6.39
-11.98
-23.23
-20.61
-5.23
14.74
28.61
29.25
17.50
0.97
-10.35
-10.21
-0.00
12.58
18.37
12.48
-2.25
-17.50
-24.35
-18.84
-4.52
9.97
16.05
10.32
-3.23
-16.17
-20.50
-13.44
0.78
13.65
17.33
9.25
-5.98
-19.53
-23.44
-15.22
0.47
14.69
19.35
11.82
-3.23
-16.90
-21.27
-13.97
0.32
12.84
15.89
7.42
-7.41
-19.52
-21.32
-11.15
5.39
18.78
21.03
10.37
-7.31
-21.98
-25.27
-15.22
2.35
17.38
21.31
11.97
-4.82
-19.05
-22.23
-12.27
5.14
20.07
24.01
14.78
-1.96
-16.27
-19.81
-10.62
5.52
18.59
20.17
8.43
-10.37
-25.62
-28.57
-17.30
1.84
18.03
22.12
11.87
-6.54
-22.32
-26.38
-16.46
1.51
17.06
21.32
12.07
-4.73
-18.75
-21.35
-10.51
7.77
23.15
26.84
16.61
-1.61
-17.39
-21.88
-12.72
4.45
19.51
23.75
14.83
-1.59
-15.54
-18.56
-8.56
8.79
23.63
27.56
18.45
1.95
-12.13
-15.64
-6.62
9.32
22.54
24.97
14.79
-2.24
-16.35
-19.52
-10.05
6.15
19.02
20.21
7.90
-11.58
-27.50
-30.92
-19.81
-0.59
15.62
19.32
8.15
-11.41
-27.95
-31.86
-20.75
-1.12
15.69
20.10
9.81
-8.55
-23.64
-26.15
-14.12
5.73
22.15
25.85
14.87
-4.04
-19.59
-22.54
-10.94
8.57
24.76
28.23
16.85
-2.69
-18.95
-22.41
-10.80
9.35
26.65
31.45
21.29
2.49
-13.82
-18.34
-8.82
8.45
22.68
24.83
13.01
-6.14
-21.54
-24.19
-12.35
7.09
22.74
25.13
12.21
-9.15
-27.17
-32.05
-21.48
-2.23
13.95
17.12
4.96
-15.50
-32.28
-35.38
-22.66
-1.21
16.96
21.90
11.49
-7.14
-22.31
-24.65
-12.74
6.02
19.96
20.05
5.37
-15.82
-31.00
-30.76
-14.23
9.89
28.26
30.27
14.25
-11.35
-32.78
-38.63
-26.37
-3.44
17.35
25.24
17.78
1.57
-12.32
-15.20
-5.75
9.77
22.13
24.99
18.66
9.48
5.28
10.23
22.34
34.43
38.56
30.68
13.21
-5.75
-16.78
-14.25
0.50
19.37
31.71
29.90
13.98
-8.34
-25.80
-29.75
-19.17
-1.03
14.09
18.15
10.76
-1.54
-9.64
-7.71
3.10
15.69
21.87
17.39
4.88
-8.06
-13.60
-8.44
4.23
16.55
20.78
13.61
-1.92
-18.40
-28.34
-28.27
-20.45
-11.35
-7.67
-12.60
-23.92
-35.73
-41.86
-39.25
-29.71
-18.60
-11.47
-11.15
-15.88
-20.99
-21.65
-15.75
-5.12
5.75
12.51
13.34
10.15
7.19
8.16
13.98
22.19
28.03
27.22
18.39
4.54
-8.14
-13.17
-7.23
7.61
24.18
33.44
29.02
11.23
-12.64
-31.75
-37.38
-27.91
-9.80
6.15
11.20
4.00
-9.00
-17.79
-15.26
-1.63
15.59
26.44
24.67
11.67
-4.10
-12.41
-7.47
8.60
26.74
36.24
30.93
12.72
-8.97
-22.67
-21.19
-5.77
14.39
27.20
24.40
6.45
-17.57
-35.04
-37.02
-23.30
-2.56
12.80
13.74
0.03
-19.74
-33.43
-32.50
-17.06
4.28
19.72
21.22
9.19
-7.93
-19.06
-17.30
-3.78
12.99
22.53
18.69
3.44
-14.11
-23.22
-17.89
-0.56
19.12
29.74
24.65
6.01
-16.29
-30.36
-28.97
-13.73
5.95
18.50
16.76
2.32
-15.75
-26.55
-23.70
-9.13
8.38
18.63
15.97
2.79
-12.24
-19.60
-14.57
-0.05
15.43
22.88
18.19
4.65
-9.24
-14.93
-8.82
5.61
20.06
26.35
21.07
7.77
-5.59
-11.37
-6.58
5.30
16.74
20.64
14.49
1.97
-9.47
-13.23
-7.33
4.21
13.98
15.56
7.38
-5.99
-16.95
-19.12
-11.26
1.84
12.40
14.01
5.22
-9.21
-21.22
-23.59
-13.89
3.97
21.97
31.90
29.57
17.26
2.04
-7.72
-6.96
3.12
16.14
23.96
21.35
9.46
-5.01
-13.60
-10.97
1.55
16.74
25.63
22.79
9.93
-5.68
-15.20
-13.81
-3.84
7.01
10.29
1.99
-14.45
-30.33
-36.20
-27.50
-7.56
14.35
27.69
26.35
12.26
-6.17
-18.44
-17.85
-5.32
11.44
22.42
21.16
8.80
-6.95
-16.68
-14.91
-3.65
9.12
14.54
8.40
-5.80
-19.50
-24.05
-16.11
0.03
15.19
20.65
13.30
-2.20
-16.57
-21.15
-13.03
3.09
17.86
22.72
14.85
-0.90
-15.18
-19.68
-11.87
3.27
16.46
19.57
10.44
-5.57
-18.96
-21.82
-12.41
3.57
16.45
18.20
7.15
-10.70
-25.37
-28.64
-18.73
-1.44
13.42
17.62
9.19
-6.27
-19.16
-21.61
-11.87
4.45
17.95
20.91
11.79
-3.65
-16.00
-17.79
-7.78
8.08
20.37
21.62
10.70
-6.20
-19.33
-21.07
-10.22
7.07
20.96
23.48
12.99
-4.66
-19.71
-24.06
-15.62
0.41
14.75
19.39
12.08
-2.14
-14.17
-16.32
-6.66
9.50
22.97
25.93
16.45
-0.03
-14.14
-17.95
-9.51
5.86
18.79
21.35
11.61
-4.75
-17.98
-19.95
-8.81
9.51
24.78
28.21
17.55
-1.27
-17.65
-22.53
-13.49
3.54
17.92
20.51
9.01
-10.23
-26.16
-29.57
-18.32
0.96
16.93
20.07
8.24
-11.61
-27.73
-30.43
-17.58
3.80
21.89
26.83
16.36
-2.69
-18.80
-22.56
-11.95
6.52
21.94
25.47
15.38
-1.84
-15.58
-17.38
-5.76
12.73
27.44
29.59
17.37
-2.62
-19.26
-23.19
-12.03
7.99
25.65
31.06
21.23
1.96
-15.71
-22.07
-14.18
2.30
16.69
19.69
8.88
-9.50
-24.46
-26.78
-14.38
6.21
23.62
28.12
17.11
-3.11
-21.22
-27.39
-18.81
-1.40
13.91
17.50
6.75
-12.15
-28.05
-31.43
-19.93
-0.15
16.42
19.90
8.01
-12.30
-28.92
-31.75
-18.62
3.10
20.76
23.73
9.64
-13.76
-33.21
-37.57
-24.23
-0.78
19.49
25.17
13.37
-8.61
-27.73
-32.91
-21.40
-0.21
18.37
24.14
15.00
-1.95
-15.22
-16.02
-3.43
15.09
28.59
29.22
16.98
-0.21
-11.55
-9.85
4.25
22.49
33.95
31.44
15.72
-4.54
-17.79
-16.28
-0.47
20.89
35.70
35.26
19.56
-2.71
-19.15
-20.76
-7.19
13.25
28.70
30.57
18.69
0.60
-13.24
-15.90
-7.77
4.24
11.56
9.28
-0.85
-12.04
-16.86
-12.02
-0.24
11.34
15.54
9.31
-4.39
-18.56
-26.06
-23.72
-13.95
-3.31
1.46
-2.88
-14.03
-25.91
-32.09
-29.30
-19.20
-7.17
1.07
2.48
-1.36
-6.04
-7.04
-2.62
5.04
11.11
11.27
4.19
-6.89
-16.10
-18.06
-10.83
2.72
16.28
23.53
21.39
11.99
0.84
-6.12
-5.95
-0.25
5.94
7.38
1.75
-8.85
-19.34
-24.78
-23.19
-16.79
-10.64
-9.52
-15.17
-24.66
-32.12
-31.88
-21.66
-4.19
13.90
25.56
26.90
19.63
10.01
5.02
8.43
18.41
28.52
31.53
23.79
8.00
-7.97
-15.29
-9.31
7.60
26.69
37.42
33.08
14.82
-8.65
-25.76
-28.36
-16.35
2.34
16.40
17.66
6.06
-10.56
-21.39
-19.19
-4.60
14.37
27.46
28.24
17.91
4.45
-2.73
1.47
14.74
28.60
33.49
24.34
3.81
-18.61
-31.71
-28.65
-11.05
11.45
26.11
23.90
4.74
-22.17
-43.42
-48.72
-36.81
-16.04
0.68
3.49
-8.42
-26.51
-38.39
-35.47
-18.32
3.64
17.95
16.56
0.77
-19.48
-31.74
-28.32
-10.91
10.55
23.90
21.80
6.17
-13.15
-24.42
-20.84
-4.55
14.94
26.48
23.83
9.41
-7.57
-16.76
-12.85
1.35
16.98
24.49
19.43
5.16
-9.44
-15.37
-8.87
6.32
21.32
27.38
20.96
6.06
-8.45
-14.10
-7.63
6.98
21.13
26.60
20.26
6.05
-7.65
-12.94
-6.91
6.64
19.65
24.57
18.62
5.63
-6.72
-11.46
-6.33
4.80
14.54
16.41
8.59
-4.63
-15.73
-18.40
-11.20
1.36
11.72
13.64
5.85
-6.91
-17.14
-18.80
-11.02
1.22
10.25
10.02
-0.37
-15.68
-27.68
-29.19
-18.21
0.82
19.38
29.02
25.62
11.79
-4.85
-15.40
-14.41
-2.96
12.27
22.56
22.00
11.24
-3.21
-12.42
-10.40
2.14
18.18
28.24
25.90
12.07
-5.84
-17.43
-15.62
-1.10
18.08
30.77
29.06
13.31
-8.18
-23.54
-24.07
-9.63
11.48
27.27
28.95
16.38
-2.63
-16.95
-18.92
-9.12
4.64
12.32
8.12
-5.67
-20.60
-27.22
-21.05
-5.54
10.31
17.36
11.77
-2.49
-16.66
-22.18
-15.86
-1.78
11.38
15.52
7.84
-7.13
-20.43
-24.08
-15.63
0.09
13.93
17.77
9.32
-6.24
-19.53
-22.56
-13.31
2.88
16.62
19.97
11.00
-4.71
-17.66
-20.01
-9.96
6.92
21.25
25.08
16.41
0.53
-13.34
-17.42
-9.71
4.68
16.68
18.55
8.40
-8.25
-21.89
-24.47
-14.12
3.46
18.37
22.06
12.30
-5.22
-20.35
-24.35
-14.76
3.01
19.05
24.70
17.40
2.42
-10.70
-13.76
-4.65
11.21
24.24
26.26
15.31
-2.81
-17.99
-21.72
-11.95
5.31
19.54
21.69
9.52
-10.60
-27.45
-31.42
-20.03
0.36
18.26
23.63
13.64
-5.51
-22.45
-27.36
-17.52
1.03
17.30
21.90
12.43
-4.82
-18.94
-20.90
-8.80
10.82
26.93
30.36
19.11
-0.22
-16.49
-20.45
-9.96
8.56
24.07
27.23
15.76
-3.92
-20.69
-25.14
-14.93
3.75
19.92
24.17
14.05
-4.30
-19.99
-23.86
-13.70
4.31
19.34
22.31
11.14
-7.67
-23.08
-25.95
-14.35
5.13
21.23
24.53
12.82
-7.24
-24.23
-28.54
-17.91
1.12
17.13
20.44
8.76
-11.06
-27.19
-29.78
-16.61
5.28
23.67
28.22
16.38
-4.79
-22.91
-27.45
-15.87
4.76
22.07
25.50
12.58
-9.28
-27.32
-30.85
-17.49
5.25
24.37
28.83
15.89
-7.10
-27.16
-33.27
-22.63
-2.21
15.51
20.01
8.87
-10.67
-26.38
-28.37
-14.89
6.54
23.85
27.52
16.22
-2.36
-16.46
-17.31
-4.33
14.43
27.14
25.23
8.49
-14.28
-30.38
-30.51
-14.05
10.16
28.80
31.30
15.91
-9.19
-30.62
-37.35
-26.81
-6.10
12.47
18.81
10.84
-4.63
-16.52
-16.42
-3.56
15.00
29.11
31.61
22.42
8.27
-1.95
-2.64
5.45
15.85
20.63
15.32
1.66
-12.91
-19.64
-13.57
3.53
23.40
35.72
33.50
17.47
-4.24
-20.30
-22.43
-10.24
8.69
23.26
25.35
14.72
-1.50
-13.39
-14.37
-5.09
7.39
14.44
11.27
0.02
-11.91
-16.64
-10.70
2.90
16.45
22.23
16.92
3.34
-11.37
-19.99
-19.29
-11.65
-3.58
-1.71
-9.04
-22.85
-36.57
-43.47
-40.37
-29.50
-17.12
-9.73
-10.48
-17.12
-23.76
-24.34
-16.16
-1.55
13.45
22.68
23.11
16.88
9.49
6.57
10.63
19.62
28.25
31.32
26.71
16.69
6.40
0.62
1.09
5.55
8.99
6.74
-2.89
-16.95
-29.16
-33.08
-25.59
-9.08
9.28
20.95
20.36
8.41
-7.91
-19.26
-19.00
-7.14
9.67
22.13
23.76
15.00
2.72
-4.34
-0.98
11.12
24.27
29.46
21.81
3.77
-15.72
-26.18
-21.54
-3.77
17.55
30.33
26.39
6.28
-20.60
-41.04
-45.31
-32.58
-11.37
5.48
8.20
-3.91
-22.30
-34.49
-31.67
-14.07
9.19
25.75
27.36
14.70
-3.15
-14.64
-12.67
1.32
18.30
27.29
21.96
4.47
-15.50
-26.41
-21.64
-3.35
18.41
31.25
27.37
8.12
-16.59
-33.92
-35.25
-21.13
-0.81
13.31
12.88
-1.25
-19.79
-30.84
-27.07
-10.23
9.98
21.81
18.50
2.45
-16.33
-26.35
-21.47
-4.48
14.75
25.23
21.29
5.98
-11.08
-19.54
-14.45
0.96
17.53
25.65
20.99
6.97
-7.66
-14.22
-9.11
4.12
17.24
22.35
16.47
3.45
-8.71
-12.66
-6.02
7.18
19.06
22.50
15.28
1.72
-10.30
-13.65
-6.28
7.46
19.50
22.47
13.79
-2.44
-17.81
-23.87
-16.58
1.20
21.45
34.97
36.12
26.02
11.18
-0.26
-3.14
1.67
8.43
10.30
3.85
-8.29
-19.24
-22.21
-14.90
-1.35
10.42
13.23
5.07
-9.28
-21.68
-24.97
-17.39
-3.74
7.81
10.28
1.89
-12.59
-24.79
-27.07
-16.80
1.89
20.46
30.16
26.57
12.31
-4.66
-14.95
-12.86
0.25
16.83
27.19
24.79
10.54
-7.82
-19.90
-18.51
-4.23
15.02
28.41
28.46
15.76
-1.96
-14.28
-14.48
-3.74
9.95
16.85
11.53
-3.42
-19.36
-26.68
-20.77
-5.04
11.42
19.24
14.32
0.43
-13.65
-19.24
-12.91
1.27
14.54
18.59
10.48
-5.15
-19.19
-23.32
-14.86
1.37
16.04
20.70
12.66
-3.19
-17.51
-22.01
-14.14
1.28
15.10
19.23
11.30
-3.66
-16.51
-19.41
-10.40
5.23
18.21
20.62
10.61
-6.12
-19.71
-21.97
-11.06
7.05
22.03
25.12
14.13
-4.76
-20.89
-25.10
-15.00
3.47
19.66
24.32
14.80
-3.13
-19.00
-23.70
-14.66
2.55
17.68
21.79
12.38
-4.81
-19.47
-22.73
-12.26
6.15
22.15
26.73
17.41
-0.11
-15.52
-19.95
-11.04
5.49
19.45
22.04
11.04
-7.46
-22.88
-26.20
-15.16
4.16
21.04
26.13
16.72
-1.43
-17.73
-22.90
-14.15
3.11
18.66
23.45
14.75
-1.87
-16.24
-19.52
-9.41
8.21
22.79
25.21
13.16
-6.99
-24.04
-28.40
-17.64
1.82
18.57
22.76
11.82
-7.76
-24.57
-28.83
-18.07
1.33
18.09
22.51
12.09
-6.73
-22.64
-26.07
-14.77
4.69
20.84
23.95
11.73
-8.94
-26.14
-29.79
-17.46
4.07
22.82
28.46
18.23
-1.28
-18.26
-22.71
-12.08
7.02
23.00
26.08
13.98
-6.35
-23.06
-26.28
-13.79
7.49
25.66
30.62
19.81
-0.22
-17.88
-23.37
-14.22
3.25
17.81
20.02
7.80
-11.99
-27.65
-29.53
-15.66
6.66
25.01
28.89
15.69
-7.35
-27.46
-33.64
-22.88
-2.01
16.57
22.09
11.63
-7.99
-24.63
-28.06
-15.87
4.97
22.48
26.60
15.07
-5.10
-22.00
-25.85
-14.58
4.96
21.13
24.44
13.01
-6.07
-21.08
-22.73
-9.44
11.43
28.02
30.86
18.42
-1.81
-17.92
-20.66
-8.80
10.01
23.94
24.05
9.65
-10.84
-25.05
-23.96
-7.27
16.00
32.75
33.15
16.61
-7.82
-26.58
-29.43
-15.21
7.60
26.17
30.71
19.97
1.37
-14.10
-18.47
-11.34
0.60
8.33
6.19
-4.60
-17.06
-23.10
-18.60
-5.85
7.68
13.91
8.78
-5.29
-20.50
-28.14
-23.42
-8.19
9.73
20.95
19.51
6.61
-10.28
-21.65
-21.27
-9.93
5.27
15.33
14.57
4.37
-8.20
-14.80
-10.81
1.80
15.79
23.33
20.48
9.80
-1.53
-6.21
-1.04
11.17
23.30
28.24
22.90
9.98
-3.81
-11.64
-10.33
-2.00
7.30
11.36
7.02
-3.78
-15.77
-23.30
-23.38
-17.33
-9.58
-4.87
-5.66
-10.57
-15.66
-16.87
-12.51
-4.35
3.30
6.24
2.74
-4.82
-11.22
-11.30
-3.09
10.84
24.10
29.90
24.74
10.90
-4.41
-12.80
-9.26
4.67
21.27
30.64
26.09
8.45
-14.11
-30.27
-31.77
-18.30
2.18
17.78
19.41
6.22
-13.89
-28.98
-30.12
-16.61
3.66
19.10
21.38
10.40
-5.67
-15.65
-12.32
3.32
22.39
33.55
29.74
12.33
-9.12
-22.54
-20.14
-3.10
18.90
32.89
29.79
9.75
-17.65
-38.61
-42.75
-28.89
-5.85
12.71
16.00
2.44
-19.46
-36.37
-38.13
-23.75
-1.99
14.11
15.15
1.10
-18.59
-30.95
-27.45
-9.12
13.94
28.69
26.89
9.96
-11.80
-25.47
-23.03
-6.08
15.32
28.63
26.17
9.60
-11.24
-24.33
-22.50
-7.53
11.14
22.21
19.11
4.02
-13.83
-23.73
-19.91
-4.82
12.57
22.25
19.08
5.87
-8.67
-15.30
-9.70
4.96
20.12
27.02
21.77
7.83
-6.33
-12.35
-6.74
6.93
20.44
25.75
19.60
5.57
-8.43
-14.86
-10.78
0.36
11.11
14.51
8.09
-4.41
-15.71
-19.38
-13.56
-2.38
6.80
7.65
-1.35
-15.64
-27.68
-31.14
-24.73
-13.13
-4.05
-3.85
-13.97
-29.66
-42.92
-46.58
-38.33
-22.22
-6.31
1.29
-3.52
-18.39
-36.31
-49.00
-51.50
-44.96
-35.74
-31.77
-38.20
-53.99
-72.86
-86.61
-90.11
-84.68
-77.35
-76.92
-88.65
-110.59
-134.82
-151.57
-155.00
-147.00
-136.05
-132.29
-141.11
-158.67
-173.61
-172.60
-147.49
-99.54
-38.15
24.83
81.48
129.83
173.72
218.88
267.86
317.19
358.92
384.89
390.98
378.97
354.48
324.35
293.45
263.37
233.35
201.96
168.59
134.47
102.02
73.83
51.75
35.92
24.85
16.04
7.13
-3.31
-15.12
-27.01
-37.27
-44.38
-47.79
-48.11
-46.83
-45.77
-46.43
-49.15
-53.27
-57.35
-59.77
-59.49
-56.33
-51.18
-45.41
-40.59
-37.51
-36.60
-38.18
-42.11
-47.15
-50.29
-46.98
-32.63
-5.34
32.99
76.19
115.96
145.16
160.48
163.08
156.86
147.20
135.04
120.11
101.63
79.56
55.22
30.82
8.32
-11.80
-29.33
-45.22
-60.18
-74.05
-85.86
-94.34
-98.49
-98.13
-94.09
-87.89
-81.48
-76.06
-72.23
-69.49
-67.00
-64.02
-60.19
-55.71
-50.96
-46.71
-43.30
-40.78
-38.88
-37.33
-35.89
-34.47
-33.11
-31.83
-30.76
-29.86
-29.10
-28.50
-28.32
-28.86
-30.36
-32.76
-35.63
-38.38
-40.41
-41.54
-42.15
-43.19
-45.79
-50.64
-57.58
-65.47
-72.61
-77.46
-79.35
-78.82
-77.63
-77.62
-79.57
-82.47
-83.43
-78.76
-65.97
-45.61
-20.85
3.40
22.85
35.42
41.52
42.85
40.64
35.20
26.76
17.15
10.38
11.03
21.34
38.97
57.02
67.41
65.46
52.81
36.99
26.90
27.54
37.19
48.37
52.73
46.05
30.94
15.68
8.85
14.03
27.62
40.55
43.75
33.53
13.94
-5.03
-13.39
-7.06
9.78
26.75
33.35
24.96
5.53
-14.18
-23.09
-16.08
3.05
23.44
33.47
27.23
7.75
-14.46
-27.57
-25.15
-9.39
10.01
21.74
19.26
4.34
-13.76
-24.06
-20.08
-3.43
16.91
29.81
27.83
11.57
-10.19
-25.50
-26.04
-11.77
8.72
23.18
22.72
6.94
-15.25
-30.97
-30.75
-14.09
9.87
27.54
28.51
11.61
-14.03
-34.27
-37.92
-23.10
1.75
22.98
29.61
19.51
0.33
-15.57
-18.55
-7.17
11.33
25.95
28.67
19.12
4.60
-5.01
-3.34
8.58
22.89
29.76
23.18
4.81
-16.36
-29.04
-25.88
-7.88
15.58
31.70
31.07
13.25
-12.83
-33.74
-38.99
-26.95
-5.54
12.78
18.23
9.47
-6.35
-18.49
-19.35
-8.94
5.68
15.34
14.47
4.54
-7.23
-12.64
-7.50
5.85
20.03
27.20
23.51
11.34
-2.33
-10.03
-8.10
1.27
11.35
14.95
8.54
-5.42
-20.15
-28.42
-26.55
-16.60
-4.90
1.71
-0.18
-8.29
-16.55
-18.64
-11.72
1.74
15.39
22.72
20.71
11.88
2.37
-1.61
2.62
12.55
21.97
24.68
18.06
4.98
-8.22
-15.23
-13.36
-5.15
3.15
5.35
-1.23
-13.97
-26.81
-33.76
-32.23
-24.53
-16.33
-13.26
-17.64
-26.68
-34.11
-33.77
-23.13
-5.00
13.69
25.56
26.77
19.29
9.67
5.12
9.37
20.45
31.64
35.39
27.78
11.39
-5.73
-14.39
-9.52
6.65
25.23
35.27
29.75
9.93
-15.02
-32.88
-35.04
-21.45
-0.57
15.52
18.04
6.66
-10.53
-22.26
-20.89
-6.89
11.49
23.54
22.53
9.76
-6.11
-14.58
-9.63
6.59
24.76
33.78
27.13
6.87
-17.03
-32.16
-30.55
-13.30
9.76
25.35
24.10
5.99
-19.44
-38.53
-41.24
-26.97
-4.89
11.49
12.22
-3.06
-24.86
-39.70
-38.23
-20.80
2.68
18.80
18.63
3.06
-17.78
-30.76
-27.61
-9.77
12.61
26.86
25.24
9.59
-10.08
-21.74
-18.52
-2.62
16.30
27.05
23.56
8.52
-8.66
-17.59
-13.07
1.99
18.59
27.16
23.12
9.59
-4.86
-11.52
-6.57
6.73
20.22
25.77
19.99
6.39
-6.99
-12.43
-6.93
5.91
18.12
22.15
15.15
1.04
-12.10
-16.73
-10.25
3.31
15.87
19.95
12.99
-0.81
-13.31
-17.21
-10.16
3.55
15.81
19.29
11.67
-2.60
-15.23
-18.84
-11.20
3.31
16.39
20.59
13.57
-0.25
-12.50
-15.79
-7.91
6.56
19.10
22.12
13.38
-2.23
-15.76
-19.30
-10.60
5.38
19.42
23.28
14.43
-2.14
-17.04
-21.97
-14.32
1.07
15.02
19.28
11.28
-4.06
-17.59
-21.30
-12.85
2.85
16.74
20.87
12.86
-2.34
-15.70
-19.38
-11.17
3.94
16.85
19.64
10.09
-6.45
-20.48
-23.80
-14.23
2.77
17.41
21.12
11.49
-5.89
-20.97
-25.02
-15.71
1.28
15.81
19.09
8.82
-9.04
-24.09
-27.51
-17.10
1.30
17.40
22.41
13.96
-2.30
-16.42
-19.98
-10.87
5.39
19.06
21.89
11.92
-5.01
-18.88
-21.30
-10.39
7.91
23.31
27.02
16.79
-1.48
-17.36
-21.94
-12.86
4.19
19.04
22.97
13.70
-2.96
-16.91
-19.67
-9.25
8.50
23.48
27.09
17.14
-0.59
-15.97
-20.39
-11.54
5.05
19.52
23.29
14.07
-2.62
-16.91
-20.42
-11.06
5.59
19.60
22.43
11.96
-5.98
-21.09
-24.68
-14.66
3.00
17.82
20.88
10.03
-8.46
-23.78
-26.83
-15.47
3.97
20.49
24.69
14.15
-4.90
-21.44
-26.15
-16.69
0.87
15.74
18.75
7.69
-11.05
-26.42
-29.21
-17.39
2.48
19.05
22.76
11.30
-8.60
-25.28
-28.99
-17.34
3.04
20.62
25.54
15.32
-3.52
-19.62
-23.44
-12.67
6.39
22.78
27.22
17.40
-0.62
-16.25
-20.62
-11.55
5.10
19.08
21.75
11.12
-6.56
-20.67
-22.36
-9.78
10.43
26.95
30.16
17.72
-3.64
-22.10
-27.59
-17.46
1.78
18.48
22.62
11.66
-7.67
-23.64
-26.41
-13.70
7.66
25.81
30.72
19.85
-0.15
-17.58
-22.61
-12.75
5.59
21.14
24.34
12.96
-6.30
-21.95
-24.51
-12.03
8.42
24.89
27.35
13.60
-9.01
-27.88
-32.39
-19.95
2.27
21.64
27.27
16.24
-4.52
-22.61
-27.45
-16.36
3.83
20.97
24.69
12.44
-8.77
-26.69
-31.02
-19.28
1.65
19.75
24.79
14.30
-4.92
-21.09
-24.44
-12.93
6.49
22.22
24.87
12.88
-6.28
-20.87
-21.86
-8.38
11.55
25.79
25.13
8.80
-14.59
-32.09
-33.85
-18.78
4.55
22.79
25.33
10.42
-13.66
-33.53
-38.36
-25.97
-3.88
15.44
21.90
13.58
-2.52
-15.32
-16.44
-5.13
11.63
23.85
24.71
14.60
0.83
-7.35
-4.37
8.29
22.91
30.23
24.85
8.55
-10.32
-21.58
-19.00
-3.86
15.35
27.63
25.50
9.63
-11.53
-26.48
-27.09
-13.45
6.41
21.31
23.34
12.59
-3.46
-14.75
-14.71
-4.05
10.12
19.02
17.70
8.02
-2.80
-6.88
-0.60
13.25
27.04
32.93
27.38
13.24
-2.10
-10.97
-9.83
-1.16
8.10
10.75
3.44
-11.14
-26.31
-35.17
-34.49
-26.52
-17.35
-13.14
-16.54
-24.88
-32.12
-32.42
-23.60
-8.51
6.56
15.49
15.63
9.58
3.17
1.92
7.89
18.41
27.57
29.80
23.10
10.35
-2.37
-9.37
-8.51
-2.41
3.00
1.91
-7.98
-23.60
-37.94
-43.51
-36.42
-18.80
1.91
16.66
19.43
10.84
-2.42
-11.39
-9.98
1.46
16.48
26.59
26.48
17.41
6.41
1.53
6.83
19.71
32.16
35.58
25.91
6.29
-13.98
-24.57
-19.80
-1.98
19.15
31.40
26.57
5.19
-23.15
-44.74
-49.13
-35.00
-11.11
8.62
12.91
-0.05
-21.77
-38.61
-40.02
-24.87
-1.95
15.66
18.52
6.51
-11.25
-22.54
-19.54
-3.53
15.90
26.99
22.75
5.29
-15.22
-26.69
-22.08
-3.57
18.62
31.99
28.85
10.74
-12.42
-28.15
-28.45
-14.35
4.91
17.54
16.03
1.85
-15.83
-25.86
-21.79
-5.80
12.81
23.37
20.12
5.70
-10.68
-18.98
-14.22
0.52
16.31
23.75
18.66
4.59
-9.54
-14.96
-8.21
6.76
21.19
26.74
20.30
5.95
-7.74
-12.90
-6.76
6.61
18.99
22.81
15.53
1.37
-11.51
-15.75
-8.98
4.71
17.33
21.62
15.15
1.99
-10.00
-13.79
-7.17
5.77
17.16
19.96
12.00
-2.34
-14.92
-18.49
-10.87
3.60
16.69
21.02
14.21
0.59
-11.67
-15.37
-8.30
5.21
17.12
20.31
12.69
-1.19
-13.17
-16.17
-8.29
5.92
18.26
21.54
13.69
-0.69
-13.29
-16.90
-9.52
4.22
15.87
18.08
8.90
-6.65
-19.68
-22.59
-13.50
2.40
16.00
19.44
10.59
-5.33
-19.10
-22.91
-14.73
0.29
13.08
15.93
6.97
-8.34
-20.77
-22.61
-12.19
4.95
19.39
23.12
14.17
-2.08
-16.18
-20.13
-11.89
3.27
16.00
18.34
8.30
-8.49
-22.34
-25.02
-14.57
3.31
18.65
22.85
13.54
-3.76
-19.08
-23.84
-15.61
0.41
14.68
19.02
11.21
-3.34
-15.31
-16.86
-6.28
10.84
24.98
28.13
18.35
1.18
-13.77
-18.41
-10.62
4.39
17.29
20.12
10.84
-5.15
-18.44
-21.11
-11.27
5.50
19.55
22.67
12.79
-4.40
-18.97
-22.63
-13.40
2.96
16.46
18.69
7.77
-10.18
-24.80
-27.52
-16.46
2.21
18.00
22.02
12.02
-6.05
-21.75
-26.29
-17.33
-0.44
14.40
18.69
10.21
-5.42
-18.41
-20.60
-10.19
7.03
21.13
23.81
13.23
-4.60
-19.38
-22.63
-12.39
5.40
20.52
24.37
14.90
-1.96
-16.03
-18.92
-8.76
8.45
22.56
25.12
14.30
-3.70
-18.43
-21.41
-10.91
6.69
20.79
22.63
10.46
-9.05
-24.82
-27.78
-16.06
3.65
20.03
23.68
12.43
-7.07
-23.48
-27.48
-16.91
1.76
17.57
21.45
11.44
-5.98
-20.02
-22.01
-10.32
8.50
23.68
26.48
15.18
-3.58
-18.86
-21.75
-10.39
8.75
24.69
28.21
17.07
-2.35
-19.00
-23.56
-13.72
4.30
19.54
22.69
11.42
-7.89
-24.12
-27.97
-17.20
1.90
18.35
22.80
12.95
-4.90
-19.82
-22.69
-11.47
7.44
23.00
25.97
14.24
-5.50
-21.93
-25.62
-14.47
4.89
21.06
24.46
12.89
-6.90
-23.34
-26.83
-15.29
4.45
20.78
24.17
12.64
-6.76
-22.50
-25.38
-13.91
4.67
18.91
19.85
6.37
-13.76
-28.60
-29.01
-14.00
8.46
25.94
28.52
14.48
-8.55
-28.06
-33.76
-23.31
-3.44
14.18
19.83
11.34
-4.86
-18.04
-19.74
-8.72
8.48
21.92
24.35
15.53
2.30
-6.09
-3.71
8.54
23.31
31.34
26.97
11.55
-6.73
-17.61
-14.56
1.37
21.60
34.59
32.10
14.23
-10.40
-29.11
-32.22
-18.55
3.89
22.60
27.70
17.65
-0.49
-15.75
-19.90
-12.25
0.62
9.60
8.89
-0.34
-11.09
-15.31
-9.09
4.87
18.82
24.72
18.98
4.43
-11.40
-20.69
-19.79
-10.98
-0.98
3.22
-1.70
-13.33
-25.54
-31.99
-29.70
-20.64
-10.28
-4.20
-4.93
-10.37
-15.51
-15.52
-8.61
2.78
13.36
18.20
15.48
7.90
0.84
-0.71
4.97
15.27
24.65
27.88
22.93
12.42
1.76
-3.91
-2.64
3.20
8.29
7.71
-0.25
-12.66
-23.89
-28.68
-25.16
-15.97
-6.65
-2.37
-4.99
-11.92
-17.95
-18.52
-12.33
-2.07
7.18
11.11
8.64
2.77
-1.24
0.92
10.00
22.58
32.41
33.73
24.31
7.26
-10.03
-19.43
-16.25
-2.02
15.69
26.97
24.71
8.95
-12.90
-30.00
-33.90
-23.46
-5.44
9.61
13.43
5.11
-8.62
-17.87
-15.69
-2.27
15.19
27.26
27.84
17.89
4.73
-2.75
0.45
12.50
25.66
30.94
23.31
4.84
-15.87
-28.39
-26.24
-10.62
9.73
23.05
20.88
2.97
-22.16
-41.77
-45.99
-33.42
-12.08
5.30
8.63
-3.39
-22.52
-36.24
-35.37
-19.69
1.86
16.79
16.54
1.83
-17.76
-29.70
-26.07
-8.32
13.59
27.21
24.95
8.60
-11.80
-24.19
-21.46
-5.61
13.85
25.61
23.23
8.90
-8.30
-17.98
-14.55
-0.40
15.91
24.86
21.61
8.84
-5.27
-12.10
-7.66
5.10
18.34
24.10
18.89
5.95
-7.01
-12.45
-7.29
5.18
17.48
22.30
16.74
4.24
-7.72
-12.02
-5.99
6.89
19.24
24.00
18.41
5.96
-6.09
-10.93
-6.10
4.84
14.73
16.98
9.44
-3.84
-15.31
-18.27
-10.78
2.96
15.17
18.86
11.82
-1.74
-13.94
-17.78
-11.17
1.63
12.65
14.85
6.27
-8.30
-20.40
-22.75
-13.52
2.34
16.05
20.00
12.07
-2.89
-16.13
-20.20
-13.02
0.65
12.42
15.07
6.82
-7.22
-18.49
-19.79
-9.62
6.75
20.44
23.87
15.05
-0.99
-15.33
-20.33
-13.72
-0.04
12.30
15.93
8.76
-4.55
-15.65
-17.40
-8.09
7.44
20.59
23.98
15.66
0.55
-12.65
-16.54
-9.21
4.51
16.07
18.23
9.28
-5.56
-17.54
-19.38
-9.55
6.68
20.37
23.97
15.52
0.02
-13.76
-18.35
-11.72
1.43
12.66
14.69
5.71
-9.14
-21.02
-22.51
-11.99
5.14
19.56
23.22
13.95
-3.01
-18.25
-23.67
-16.83
-2.55
10.35
14.21
6.94
-6.43
-17.22
-18.10
-7.51
9.27
23.25
26.78
17.86
1.53
-13.19
-18.60
-12.38
0.93
12.90
16.14
8.55
-5.10
-16.33
-17.87
-8.07
7.88
20.86
23.08
12.57
-5.21
-20.52
-25.07
-16.55
-0.32
13.97
17.91
9.18
-6.72
-20.09
-22.64
-12.35
5.25
20.43
24.86
16.35
0.32
-13.71
-17.73
-9.67
5.18
17.62
19.81
9.94
-6.34
-19.47
-21.50
-10.74
6.90
21.27
23.80
12.40
-6.81
-23.13
-27.52
-17.55
0.84
17.07
21.94
12.91
-4.10
-18.62
-21.67
-11.00
7.55
23.61
28.28
19.17
1.94
-13.31
-18.01
-9.88
5.64
18.80
21.22
10.81
-6.62
-20.90
-23.40
-12.08
6.95
22.91
26.35
14.69
-5.92
-24.19
-30.16
-20.79
-1.85
15.66
21.90
13.77
-3.09
-18.11
-22.08
-12.53
4.71
19.19
21.93
10.84
-7.82
-23.19
-26.23
-14.98
4.05
19.67
22.41
10.12
-10.33
-27.13
-30.30
-17.53
4.20
22.68
27.46
15.82
-5.35
-23.89
-29.52
-19.64
-0.91
14.98
18.22
6.68
-12.64
-27.94
-29.70
-16.16
5.44
23.14
27.08
15.12
-5.68
-23.42
-28.16
-17.47
2.18
19.44
24.67
15.50
-1.80
-16.29
-18.96
-7.95
10.35
25.30
28.35
18.04
0.96
-12.52
-14.49
-4.05
12.02
23.48
22.68
9.12
-9.77
-23.16
-23.06
-9.04
11.15
25.85
26.04
10.57
-12.82
-31.87
-36.67
-25.29
-4.77
13.06
18.48
9.54
-7.21
-20.92
-23.14
-12.70
4.00
17.41
20.66
13.55
2.28
-5.02
-3.39
6.14
17.24
22.50
17.88
5.15
-8.65
-15.44
-10.71
3.85
20.77
30.79
27.73
12.33
-7.99
-22.99
-25.12
-13.90
3.89
18.21
21.41
12.87
-1.28
-12.17
-13.58
-5.64
5.71
12.93
11.60
3.37
-5.42
-7.93
-1.13
12.23
25.12
30.53
25.37
12.25
-2.17
-11.09
-11.30
-4.80
2.62
4.95
-0.61
-11.81
-23.12
-28.84
-26.25
-17.22
-6.92
-0.70
-1.24
-6.76
-12.57
-13.86
-8.49
1.69
11.91
17.34
15.79
9.21
2.19
-0.74
2.29
9.34
15.76
17.07
11.52
1.26
-9.05
-15.07
-15.17
-11.37
-8.21
-10.15
-18.97
-32.15
-43.72
-47.16
-38.75
-20.10
1.96
18.47
22.77
14.42
-0.59
-13.07
-15.73
-7.31
6.87
18.42
21.06
14.68
5.09
-0.01
4.00
15.60
27.85
32.68
25.76
9.34
-8.41
-18.00
-13.96
1.88
20.85
31.83
27.33
7.89
-17.61
-36.66
-39.81
-26.11
-3.75
14.61
18.98
7.90
-10.98
-25.90
-28.00
-16.59
0.87
13.66
14.47
3.78
-10.47
-18.12
-13.13
2.76
20.77
30.27
24.95
6.70
-15.05
-28.57
-26.45
-9.79
12.08
26.77
25.67
8.99
-14.33
-31.78
-34.39
-21.89
-2.61
11.59
12.40
0.04
-17.01
-27.51
-24.19
-8.22
11.62
24.27
22.91
9.06
-8.51
-19.17
-16.70
-2.88
13.86
23.66
21.00
8.14
-6.69
-14.26
-9.95
3.63
18.41
25.75
21.51
8.50
-5.48
-12.48
-8.93
2.22
13.59
17.82
11.86
-0.91
-13.03
-17.35
-11.18
2.00
14.72
19.78
14.38
1.98
-9.99
-14.53
-8.99
3.18
14.72
18.76
12.83
0.64
-10.44
-13.62
-6.63
6.76
19.17
23.67
17.82
5.22
-6.89
-11.80
-7.13
3.65
13.55
16.12
9.19
-3.41
-14.45
-17.41
-10.31
2.90
14.70
18.24
11.21
-2.47
-15.16
-19.89
-14.26
-2.01
9.42
13.13
6.86
-5.43
-16.15
-18.44
-10.22
4.41
17.56
22.05
15.42
1.76
-10.97
-15.58
-9.64
2.91
14.27
17.36
9.97
-3.63
-15.44
-18.42
-10.59
3.63
16.03
19.33
11.32
-3.52
-16.83
-21.23
-14.41
-0.70
11.68
15.35
7.99
-5.94
-18.12
-21.16
-12.88
2.25
15.77
20.08
12.72
-1.89
-15.27
-19.92
-13.41
-0.05
11.97
15.33
7.85
-5.89
-17.54
-19.82
-10.76
4.88
18.46
22.35
14.26
-1.09
-14.90
-19.34
-11.88
3.07
16.94
21.89
15.27
1.39
-11.39
-15.47
-8.49
5.18
17.11
19.76
10.91
-4.55
-17.72
-20.91
-12.02
3.76
17.16
20.14
10.50
-6.31
-20.65
-24.22
-14.81
2.25
17.36
22.12
14.06
-1.72
-15.97
-20.61
-13.28
1.26
14.19
17.72
9.62
-5.14
-17.59
-19.90
-10.00
6.99
21.65
25.59
16.22
-1.34
-17.44
-23.40
-16.33
-0.96
13.40
18.25
10.82
-4.03
-17.11
-20.19
-10.88
5.84
20.62
25.11
16.68
0.27
-14.77
-20.07
-12.87
2.23
16.24
20.91
13.58
-1.04
-13.87
-16.90
-7.91
7.89
20.93
22.82
11.35
-7.65
-23.80
-28.09
-18.07
0.53
17.21
22.64
13.99
-3.29
-19.00
-24.15
-16.01
0.28
14.98
19.46
11.16
-4.69
-18.50
-21.92
-12.69
3.85
17.95
21.07
10.89
-6.93
-22.10
-25.64
-15.08
3.79
20.30
24.98
15.00
-3.84
-20.68
-25.94
-16.72
1.41
17.86
23.17
14.48
-2.60
-17.61
-21.43
-11.50
6.57
22.41
26.90
17.43
-0.40
-16.25
-21.05
-12.11
5.21
20.76
25.46
16.48
-0.81
-16.20
-20.68
-11.60
5.58
20.55
24.16
13.77
-4.87
-21.16
-25.86
-16.36
1.52
17.08
21.02
10.78
-7.49
-22.80
-25.82
-14.36
5.14
21.30
24.37
12.01
-9.14
-27.32
-32.51
-22.15
-2.68
14.39
19.16
9.12
-9.34
-25.04
-28.73
-18.37
-0.33
14.73
18.27
8.90
-6.69
-18.07
-17.52
-4.49
13.71
26.35
25.57
11.05
-9.25
-23.75
-23.90
-9.05
12.77
29.47
31.61
17.96
-3.71
-21.23
-24.90
-13.09
7.06
24.03
28.63
19.31
2.56
-11.32
-14.57
-6.21
7.80
18.76
20.59
13.42
2.91
-3.49
-1.34
8.30
19.59
25.76
23.08
12.84
0.58
-7.63
-8.54
-3.48
2.42
3.47
-3.33
-16.02
-28.68
-34.45
-29.30
-14.70
2.85
15.16
16.54
7.29
-6.98
-18.45
-21.51
-15.84
-6.15
1.20
2.07
-2.56
-7.90
-8.51
-1.91
9.74
20.73
25.41
21.25
10.45
-1.40
-8.62
-8.45
-2.50
4.26
6.50
1.51
-9.02
-20.35
-27.17
-26.51
-19.40
-10.08
-3.42
-2.37
-6.06
-10.99
-13.13
-10.24
-3.28
4.39
9.15
9.15
5.62
1.94
1.38
5.25
11.97
17.67
18.41
12.39
1.57
-8.92
-13.23
-7.95
5.63
21.41
31.22
29.09
14.93
-4.89
-20.72
-24.82
-15.84
0.14
13.19
15.13
4.86
-11.20
-22.99
-22.82
-10.18
8.01
21.66
23.54
13.56
-1.13
-10.86
-9.31
2.71
17.61
25.60
20.42
3.35
-17.02
-29.50
-26.64
-9.05
14.32
30.84
30.91
13.47
-13.07
-35.38
-42.56
-32.20
-11.63
6.60
12.08
2.80
-13.96
-26.55
-26.16
-12.25
7.25
20.98
20.95
7.54
-10.69
-22.30
-19.83
-4.21
15.60
28.00
25.43
8.90
-12.45
-26.74
-26.24
-11.70
8.06
21.48
20.88
7.06
-11.43
-23.60
-22.46
-9.15
8.04
18.75
16.81
3.96
-11.46
-19.76
-15.67
-1.51
14.38
22.68
18.55
4.62
-10.82
-18.79
-14.83
-1.55
13.13
20.72
17.09
4.97
-7.97
-13.72
-8.54
4.77
18.70
25.42
21.28
9.11
-3.77
-9.89
-5.90
5.39
16.88
21.43
15.93
3.49
-8.76
-13.78
-8.66
3.52
15.65
20.62
15.38
3.03
-9.39
-14.93
-10.74
0.15
10.81
14.53
8.64
-3.46
-14.72
-18.45
-12.19
0.55
12.55
16.94
11.12
-1.40
-13.25
-17.60
-11.91
0.26
11.57
15.12
8.48
-4.51
-16.25
-19.73
-12.60
1.24
14.06
18.64
12.41
-0.78
-13.19
-17.72
-11.83
0.72
12.39
16.12
9.48
-3.51
-15.07
-18.12
-10.39
3.97
16.89
20.92
13.47
-1.30
-15.17
-20.55
-14.70
-1.48
11.23
16.04
10.33
-1.91
-12.90
-15.50
-7.51
6.88
19.61
23.32
15.54
0.56
-13.33
-18.58
-12.54
0.75
13.13
16.98
9.63
-4.72
-17.71
-21.61
-13.78
1.50
15.63
20.53
13.31
-1.66
-15.59
-20.31
-12.97
2.09
16.11
20.90
13.63
-1.23
-14.89
-19.25
-11.58
3.78
18.18
23.54
16.95
2.57
-11.19
-16.52
-10.62
2.57
14.90
18.74
11.40
-2.93
-15.83
-19.52
-11.47
3.79
17.35
20.96
11.84
-5.15
-20.54
-25.66
-17.57
-1.05
14.45
20.12
12.92
-2.45
-16.67
-21.22
-13.36
2.26
16.45
20.89
12.92
-2.58
-16.33
-20.06
-11.26
5.05
19.40
23.16
13.66
-3.89
-19.58
-24.48
-15.79
1.30
16.76
21.50
12.56
-4.75
-20.31
-25.08
-16.21
1.11
16.96
22.41
14.64
-1.20
-15.38
-19.39
-10.78
5.17
18.79
21.59
11.32
-6.34
-21.20
-24.53
-14.05
4.38
20.19
24.08
13.42
-5.87
-22.84
-27.85
-18.04
0.84
17.83
23.15
13.77
-4.51
-20.80
-25.40
-15.41
3.48
20.60
26.35
17.73
0.25
-15.69
-20.88
-12.51
4.14
19.09
23.45
14.54
-2.31
-17.19
-21.43
-12.47
4.36
19.15
23.05
13.44
-4.14
-19.37
-23.14
-12.84
5.82
22.12
26.46
15.95
-3.52
-20.91
-26.43
-17.12
1.15
17.34
21.67
11.34
-7.46
-23.41
-26.81
-15.17
5.10
22.51
27.16
16.38
-3.41
-20.76
-25.88
-16.19
2.06
17.59
20.73
9.06
-10.83
-27.30
-30.55
-18.24
2.91
21.04
26.04
15.34
-4.43
-21.52
-26.04
-15.52
3.47
19.52
23.00
11.76
-7.35
-22.77
-25.05
-12.31
8.42
25.36
28.67
16.12
-5.39
-23.91
-29.31
-18.98
0.73
18.34
23.96
14.99
-2.46
-17.57
-21.26
-11.44
5.91
20.79
25.17
17.74
4.49
-5.45
-5.47
4.62
18.41
27.02
24.43
11.12
-5.65
-16.30
-14.40
-0.52
17.61
29.32
26.83
10.07
-12.99
-30.45
-33.11
-19.74
2.11
20.53
25.90
16.52
-1.02
-16.15
-20.65
-13.33
-0.13
10.32
12.00
5.28
-3.86
-7.93
-2.78
9.87
23.35
30.29
26.72
14.38
-0.47
-10.68
-12.23
-6.28
1.70
5.30
0.93
-9.90
-21.83
-28.61
-26.69
-17.36
-5.94
1.41
1.05
-5.70
-13.88
-17.71
-13.98
-4.01
7.14
13.72
12.47
4.89
-4.01
-8.54
-5.56
3.66
14.15
20.18
18.45
10.21
-0.01
-6.88
-7.42
-2.62
3.22
5.26
0.88
-8.56
-18.76
-25.00
-24.85
-19.50
-13.14
-10.41
-13.72
-21.36
-28.32
-28.97
-20.30
-3.99
13.93
26.02
27.33
18.54
5.70
-3.12
-2.32
7.75
20.76
27.94
23.23
7.48
-11.58
-23.46
-20.85
-4.16
18.01
33.32
32.38
14.25
-12.43
-34.11
-39.78
-27.16
-4.07
16.15
22.38
12.17
-7.02
-22.75
-25.18
-12.82
6.86
22.46
25.61
15.97
1.23
-8.09
-5.23
8.76
25.54
34.60
29.39
11.28
-10.70
-24.94
-23.75
-7.74
14.00
28.80
27.23
8.65
-18.16
-39.82
-45.82
-34.43
-13.76
3.15
6.02
-6.45
-25.83
-39.39
-37.79
-20.84
2.29
18.79
19.72
5.49
-14.48
-27.63
-25.70
-9.60
11.34
25.22
24.53
10.70
-7.03
-17.40
-13.77
1.97
20.79
31.94
29.32
14.97
-2.40
-12.77
-10.64
1.89
16.72
24.75
21.17
8.36
-5.95
-13.43
-9.94
2.06
15.23
21.74
17.79
6.03
-6.41
-12.23
-8.11
3.16
14.54
18.88
13.14
0.48
-11.77
-16.37
-10.31
3.14
16.51
22.25
17.11
4.25
-8.93
-15.07
-11.01
0.22
11.50
15.77
10.17
-1.88
-13.08
-16.42
-9.35
4.48
17.41
22.06
15.56
1.54
-12.24
-18.31
-13.63
-1.57
10.41
15.06
9.55
-2.50
-13.54
-16.46
-8.82
5.39
18.14
21.89
13.95
-1.42
-15.67
-20.89
-14.15
0.45
14.46
19.84
13.60
-0.22
-13.31
-17.87
-11.16
2.83
15.86
20.22
13.21
-1.02
-14.09
-18.34
-11.18
3.11
15.99
19.52
11.01
-4.97
-19.42
-24.00
-15.89
0.28
15.23
20.24
12.21
-4.13
-19.24
-24.30
-16.24
0.23
15.63
21.08
13.53
-2.25
-16.78
-21.39
-13.28
2.72
17.13
21.31
12.48
-4.31
-19.41
-24.13
-15.73
0.89
16.18
21.41
13.68
-2.18
-16.74
-21.44
-13.54
2.15
16.23
20.18
11.38
-5.01
-19.26
-22.74
-12.90
4.89
20.65
25.42
16.42
-0.98
-16.67
-21.58
-12.89
4.28
20.05
25.41
17.36
0.84
-14.52
-20.00
-12.64
2.90
17.40
22.29
14.64
-0.93
-15.19
-19.70
-11.68
4.16
18.48
22.73
14.15
-2.22
-16.79
-20.96
-12.20
4.23
18.46
21.75
11.66
-6.12
-21.22
-24.71
-14.23
4.36
20.43
24.70
14.56
-4.11
-20.61
-25.63
-16.52
1.02
16.47
20.56
10.70
-7.26
-22.68
-26.41
-16.13
2.13
17.60
20.98
9.97
-9.05
-24.93
-28.22
-16.56
3.66
21.23
26.46
16.64
-2.09
-18.69
-23.63
-14.17
4.01
20.41
25.78
17.33
0.42
-14.82
-19.60
-11.32
4.79
18.88
22.16
12.15
-5.61
-20.83
-24.48
-14.08
4.53
20.59
24.56
13.71
-5.87
-22.92
-27.63
-17.19
2.28
19.47
24.44
14.42
-4.33
-20.45
-24.21
-13.06
6.70
23.86
28.70
18.62
-0.16
-16.53
-21.01
-11.08
7.10
22.54
25.66
13.98
-6.10
-23.13
-27.26
-15.95
4.36
21.91
26.43
15.00
-5.87
-24.17
-29.45
-18.74
1.46
19.16
23.80
12.46
-8.13
-25.74
-29.89
-17.81
3.68
22.30
27.39
16.08
-4.78
-22.87
-27.59
-16.20
4.46
22.09
26.02
13.55
-8.27
-26.83
-31.33
-18.96
3.33
23.16
29.87
20.66
2.21
-13.82
-17.79
-7.73
9.55
22.84
23.31
9.87
-9.68
-23.49
-22.61
-6.31
16.94
34.11
34.89
17.66
-9.20
-31.81
-38.49
-26.30
-2.63
19.35
28.08
20.14
1.54
-16.68
-25.11
-21.29
-10.39
-0.94
0.75
-5.40
-13.45
-15.82
-8.32
6.98
22.51
29.60
23.42
6.09
-13.68
-25.19
-21.43
-3.07
21.24
39.27
41.61
27.24
3.87
-16.08
-22.46
-13.15
5.03
20.67
24.57
15.28
-0.71
-13.37
-15.42
-6.64
6.41
14.97
13.56
3.31
-9.04
-15.51
-11.79
0.24
13.59
20.41
16.50
3.70
-11.32
-20.88
-20.65
-11.94
-0.86
5.38
2.39
-8.69
-22.37
-31.91
-33.09
-26.50
-16.83
-9.88
-9.16
-13.59
-18.83
-19.83
-14.03
-2.93
8.81
16.18
16.68
11.99
6.66
5.29
9.71
17.84
24.61
24.94
16.65
2.37
-11.49
-17.93
-13.19
0.93
17.22
26.58
22.72
6.09
-15.91
-32.60
-35.70
-24.12
-4.62
11.99
17.09
9.45
-4.44
-14.56
-13.58
-1.27
15.38
26.89
27.03
16.73
3.51
-3.48
0.79
14.18
28.30
33.55
24.71
4.28
-18.15
-31.13
-27.57
-8.90
15.00
30.78
28.64
7.95
-21.87
-46.32
-53.55
-41.01
-16.82
5.01
12.68
3.47
-15.04
-30.07
-31.54
-18.11
2.19
17.40
18.98
7.06
-9.70
-19.83
-16.14
-0.01
19.31
30.40
26.40
9.15
-11.63
-24.03
-20.81
-3.58
17.88
31.24
28.41
10.49
-12.96
-29.39
-30.37
-16.44
3.44
17.33
17.21
3.82
-14.12
-25.47
-23.26
-8.85
9.10
20.06
17.87
4.55
-11.22
-19.48
-14.95
-0.19
16.15
24.53
20.22
6.16
-9.01
-16.08
-10.72
3.97
19.47
26.85
21.89
7.77
-7.18
-14.46
-10.22
2.43
15.51
20.97
15.36
2.07
-10.96
-15.98
-9.94
3.60
16.63
21.37
14.81
0.82
-12.36
-16.97
-10.10
4.23
17.69
22.32
15.20
0.48
-13.29
-18.07
-10.97
3.88
17.93
23.05
16.20
1.54
-12.42
-17.69
-11.43
2.30
15.13
19.24
11.89
-2.63
-15.81
-19.84
-12.10
3.07
17.06
21.82
14.48
-0.71
-15.16
-20.84
-14.80
-1.04
12.07
16.62
9.78
-4.25
-16.93
-20.41
-12.10
3.50
17.49
21.65
13.20
-3.14
-18.15
-23.39
-16.00
-0.54
13.92
19.04
12.01
-2.51
-15.53
-18.98
-10.41
5.33
19.13
22.81
13.98
-2.28
-16.54
-20.50
-11.74
4.60
18.92
22.68
13.25
-4.11
-19.52
-24.14
-15.24
2.08
17.95
23.40
15.44
-0.93
-15.99
-20.97
-13.07
2.85
17.27
21.58
13.04
-3.35
-17.98
-22.27
-13.56
3.22
18.57
23.79
16.01
0.07
-14.60
-19.43
-11.57
4.25
18.67
23.05
14.56
-1.87
-16.57
-20.83
-11.97
4.80
19.48
23.01
12.68
-5.92
-22.26
-27.08
-17.67
0.26
16.08
20.39
10.49
-7.70
-23.40
-27.36
-17.13
1.24
16.99
20.82
10.35
-8.23
-23.97
-27.59
-16.73
2.47
19.12
23.79
13.91
-4.53
-20.70
-25.28
-15.67
2.42
18.53
23.53
14.82
-1.97
-16.57
-20.16
-10.41
7.01
21.86
25.26
14.88
-3.34
-18.85
-22.61
-12.28
6.25
22.34
26.75
16.83
-1.66
-18.15
-23.42
-14.76
2.38
17.73
22.23
13.21
-3.70
-18.16
-21.18
-10.43
8.21
24.02
27.69
16.69
-2.83
-19.79
-24.60
-14.67
3.88
19.94
23.84
12.98
-6.31
-22.73
-26.66
-15.65
3.89
20.64
24.82
13.92
-5.65
-22.48
-26.84
-16.24
3.01
19.54
23.53
12.40
-7.36
-24.16
-28.02
-16.26
4.65
23.06
28.61
18.31
-1.58
-19.40
-24.83
-14.84
4.46
21.60
26.38
15.89
-3.44
-19.91
-23.40
-11.33
9.61
27.32
31.28
18.66
-3.71
-23.41
-29.63
-19.37
0.67
18.20
22.41
10.36
-11.00
-29.16
-33.36
-20.87
1.22
20.27
25.46
14.09
-6.68
-24.34
-28.44
-16.70
3.58
20.03
22.50
9.09
-12.39
-29.18
-31.00
-15.96
8.07
28.10
33.34
21.20
-1.02
-20.67
-27.05
-17.44
1.41
17.56
20.87
9.16
-10.44
-25.92
-27.54
-13.56
8.67
27.26
32.68
23.21
5.82
-8.54
-11.47
-1.99
13.01
23.29
21.50
7.64
-10.47
-21.91
-19.09
-2.34
19.74
34.85
33.74
15.72
-10.60
-31.73
-36.86
-23.88
-0.62
19.88
26.83
17.99
0.26
-14.93
-18.67
-9.76
5.21
16.65
18.01
9.70
-1.56
-7.54
-3.75
7.86
19.95
24.46
17.36
1.13
-16.44
-26.77
-25.14
-13.43
0.83
8.78
5.06
-8.77
-25.51
-36.20
-35.28
-23.76
-8.38
2.52
3.83
-3.17
-12.20
-15.91
-10.37
2.54
16.43
24.32
22.73
13.92
4.28
0.47
5.52
17.12
28.77
33.71
28.63
15.84
1.64
-7.16
-7.08
0.14
8.64
11.98
6.75
-5.32
-18.75
-27.45
-28.09
-21.91
-13.66
-8.60
-9.42
-14.62
-19.86
-20.71
-15.41
-5.97
2.99
6.97
4.30
-2.53
-8.17
-7.57
1.06
14.92
27.60
32.41
26.02
10.82
-5.83
-15.18
-11.80
3.16
21.85
33.51
30.12
11.41
-14.55
-35.39
-41.05
-29.54
-8.21
10.56
16.40
7.13
-10.20
-23.97
-25.14
-12.61
6.25
20.39
21.90
10.76
-5.02
-14.59
-10.98
4.81
24.05
35.47
31.83
14.18
-8.17
-23.06
-22.24
-6.34
15.13
29.01
25.83
5.52
-22.12
-42.83
-45.93
-30.45
-5.84
13.49
16.33
1.30
-22.40
-40.63
-42.67
-27.51
-4.34
13.23
15.34
1.88
-17.60
-30.05
-26.88
-9.20
12.99
27.00
25.06
9.05
-10.81
-22.22
-18.05
-0.53
20.35
32.82
30.13
14.54
-4.47
-15.92
-13.76
-0.26
15.72
24.17
19.88
5.67
-9.70
-16.86
-11.37
3.57
19.28
26.71
21.77
7.86
-6.53
-12.87
-7.52
6.12
19.91
25.77
20.36
7.20
-5.66
-10.52
-4.38
9.03
21.66
25.76
18.36
3.41
-10.85
-16.62
-11.02
2.06
14.44
18.35
10.97
-3.51
-16.70
-20.83
-13.29
1.55
15.06
19.24
11.31
-4.27
-18.75
-24.01
-17.21
-2.55
11.48
16.90
10.88
-2.43
-14.68
-18.18
-10.39
4.43
17.91
22.34
15.15
0.74
-12.37
-16.52
-9.30
4.83
17.30
20.34
11.57
-4.25
-18.16
-22.18
-13.95
1.66
15.46
19.18
10.35
-5.96
-20.24
-24.12
-15.16
1.44
16.06
20.14
11.18
-5.44
-19.90
-23.58
-14.04
3.40
18.96
23.90
15.63
-0.61
-15.10
-19.37
-10.96
4.96
18.87
22.37
13.10
-3.52
-17.72
-21.12
-11.52
5.57
20.27
23.98
14.28
-3.41
-19.23
-24.52
-16.66
-0.57
14.34
19.62
12.53
-2.15
-15.28
-18.75
-10.18
5.49
18.95
21.94
12.07
-5.30
-20.36
-24.51
-15.29
1.81
16.65
20.29
10.12
-8.17
-24.14
-28.65
-19.05
-0.83
15.74
21.56
13.81
-2.29
-16.91
-21.39
-13.11
2.92
17.26
21.58
13.44
-2.00
-15.28
-18.21
-8.62
8.12
22.31
25.48
15.33
-2.52
-17.92
-22.03
-12.39
5.40
20.98
25.26
15.51
-2.62
-18.71
-23.59
-14.52
3.12
19.21
24.74
16.94
0.99
-13.35
-17.57
-9.23
6.42
19.74
22.38
12.19
-5.11
-19.40
-22.11
-11.22
7.15
22.31
25.00
12.91
-7.55
-25.00
-29.63
-18.85
0.94
18.16
22.69
11.73
-8.18
-25.30
-29.51
-18.12
2.40
20.39
25.75
15.71
-3.38
-20.07
-24.54
-14.19
4.74
20.96
24.70
13.38
-6.57
-23.60
-27.78
-16.39
4.21
22.44
28.11
18.21
-1.11
-18.40
-23.70
-14.27
3.75
19.18
22.37
10.93
-8.52
-24.55
-27.59
-15.47
5.04
22.28
26.36
14.84
-5.51
-22.83
-27.01
-15.46
5.14
22.82
27.24
15.66
-5.08
-22.76
-26.89
-14.72
6.89
25.63
30.77
19.39
-1.69
-20.16
-25.46
-14.86
4.84
21.54
24.90
12.46
-8.64
-26.04
-29.44
-16.53
5.43
24.00
28.60
16.57
-5.08
-24.00
-29.66
-19.30
0.49
17.81
22.45
11.86
-7.24
-23.07
-25.83
-13.38
7.38
24.76
29.12
18.47
-0.31
-15.83
-19.08
-8.59
8.53
21.06
20.28
5.30
-15.94
-31.33
-31.51
-15.40
8.79
27.99
31.48
17.02
-7.64
-29.19
-36.38
-26.22
-5.66
12.81
18.53
9.05
-8.68
-22.77
-23.73
-10.17
10.58
27.18
31.09
21.48
5.46
-6.82
-8.40
0.64
13.31
20.49
16.48
2.59
-13.24
-21.19
-15.35
2.63
23.92
37.10
34.37
16.24
-8.44
-27.15
-30.53
-17.70
3.36
20.62
24.87
15.29
-0.94
-13.22
-14.15
-3.81
10.72
20.37
19.60
9.92
-1.47
-6.42
-0.95
12.33
25.72
31.20
25.01
9.88
-6.73
-16.90
-16.78
-8.56
0.90
4.25
-2.11
-15.79
-30.07
-37.79
-35.29
-24.59
-11.96
-4.14
-4.64
-11.53
-19.18
-21.57
-15.86
-4.05
8.23
15.19
14.02
6.87
-0.83
-3.66
0.71
10.10
19.07
22.27
17.46
6.95
-3.98
-10.27
-10.01
-5.45
-1.85
-4.29
-14.64
-29.80
-42.97
-47.03
-38.36
-19.22
2.85
18.67
22.14
13.78
0.32
-9.15
-8.35
2.57
17.09
26.43
24.78
13.25
-0.82
-8.35
-4.06
10.15
26.03
33.70
27.45
9.29
-11.64
-24.14
-21.30
-4.54
16.70
30.10
27.18
8.49
-16.58
-34.96
-37.24
-23.09
-1.32
15.37
17.71
5.33
-13.24
-26.04
-24.87
-10.12
9.53
22.62
21.73
7.96
-9.65
-19.80
-15.72
0.83
20.39
31.31
26.59
7.99
-14.52
-28.51
-26.18
-8.95
13.15
27.05
24.07
5.17
-19.48
-36.41
-36.48
-20.30
2.24
17.84
17.51
1.97
-18.98
-32.48
-30.29
-13.66
7.63
21.29
19.82
5.07
-13.22
-23.46
-19.22
-3.01
15.55
25.57
21.52
6.51
-9.85
-17.28
-11.07
5.26
22.22
30.05
24.40
9.01
-7.02
-14.60
-9.90
3.44
16.86
22.07
15.81
2.02
-10.87
-14.99
-7.59
7.15
20.71
25.11
17.52
2.22
-12.17
-17.60
-11.17
3.03
16.55
21.44
14.81
0.87
-11.94
-15.81
-8.14
6.73
20.27
24.61
17.15
2.38
-11.13
-15.63
-8.70
5.24
17.74
21.24
13.42
-1.12
-13.91
-17.50
-9.79
4.57
17.03
20.01
11.35
-4.16
-17.74
-21.70
-13.85
0.99
13.92
17.08
8.20
-7.63
-21.16
-24.36
-15.08
1.45
15.76
19.53
10.46
-6.12
-20.61
-24.69
-15.99
0.33
14.93
19.57
11.84
-3.19
-16.33
-19.66
-11.10
4.27
17.31
20.18
10.88
-5.22
-18.75
-21.78
-12.30
4.29
18.45
21.93
12.44
-4.58
-19.38
-23.51
-14.58
2.13
16.91
21.20
12.49
-3.95
-18.42
-22.48
-13.75
2.54
16.84
20.79
12.06
-4.05
-17.99
-21.54
-12.53
3.81
18.11
22.24
13.98
-1.49
-14.86
-18.19
-9.33
6.50
19.99
23.01
13.38
-3.42
-17.66
-20.97
-11.14
6.25
21.22
25.10
15.45
-2.14
-17.58
-22.16
-13.49
3.00
17.44
21.27
12.23
-4.11
-17.93
-20.97
-11.25
5.55
19.54
22.39
12.09
-5.45
-20.00
-22.98
-12.38
5.83
21.13
24.56
13.80
-5.09
-21.37
-25.88
-16.20
1.74
17.31
21.36
11.52
-6.15
-21.00
-24.11
-13.43
4.80
19.92
23.03
12.15
-6.30
-21.51
-24.61
-13.68
5.09
21.14
25.65
16.50
-0.37
-14.75
-18.17
-8.69
7.79
21.16
22.98
11.43
-7.12
-22.00
-24.30
-12.10
8.14
25.32
29.93
19.44
0.07
-17.10
-22.59
-13.88
3.03
17.42
20.16
9.13
-9.24
-24.03
-26.22
-14.00
5.96
22.39
25.90
14.29
-5.85
-23.16
-28.04
-18.12
0.33
16.16
19.84
9.01
-9.86
-25.47
-28.31
-16.15
4.44
22.00
26.71
16.04
-3.54
-20.56
-25.23
-14.97
3.91
20.20
24.28
13.72
-5.05
-20.71
-23.73
-11.82
8.60
26.22
31.33
21.37
2.51
-14.16
-19.19
-10.18
6.75
20.71
22.47
9.97
-10.02
-25.97
-28.32
-15.05
6.69
24.70
28.63
15.95
-6.22
-25.38
-30.96
-20.35
-0.58
15.98
18.90
5.86
-15.58
-32.62
-34.78
-20.05
3.59
22.84
26.61
12.50
-11.60
-32.19
-37.99
-26.33
-4.61
14.32
19.83
9.71
-8.59
-22.91
-23.76
-9.97
10.74
26.67
29.20
17.76
0.22
-12.27
-11.98
0.94
18.52
29.91
27.71
12.39
-7.61
-20.86
-19.50
-3.77
17.74
32.84
32.47
16.13
-7.73
-26.41
-30.13
-17.58
3.48
21.05
25.84
16.71
0.61
-12.03
-13.76
-4.30
9.88
20.18
21.29
14.11
4.83
0.40
4.12
13.74
22.79
24.69
16.61
1.46
-13.29
-19.72
-13.85
1.90
19.25
28.35
22.94
4.31
-19.22
-36.61
-40.09
-29.62
-12.73
0.12
1.71
-7.47
-20.20
-27.19
-22.88
-8.81
7.56
17.81
17.50
8.93
-0.73
-4.03
2.12
14.74
26.46
30.08
22.62
7.13
-9.20
-19.10
-19.18
-11.64
-2.79
0.77
-4.30
-16.01
-28.75
-36.51
-36.15
-29.08
-20.02
-13.96
-13.29
-16.36
-18.86
-16.74
-8.65
3.05
13.54
18.38
16.02
9.13
3.13
3.07
10.69
23.11
33.88
36.38
27.42
9.70
-9.00
-19.58
-16.45
-1.01
18.37
30.46
27.03
8.04
-18.01
-38.39
-43.05
-30.41
-8.27
10.80
16.62
7.47
-9.28
-22.02
-22.12
-9.00
9.79
23.66
25.62
16.44
4.11
-1.78
3.99
18.91
34.06
39.50
30.02
8.59
-14.77
-28.35
-25.06
-6.71
16.51
31.15
27.55
5.53
-25.14
-49.76
-56.58
-43.43
-18.87
2.77
9.61
-0.72
-20.10
-35.29
-36.16
-21.80
-0.79
14.51
15.72
3.64
-12.44
-20.85
-14.93
2.93
22.71
32.94
27.48
9.34
-11.06
-22.05
-17.39
0.09
20.21
31.38
27.13
10.06
-10.04
-21.98
-19.60
-5.39
11.38
20.30
16.00
1.50
-13.96
-20.70
-14.41
1.22
16.93
23.52
17.28
2.40
-11.90
-16.84
-9.30
6.41
21.23
26.73
19.93
5.15
-8.82
-13.94
-7.52
6.23
18.93
22.92
15.77
1.85
-10.60
-14.29
-7.09
6.60
18.64
21.88
14.23
0.15
-12.25
-15.98
-9.06
4.20
15.88
19.08
11.74
-1.81
-13.70
-17.09
-9.98
3.42
15.33
18.83
11.80
-1.52
-13.34
-16.81
-9.98
2.84
13.78
15.92
7.40
-7.06
-19.10
-21.61
-12.80
2.40
15.30
18.43
9.81
-5.51
-18.64
-22.05
-13.79
1.17
14.12
17.66
9.91
-4.16
-15.97
-18.38
-9.78
4.82
16.83
19.13
10.11
-4.93
-17.08
-19.02
-9.18
7.04
20.53
23.65
14.55
-1.43
-15.12
-18.89
-10.85
3.82
16.19
18.77
9.74
-5.59
-18.29
-20.92
-11.78
3.95
17.47
21.34
13.65
-0.62
-12.85
-15.85
-7.84
6.23
17.81
19.69
10.19
-5.38
-18.04
-20.28
-10.41
6.19
20.15
23.49
14.07
-2.71
-17.28
-21.39
-12.76
3.38
17.56
21.48
12.78
-3.24
-17.12
-20.73
-11.90
4.14
18.07
21.78
13.08
-2.82
-16.61
-20.37
-12.03
3.22
16.08
18.61
8.80
-7.81
-21.57
-24.29
-14.06
3.45
18.22
21.67
11.58
-6.19
-21.30
-24.93
-14.84
3.08
18.40
22.17
12.08
-5.84
-21.07
-24.70
-14.55
3.57
19.40
24.19
15.68
-0.53
-14.57
-18.22
-9.54
5.84
18.24
19.61
8.31
-9.48
-23.47
-25.18
-12.90
6.94
23.40
27.17
15.85
-4.31
-22.14
-28.03
-19.33
-1.91
13.52
17.77
8.47
-8.27
-21.97
-23.94
-12.41
6.38
21.98
25.79
15.94
-1.47
-16.21
-19.90
-10.76
5.33
18.41
20.27
9.24
-8.35
-22.13
-23.62
-11.18
8.68
25.07
28.84
17.82
-1.59
-18.27
-22.93
-13.19
4.87
20.54
24.70
15.01
-2.56
-17.67
-21.65
-12.46
4.22
18.55
22.27
13.46
-2.27
-15.29
-17.72
-7.90
8.42
21.52
23.32
12.08
-6.10
-20.89
-23.67
-12.44
6.60
22.58
26.09
14.52
-5.94
-23.98
-29.78
-20.40
-1.76
15.16
20.61
11.82
-5.30
-19.97
-23.09
-12.46
5.66
20.49
23.01
11.27
-8.07
-23.86
-26.96
-15.58
3.44
18.70
20.72
7.63
-13.42
-30.48
-33.67
-20.89
0.71
19.00
23.80
12.72
-7.24
-24.15
-28.22
-17.36
1.55
17.04
19.85
8.38
-10.07
-23.95
-24.35
-10.18
10.79
26.56
27.64
12.71
-10.24
-28.56
-32.03
-18.70
3.97
23.52
29.61
19.96
1.40
-14.61
-18.83
-9.46
7.10
20.79
23.96
15.92
3.04
-5.81
-4.83
5.34
18.01
24.82
20.83
7.49
-7.70
-15.74
-11.28
4.12
22.35
33.04
29.12
11.30
-12.04
-29.09
-31.03
-17.12
4.84
22.97
27.92
18.38
1.15
-13.32
-17.23
-10.01
1.94
9.91
8.42
-1.22
-12.17
-16.70
-11.18
1.61
14.20
19.07
13.10
-0.67
-14.90
-22.27
-19.51
-9.12
2.28
7.92
4.45
-6.13
-18.25
-26.03
-26.45
-20.93
-13.94
-10.03
-11.18
-15.15
-17.40
-13.73
-3.02
11.69
24.71
30.72
27.70
18.52
9.06
5.07
9.03
18.74
28.61
32.92
28.98
18.77
7.29
-0.32
-1.66
1.64
5.16
4.51
-2.10
-12.72
-23.08
-29.16
-29.36
-25.36
-20.93
-19.56
-22.47
-27.40
-30.09
-26.65
-15.97
-0.70
13.78
22.06
21.59
14.46
6.33
3.30
8.47
19.93
31.41
35.67
28.50
11.82
-6.94
-18.52
-16.93
-3.09
15.05
26.49
23.14
4.72
-20.54
-40.25
-44.52
-31.67
-9.27
10.21
16.50
7.49
-9.73
-23.58
-25.15
-13.38
4.44
17.57
18.48
7.50
-7.29
-15.42
-10.46
5.93
24.69
34.67
29.04
9.41
-14.49
-30.25
-29.62
-13.17
9.73
26.08
26.34
9.96
-14.22
-33.15
-36.94
-24.53
-4.14
11.77
13.87
1.65
-16.55
-28.87
-27.27
-12.39
6.89
19.09
17.01
2.26
-15.79
-25.84
-21.35
-4.50
15.26
26.85
24.04
9.04
-8.99
-19.46
-16.59
-2.47
14.43
24.46
22.43
10.56
-3.34
-10.76
-7.45
4.09
16.58
22.41
18.11
6.62
-4.87
-9.31
-3.93
8.04
19.38
23.17
16.74
3.51
-9.21
-14.54
-9.81
1.72
12.97
17.19
11.77
0.05
-11.00
-14.89
-9.30
2.37
13.29
17.08
11.52
0.14
-10.24
-13.46
-7.50
4.03
14.30
17.09
10.39
-1.99
-13.00
-16.32
-10.04
2.05
12.79
15.77
8.95
-3.69
-14.81
-17.89
-10.92
2.10
13.62
16.88
9.67
-3.84
-15.90
-19.53
-12.46
1.30
13.99
18.56
12.57
-0.04
-11.67
-15.44
-9.15
3.26
14.26
17.05
9.61
-3.75
-15.14
-17.70
-9.55
4.81
17.21
20.42
12.32
-2.52
-15.66
-19.68
-12.27
2.18
15.32
19.60
12.54
-1.43
-13.98
-17.59
-9.86
4.87
18.26
22.63
15.40
0.81
-12.76
-17.70
-11.46
1.78
13.81
17.11
9.34
-4.99
-17.41
-20.41
-11.84
3.58
17.11
20.97
12.79
-2.64
-16.37
-20.45
-12.46
2.86
16.50
20.34
11.83
-4.09
-18.16
-22.15
-13.61
2.48
16.74
20.79
12.06
-4.37
-19.00
-23.45
-15.32
0.25
13.78
16.99
7.61
-8.80
-22.50
-25.12
-14.58
3.51
19.26
24.05
15.44
-1.20
-16.09
-20.79
-12.79
2.88
16.82
20.72
12.15
-3.72
-17.50
-20.89
-11.53
5.50
20.77
25.81
17.97
2.13
-12.39
-17.35
-10.26
4.05
16.44
18.86
9.14
-7.30
-20.88
-23.30
-12.46
6.07
22.28
27.25
18.25
0.42
-16.31
-23.08
-16.95
-2.66
10.46
14.04
5.59
-9.66
-22.14
-23.63
-12.08
6.82
22.98
27.57
18.12
0.23
-15.83
-21.13
-13.06
3.04
17.27
20.94
11.61
-5.17
-19.51
-22.94
-13.32
3.80
18.50
22.23
12.66
-4.71
-19.94
-24.49
-15.89
0.62
15.35
19.78
11.40
-4.52
-18.22
-21.26
-11.29
6.21
21.22
24.91
14.81
-3.34
-19.08
-23.35
-13.64
4.26
19.88
24.06
14.30
-3.50
-18.85
-22.79
-13.03
4.59
19.73
23.53
13.70
-3.88
-18.84
-22.47
-12.67
4.62
18.96
21.53
10.22
-8.72
-24.40
-27.66
-16.33
3.19
19.71
23.58
12.31
-7.64
-24.77
-29.26
-18.55
0.97
17.91
22.47
12.14
-6.54
-22.12
-25.00
-12.97
7.29
24.23
28.12
16.65
-3.48
-20.68
-25.22
-14.77
4.30
20.83
25.33
15.53
-2.33
-17.45
-20.87
-10.63
7.10
21.90
25.30
15.62
-0.88
-14.12
-16.31
-6.36
9.28
20.70
20.36
7.63
-10.42
-23.25
-22.95
-8.98
11.11
25.91
26.47
11.70
-10.68
-28.63
-32.47
-20.53
0.02
17.53
22.65
13.85
-2.16
-14.86
-16.34
-5.92
9.87
21.77
23.41
14.95
2.58
-5.88
-5.69
2.11
11.58
15.84
11.27
-0.37
-12.84
-19.24
-16.01
-5.01
7.25
13.30
8.79
-4.58
-19.91
-28.78
-25.80
-12.01
5.67
18.23
19.48
9.83
-4.54
-15.24
-16.67
-9.04
2.08
9.58
9.16
2.13
-5.82
-8.41
-2.56
9.55
21.80
27.80
24.48
13.89
1.76
-5.79
-5.64
0.69
8.08
10.91
6.23
-4.27
-15.65
-22.43
-21.63
-14.51
-5.64
-0.14
-0.87
-6.60
-13.29
-16.41
-13.67
-6.31
1.76
6.46
5.92
1.68
-2.49
-3.12
0.90
7.51
12.39
11.46
3.22
-9.74
-21.55
-25.77
-18.85
-2.48
16.39
28.65
27.62
13.16
-7.82
-24.77
-29.15
-19.29
-1.50
13.62
17.25
7.90
-7.93
-19.81
-19.77
-7.13
11.07
24.65
26.40
16.38
1.86
-7.57
-5.80
6.18
20.76
28.42
23.40
7.19
-11.72
-22.78
-19.38
-2.74
18.18
31.36
28.18
8.43
-19.00
-40.74
-46.14
-33.23
-9.95
10.40
16.59
6.11
-13.69
-30.44
-34.05
-22.76
-3.78
11.59
14.95
5.83
-8.19
-16.77
-13.25
1.26
18.45
28.01
23.69
7.23
-12.40
-24.17
-21.28
-5.12
15.37
28.66
27.07
11.25
-10.22
-25.83
-27.62
-15.73
1.93
14.55
14.66
2.81
-13.22
-23.27
-20.98
-7.60
8.96
19.04
17.01
4.73
-9.81
-17.46
-13.30
0.44
15.91
24.38
21.32
9.20
-4.38
-11.26
-7.46
4.51
17.45
23.78
19.92
8.52
-3.45
-8.95
-4.85
6.02
16.80
20.56
14.43
1.58
-10.85
-15.95
-10.95
0.89
12.45
16.75
11.03
-1.37
-13.27
-17.82
-12.40
-0.33
11.30
15.72
10.34
-1.27
-11.99
-15.18
-8.57
4.19
15.89
19.84
13.72
1.28
-10.17
-13.99
-7.98
4.06
14.77
17.42
9.79
-3.97
-16.08
-19.48
-11.89
2.58
15.95
20.78
14.36
0.52
-12.82
-18.32
-13.18
-0.97
10.82
15.10
9.27
-2.91
-13.97
-17.04
-9.89
3.55
15.64
19.28
12.07
-1.92
-14.73
-19.06
-12.39
1.32
14.10
18.54
11.94
-1.70
-14.43
-18.89
-12.50
0.95
13.74
18.61
12.95
0.50
-11.11
-14.86
-8.41
4.34
15.58
18.10
9.54
-5.65
-19.00
-22.74
-14.32
1.78
16.68
22.04
14.84
-0.62
-15.40
-21.21
-15.01
-0.92
12.54
17.40
10.89
-2.65
-14.84
-18.07
-9.98
4.99
18.37
22.40
14.52
-0.91
-15.30
-20.77
-14.51
-0.57
12.68
17.39
10.72
-3.11
-15.61
-18.97
-10.65
4.88
18.75
22.78
14.30
-1.95
-16.67
-21.51
-13.83
1.52
15.18
18.72
9.53
-7.20
-21.88
-26.05
-17.22
-0.47
14.67
19.71
12.03
-3.46
-17.41
-21.70
-13.82
1.39
14.95
18.86
10.84
-4.11
-16.87
-19.53
-10.01
6.54
20.72
24.26
14.78
-2.41
-17.57
-22.20
-13.80
2.46
16.90
20.96
12.10
-4.36
-18.72
-22.49
-13.26
3.75
18.95
23.82
15.75
-0.30
-14.97
-20.07
-12.97
1.74
15.21
19.55
12.29
-1.88
-14.12
-16.72
-7.49
8.60
22.34
25.57
15.88
-1.48
-16.76
-21.38
-12.73
3.99
19.02
23.61
15.02
-1.58
-16.54
-21.26
-13.17
2.68
16.77
20.57
11.54
-5.11
-19.62
-23.43
-14.04
3.19
18.25
22.15
12.18
-6.13
-22.28
-26.91
-17.11
1.61
18.61
24.22
15.33
-2.49
-18.55
-23.38
-14.09
3.65
19.24
23.29
13.15
-5.19
-20.82
-24.36
-13.33
6.07
22.75
27.00
16.08
-3.85
-21.57
-27.24
-17.93
0.62
17.51
23.01
14.09
-3.58
-19.23
-23.40
-13.36
5.04
20.95
24.74
13.73
-5.87
-22.79
-27.20
-16.43
3.20
20.19
24.46
13.24
-6.93
-24.25
-28.54
-17.18
3.07
20.14
23.53
10.61
-11.53
-30.22
-34.66
-22.05
0.54
20.38
26.42
15.65
-5.08
-23.42
-28.78
-18.43
1.14
18.51
24.22
16.24
1.01
-11.21
-12.60
-2.48
12.38
22.12
19.79
5.64
-12.51
-23.92
-21.13
-4.40
17.87
33.63
33.78
17.54
-6.91
-26.81
-31.91
-20.24
0.97
19.74
26.20
18.37
2.54
-11.00
-14.31
-6.36
6.90
16.89
17.73
9.92
-0.47
-5.82
-1.78
10.13
23.41
30.61
27.62
15.88
1.46
-8.58
-10.12
-4.15
4.02
8.19
4.73
-5.07
-16.42
-23.74
-23.87
-17.90
-10.26
-5.84
-7.29
-13.11
-19.03
-20.47
-15.29
-5.22
5.11
10.85
9.59
3.27
-3.41
-5.43
-0.49
9.65
20.01
25.23
22.57
13.62
3.09
-3.81
-4.27
0.59
6.46
8.57
4.36
-4.80
-14.85
-21.22
-21.35
-16.08
-9.02
-4.23
-4.03
-7.64
-11.99
-13.78
-11.43
-6.07
-0.94
0.62
-2.87
-9.56
-15.13
-15.03
-7.14
6.68
20.80
28.49
25.41
12.49
-3.99
-15.38
-15.30
-3.35
14.01
26.78
26.86
13.10
-7.75
-24.59
-28.25
-16.88
2.77
19.20
22.88
11.97
-6.47
-20.95
-22.46
-9.87
9.36
23.79
24.89
12.18
-6.35
-19.32
-18.78
-4.89
13.91
26.00
23.28
6.01
-16.80
-32.56
-32.22
-15.48
8.61
26.59
28.07
11.65
-13.97
-34.97
-40.20
-27.57
-5.15
13.74
18.41
7.09
-12.18
-26.88
-27.61
-13.79
6.21
20.33
20.12
5.87
-13.52
-26.09
-23.90
-7.80
13.08
26.77
25.38
9.83
-10.81
-24.70
-24.16
-10.06
8.95
21.69
21.03
8.16
-8.53
-18.72
-16.36
-3.23
12.40
20.97
17.34
4.03
-10.58
-17.42
-12.07
2.61
18.37
26.45
22.62
9.68
-4.52
-11.79
-8.22
3.60
16.41
22.59
18.55
7.10
-4.72
-9.68
-4.61
7.56
19.79
24.84
19.52
6.77
-6.34
-12.69
-9.14
1.47
12.30
16.44
10.94
-1.00
-12.39
-16.39
-10.43
2.09
13.90
17.94
11.47
-1.96
-14.80
-19.84
-14.28
-1.63
10.58
15.01
8.82
-4.29
-16.61
-20.77
-14.00
0.07
13.74
19.55
14.56
2.26
-9.81
-14.47
-9.02
3.00
14.14
17.36
10.20
-3.26
-15.10
-18.03
-9.73
5.51
19.30
23.80
16.20
0.67
-14.30
-20.73
-15.55
-2.54
10.21
14.95
8.79
-4.32
-16.29
-19.57
-11.58
3.53
17.43
22.26
15.13
0.10
-14.35
-20.25
-14.58
-1.12
11.93
16.77
10.48
-2.90
-15.11
-18.48
-10.43
4.77
18.54
22.84
14.88
-0.96
-15.79
-21.40
-14.83
-0.38
13.10
17.32
9.33
-6.31
-20.53
-24.86
-16.43
0.28
16.11
22.42
16.00
1.14
-13.17
-18.63
-12.26
1.70
14.56
18.29
10.30
-4.64
-17.50
-20.23
-10.53
6.50
21.33
25.36
15.89
-2.06
-18.72
-25.25
-18.54
-3.20
11.49
16.86
9.89
-4.76
-17.94
-21.24
-12.00
4.98
20.38
25.58
17.71
1.54
-13.48
-18.80
-11.55
3.61
17.43
21.49
13.11
-2.74
-16.61
-20.07
-10.63
6.53
21.65
25.85
16.37
-1.57
-17.88
-23.47
-15.28
1.66
17.43
22.86
14.85
-1.57
-16.44
-20.76
-11.70
5.47
20.56
24.32
13.93
-4.97
-21.68
-26.72
-17.24
1.04
17.28
21.77
11.60
-7.27
-23.81
-28.23
-17.72
1.78
19.17
24.55
14.90
-3.92
-20.89
-26.28
-17.11
0.95
17.20
22.00
12.47
-5.62
-21.38
-25.26
-14.54
4.83
21.73
26.26
15.49
-4.48
-22.20
-27.49
-17.18
2.86
21.38
28.10
19.63
1.60
-15.02
-20.32
-11.18
6.89
23.16
27.89
18.00
-0.94
-18.20
-24.14
-15.67
1.87
17.98
23.13
14.23
-3.26
-18.76
-22.82
-12.64
6.05
22.30
26.32
15.17
-5.05
-22.95
-28.40
-18.45
0.70
17.48
21.59
10.14
-10.26
-27.55
-31.27
-18.74
3.16
21.93
26.72
14.58
-7.47
-26.70
-32.11
-20.64
0.98
20.35
26.58
16.59
-3.08
-20.47
-25.29
-14.87
4.34
20.89
25.14
14.90
-3.18
-17.97
-20.54
-9.35
8.70
22.49
23.21
9.62
-10.80
-26.28
-27.55
-13.28
8.77
26.04
28.25
13.38
-10.85
-31.32
-36.95
-24.96
-2.40
18.11
25.63
17.31
-0.30
-15.67
-19.17
-8.74
9.28
24.46
28.70
20.99
7.76
-1.62
-0.66
10.44
24.83
33.40
30.22
16.18
-1.14
-11.96
-10.00
3.74
21.16
31.51
27.41
9.50
-13.78
-30.77
-33.05
-20.43
-0.99
13.77
15.41
3.59
-14.31
-27.91
-29.98
-20.57
-6.42
3.66
4.19
-3.64
-13.24
-16.96
-10.89
2.75
16.91
23.99
20.19
7.69
-6.76
-15.72
-15.28
-7.03
2.90
7.63
3.43
-7.87
-20.33
-27.23
-24.84
-14.55
-1.98
6.37
6.62
-0.04
-8.63
-13.25
-10.48
-1.30
9.56
16.55
16.38
10.22
2.41
-2.03
-0.44
5.91
12.53
14.65
9.99
0.34
-9.51
-14.77
-13.40
-7.40
-1.85
-1.98
-10.20
-24.05
-37.14
-42.17
-34.82
-16.48
5.78
22.57
26.81
17.95
2.19
-10.97
-13.93
-5.38
9.13
20.81
23.00
15.49
4.34
-2.16
1.14
12.92
25.87
31.19
23.80
5.73
-14.31
-25.63
-21.53
-3.24
20.13
36.13
35.65
18.06
-8.03
-29.46
-35.69
-24.74
-4.23
13.26
17.50
6.75
-11.44
-25.23
-25.69
-12.24
7.24
21.51
22.81
11.47
-4.41
-14.35
-11.87
1.63
17.64
25.79
19.99
2.22
-18.20
-29.96
-26.29
-8.89
12.63
26.01
23.16
4.97
-19.05
-36.10
-37.30
-22.83
-1.74
13.43
13.93
0.23
-18.56
-30.30
-27.14
-10.22
11.05
24.76
23.46
8.68
-10.27
-21.90
-19.44
-4.69
13.36
24.01
21.24
7.31
-8.96
-17.54
-13.26
1.32
17.68
26.43
22.85
9.65
-5.01
-12.49
-8.64
3.75
16.96
22.83
17.64
4.49
-8.85
-14.42
-8.77
4.98
19.05
25.45
20.58
7.57
-5.92
-12.19
-7.94
3.61
14.93
18.56
11.62
-2.06
-14.56
-18.39
-10.97
3.51
16.69
20.68
12.69
-2.94
-17.50
-22.87
-16.17
-1.66
12.00
16.67
9.46
-5.21
-18.58
-22.59
-14.56
1.09
15.59
20.78
13.83
-0.93
-14.78
-19.72
-12.93
1.41
14.81
19.35
12.29
-1.98
-14.82
-18.27
-9.72
6.35
21.02
25.93
18.10
1.97
-13.42
-19.61
-13.51
0.69
14.18
18.70
11.32
-3.50
-16.95
-20.95
-12.86
2.76
16.99
21.66
14.04
-1.28
-15.28
-19.88
-12.47
2.25
15.25
18.35
9.00
-7.73
-22.34
-26.33
-17.11
0.28
16.16
21.68
13.86
-2.47
-17.79
-23.47
-16.56
-1.69
12.06
16.40
8.73
-6.01
-18.61
-20.92
-10.72
6.76
21.92
26.22
17.06
-0.36
-16.33
-22.12
-14.87
0.65
15.11
20.01
12.55
-2.46
-15.76
-19.03
-9.77
7.09
22.03
26.46
17.59
0.44
-15.28
-20.81
-13.22
2.64
17.24
21.88
13.72
-2.17
-16.21
-19.86
-10.66
6.05
20.41
23.65
13.22
-5.26
-21.52
-26.50
-17.46
0.20
16.22
21.39
12.75
-4.40
-19.91
-24.66
-15.76
1.59
17.32
22.32
13.74
-2.97
-17.55
-21.01
-10.84
7.20
22.58
26.03
15.02
-4.35
-21.10
-25.66
-15.43
3.61
20.44
25.34
15.42
-3.42
-20.28
-25.57
-16.43
1.53
17.71
22.67
13.58
-3.89
-19.11
-22.74
-12.18
6.73
23.13
27.41
16.79
-2.69
-19.82
-24.76
-14.61
4.68
21.97
27.31
17.67
-1.07
-17.88
-23.00
-13.55
4.73
21.03
25.76
16.03
-2.37
-18.70
-23.54
-14.15
3.72
19.38
23.30
12.78
-6.25
-22.69
-26.83
-15.98
3.68
20.69
24.99
13.77
-6.46
-23.90
-28.35
-17.18
2.93
20.00
23.79
11.80
-8.91
-26.03
-29.29
-16.39
5.42
23.64
27.73
15.22
-6.62
-25.13
-29.70
-17.78
3.54
21.71
26.05
13.90
-7.57
-25.72
-29.88
-17.45
4.43
23.14
27.90
15.96
-5.53
-23.97
-28.65
-16.85
4.52
23.10
28.31
17.36
-2.86
-20.15
-24.20
-12.55
7.85
24.78
27.89
14.70
-7.67
-26.78
-32.09
-20.99
-0.36
17.61
22.54
11.90
-7.46
-23.65
-26.93
-15.34
4.10
19.92
23.01
12.09
-5.40
-18.09
-17.59
-3.47
16.17
29.52
27.91
11.08
-12.18
-28.96
-29.64
-13.36
11.08
30.18
33.23
18.51
-5.65
-25.81
-31.04
-19.20
2.05
20.12
24.85
14.54
-3.61
-18.21
-20.75
-10.48
5.56
17.47
18.59
9.32
-3.45
-11.14
-8.71
2.41
15.33
22.03
18.10
5.37
-8.85
-16.14
-11.73
2.60
19.11
28.33
24.20
7.88
-12.83
-27.68
-29.59
-18.77
-2.35
9.93
11.42
2.62
-9.84
-17.41
-14.91
-3.62
9.85
17.88
16.47
7.76
-1.55
-4.47
2.09
15.33
28.11
33.19
27.19
12.71
-3.34
-13.72
-14.73
-8.15
-0.00
3.16
-2.03
-13.70
-26.24
-33.46
-32.04
-23.39
-12.64
-5.47
-5.09
-10.21
-16.43
-18.87
-15.08
-6.47
2.69
7.99
7.38
2.65
-1.90
-2.20
3.12
11.90
19.26
20.47
13.59
1.15
-10.75
-15.42
-9.21
6.11
23.42
33.48
29.65
12.06
-11.84
-30.75
-35.43
-24.01
-3.28
15.07
21.08
12.62
-3.81
-17.20
-18.91
-7.82
9.10
21.51
22.19
11.53
-2.55
-9.96
-4.71
11.13
28.33
35.86
27.34
5.06
-20.55
-36.57
-34.61
-15.72
9.67
27.13
25.94
5.27
-25.00
-49.59
-56.14
-42.21
-16.49
6.26
13.86
3.72
-15.92
-31.48
-32.50
-17.83
3.83
19.60
20.43
6.67
-12.11
-23.20
-18.54
0.31
22.98
36.46
32.73
13.50
-10.60
-26.34
-25.38
-9.05
12.63
26.88
25.53
9.86
-10.54
-23.60
-21.88
-6.96
11.90
23.42
21.05
6.91
-9.86
-18.77
-14.32
0.76
17.45
25.88
21.24
6.70
-8.78
-15.92
-10.59
3.77
18.39
24.45
18.28
3.72
-10.40
-15.52
-8.33
7.18
22.19
28.16
21.74
6.89
-7.74
-14.01
-8.84
3.84
15.70
18.97
11.04
-3.63
-16.48
-19.80
-11.28
4.40
18.41
22.76
14.83
-0.82
-15.39
-20.96
-14.83
-1.22
11.55
15.90
9.38
-3.59
-14.74
-16.82
-7.83
7.49
20.57
23.83
15.09
-0.76
-14.79
-19.20
-11.69
2.95
15.82
19.08
10.44
-5.10
-18.47
-21.80
-12.95
3.05
17.03
20.95
12.42
-3.55
-17.76
-22.18
-14.40
0.75
14.35
18.49
10.78
-3.94
-16.82
-20.08
-11.51
4.15
18.12
22.57
15.10
0.33
-13.06
-17.45
-10.54
3.09
14.99
17.70
9.17
-5.66
-17.99
-20.30
-10.74
5.47
19.04
21.98
12.15
-4.97
-19.68
-23.56
-14.26
2.88
18.08
22.71
14.20
-2.16
-16.60
-20.54
-11.52
5.17
19.77
23.67
14.42
-2.48
-17.04
-20.72
-11.28
5.54
19.60
22.16
11.09
-7.50
-23.02
-26.51
-15.81
2.97
19.15
23.58
13.82
-4.18
-19.91
-24.40
-15.27
1.88
17.01
21.45
12.92
-3.00
-16.46
-19.17
-9.24
7.52
21.09
23.05
11.52
-7.25
-22.60
-25.71
-14.58
4.43
20.36
23.94
12.85
-6.51
-23.05
-27.34
-17.00
1.81
18.18
22.72
12.96
-5.02
-20.49
-24.34
-14.24
3.94
19.77
24.31
15.20
-1.69
-16.03
-19.04
-8.64
9.25
24.18
27.23
16.22
-2.66
-18.61
-22.52
-12.12
6.47
22.44
26.50
16.24
-2.14
-17.80
-21.54
-11.18
7.02
22.16
25.05
13.56
-5.84
-22.00
-25.70
-14.82
4.15
20.02
23.38
12.03
-7.37
-23.37
-26.44
-14.49
5.65
22.22
25.35
12.75
-8.53
-26.36
-30.58
-18.76
2.18
20.14
24.82
13.58
-6.77
-24.31
-28.98
-18.34
1.01
17.50
21.43
10.54
-8.48
-24.17
-27.10
-15.21
4.83
21.68
25.85
15.12
-3.84
-19.63
-22.76
-11.09
8.69
25.08
28.33
16.15
-4.69
-22.40
-27.04
-16.13
3.71
20.88
25.47
14.98
-4.01
-19.96
-23.29
-11.83
7.81
24.27
28.03
17.02
-2.12
-18.05
-21.56
-10.82
7.40
21.78
23.17
9.88
-10.92
-27.52
-30.57
-18.38
1.83
18.32
21.55
9.74
-9.88
-25.51
-27.75
-15.05
5.17
20.93
22.70
8.91
-12.55
-29.13
-30.86
-16.14
7.00
25.53
28.78
14.68
-8.83
-28.50
-33.48
-21.36
0.34
18.89
23.69
12.52
-7.26
-23.34
-25.85
-13.04
7.82
25.16
30.12
21.52
6.36
-5.11
-5.72
4.42
18.07
25.71
21.33
6.26
-11.09
-20.26
-14.81
3.68
25.93
39.81
36.87
17.37
-9.43
-30.09
-34.25
-20.47
3.00
23.05
29.15
19.50
1.29
-14.11
-18.12
-9.93
3.73
13.53
13.55
4.92
-5.26
-8.91
-2.17
12.17
26.22
31.90
25.58
10.15
-6.81
-17.44
-17.95
-10.58
-2.02
0.68
-5.80
-18.90
-32.10
-38.58
-35.12
-24.03
-11.70
-4.74
-6.40
-14.34
-22.55
-24.88
-18.59
-6.05
6.73
13.62
11.92
4.17
-3.70
-5.83
0.12
11.53
22.23
26.25
21.07
9.50
-2.41
-8.75
-7.11
0.08
7.20
8.84
2.97
-7.87
-18.19
-22.98
-20.37
-12.73
-5.17
-2.56
-6.75
-15.02
-21.65
-21.04
-10.92
5.94
22.85
32.60
31.36
21.17
8.75
1.66
3.93
13.62
23.79
26.54
17.69
-0.10
-18.48
-27.73
-22.27
-4.11
17.65
31.38
29.04
10.81
-14.62
-34.66
-39.70
-28.40
-8.33
8.60
13.15
4.31
-10.47
-20.21
-17.40
-2.60
15.97
27.65
25.84
12.06
-4.79
-14.01
-9.52
6.51
24.70
33.94
27.69
7.93
-15.47
-30.30
-28.79
-12.05
10.27
25.26
23.81
6.00
-18.89
-37.61
-40.47
-26.93
-5.77
10.16
11.60
-1.57
-20.43
-32.66
-30.14
-13.86
6.72
19.56
17.27
1.71
-17.20
-27.63
-22.87
-5.36
14.96
26.69
23.69
8.68
-8.68
-17.71
-12.97
2.64
20.00
29.26
25.59
12.01
-2.90
-10.33
-6.32
5.96
18.56
23.61
17.97
5.27
-6.62
-10.37
-3.47
10.14
22.48
26.17
18.67
4.06
-9.56
-14.88
-9.40
2.96
14.43
18.00
11.36
-1.43
-12.73
-15.81
-8.74
4.29
15.58
18.38
10.79
-2.78
-14.37
-17.23
-9.55
4.06
15.41
17.42
8.22
-7.27
-20.42
-23.76
-15.27
0.21
13.91
18.14
10.54
-4.21
-17.47
-21.65
-14.48
-0.42
12.26
16.28
9.51
-3.46
-14.42
-16.39
-7.66
6.88
18.75
20.75
11.14
-4.80
-18.04
-21.02
-11.90
4.01
17.56
20.92
12.05
-3.79
-17.43
-21.09
-12.75
2.52
15.77
19.36
11.24
-3.51
-16.07
-19.00
-10.47
4.47
17.08
19.93
11.18
-3.98
-16.59
-19.06
-9.56
6.77
20.83
24.74
16.30
0.59
-13.29
-17.46
-9.65
5.29
18.53
22.24
14.14
-0.92
-14.15
-17.87
-9.98
4.69
17.36
20.39
11.66
-3.81
-17.05
-20.42
-11.94
3.26
16.10
18.73
9.16
-7.19
-20.82
-23.66
-13.74
3.33
17.76
21.10
11.17
-6.28
-21.22
-25.10
-15.79
1.04
15.46
19.00
9.57
-6.99
-20.68
-23.16
-12.61
5.07
19.78
23.08
13.02
-4.37
-18.88
-22.05
-11.91
5.68
20.57
24.21
14.45
-2.88
-17.64
-21.27
-11.67
5.45
20.06
23.66
14.09
-2.87
-17.21
-20.52
-10.83
6.15
20.48
23.75
13.94
-3.15
-17.50
-20.80
-11.19
5.41
18.90
20.82
9.31
-9.44
-24.90
-28.35
-17.74
0.84
16.84
21.27
11.82
-5.58
-20.51
-24.19
-14.50
2.68
17.11
20.18
9.97
-7.35
-21.34
-23.49
-12.15
6.31
21.24
23.94
12.61
-6.19
-21.59
-24.79
-14.03
4.22
19.20
22.10
11.08
-7.41
-22.66
-26.00
-15.64
2.19
17.05
20.35
10.22
-7.07
-21.07
-23.24
-11.85
6.82
22.34
26.07
16.17
-1.22
-15.79
-19.21
-9.68
6.90
20.69
23.73
14.42
-1.28
-13.68
-15.13
-4.30
12.79
26.40
28.66
18.01
0.43
-14.19
-17.72
-8.31
8.32
22.29
25.27
15.19
-2.18
-16.83
-20.38
-10.86
5.89
19.81
22.39
11.73
-6.05
-20.60
-23.39
-12.71
5.15
19.64
22.05
10.62
-8.05
-23.09
-25.68
-14.19
4.63
19.60
21.57
8.75
-11.83
-28.54
-31.88
-20.00
-0.03
16.13
18.60
5.37
-16.21
-33.80
-37.23
-24.30
-2.18
17.05
23.35
14.46
-2.88
-17.47
-20.36
-10.08
6.55
18.83
18.63
5.36
-13.17
-25.57
-23.48
-6.65
16.46
33.34
34.31
18.16
-6.81
-27.51
-33.19
-21.58
0.05
19.26
25.75
17.29
0.51
-13.59
-16.40
-6.69
9.14
21.63
24.10
16.41
4.65
-3.35
-2.87
4.97
14.11
17.66
12.13
-0.39
-13.31
-19.50
-15.48
-3.42
9.77
16.24
11.53
-2.51
-18.61
-28.02
-25.24
-11.47
6.06
18.15
18.76
8.72
-5.41
-15.24
-15.59
-7.39
3.33
9.58
7.70
-0.23
-8.08
-9.69
-2.69
9.95
21.59
25.95
20.70
8.85
-3.10
-8.90
-6.12
2.59
11.04
13.25
6.64
-6.18
-19.36
-27.01
-26.41
-19.48
-11.31
-7.07
-9.05
-15.16
-20.73
-21.21
-15.02
-4.49
5.50
10.41
8.52
2.15
-3.91
-5.35
-0.80
7.28
13.95
14.69
8.10
-2.81
-12.17
-14.35
-7.22
6.50
20.16
26.61
22.00
8.31
-7.51
-17.27
-15.95
-4.68
9.75
18.84
17.15
5.83
-8.28
-16.69
-14.30
-2.43
11.99
20.66
18.80
8.02
-4.62
-11.11
-7.20
4.98
18.07
23.75
17.58
1.80
-15.42
-24.57
-20.11
-3.76
16.01
28.47
26.46
10.50
-11.23
-27.62
-30.66
-20.04
-3.04
9.88
11.27
1.16
-13.21
-22.07
-19.10
-5.24
11.88
22.72
21.50
9.64
-5.12
-13.63
-10.83
1.35
15.11
21.58
16.04
0.94
-15.33
-23.36
-18.25
-2.53
14.98
24.10
18.99
1.74
-18.73
-31.85
-31.25
-18.46
-1.84
8.52
6.62
-5.60
-19.81
-26.48
-20.64
-4.93
12.08
21.11
17.56
4.37
-9.98
-16.64
-11.55
2.18
16.44
22.92
18.02
5.05
-7.99
-13.18
-7.28
6.36
19.91
25.73
20.60
7.79
-5.15
-11.02
-6.93
3.90
14.36
17.66
11.35
-0.97
-11.99
-15.12
-8.22
4.75
16.24
19.33
11.77
-2.36
-15.25
-19.91
-13.97
-1.33
10.45
14.52
8.64
-3.17
-13.40
-15.45
-7.48
6.21
17.89
20.84
13.19
-0.56
-12.47
-15.80
-8.81
3.95
14.59
16.40
7.76
-6.49
-18.16
-20.41
-11.65
3.29
16.17
19.88
12.52
-1.31
-13.45
-16.93
-9.80
3.54
15.22
18.39
11.18
-1.91
-12.92
-15.06
-6.63
7.78
20.08
23.21
15.20
0.60
-12.38
-16.65
-10.13
2.79
14.13
16.86
8.98
-4.94
-16.75
-19.47
-11.32
2.94
14.91
17.34
8.33
-7.19
-20.50
-24.12
-16.04
-1.07
12.16
16.03
8.41
-5.91
-18.23
-21.03
-12.36
2.88
15.89
19.03
10.28
-5.20
-18.31
-21.31
-12.27
3.60
17.15
20.56
11.78
-3.89
-17.23
-20.40
-11.43
4.54
18.43
22.37
14.22
-0.98
-14.26
-17.92
-9.81
5.21
18.31
21.68
13.05
-2.66
-16.40
-20.22
-11.83
3.91
17.87
21.93
13.64
-2.06
-15.98
-20.07
-11.90
3.70
17.72
22.21
14.78
0.30
-12.32
-15.41
-6.95
8.11
20.82
23.40
13.75
-2.99
-17.64
-22.28
-14.66
0.30
13.49
16.88
8.16
-7.53
-20.79
-23.58
-13.78
3.20
17.66
21.15
11.44
-5.87
-20.75
-24.70
-15.49
1.31
15.75
19.37
10.03
-6.52
-20.27
-22.92
-12.52
5.20
20.39
24.69
15.98
-0.27
-14.45
-18.49
-10.29
4.91
17.82
20.48
10.89
-5.43
-18.81
-21.13
-10.52
7.13
21.58
24.05
12.32
-7.42
-24.23
-28.73
-18.35
0.85
17.93
23.30
14.16
-3.58
-19.28
-23.75
-14.51
2.69
17.56
21.30
11.71
-5.24
-19.25
-21.71
-10.70
7.66
22.84
25.91
14.68
-4.58
-20.94
-25.11
-14.62
4.44
21.20
26.17
16.62
-1.58
-17.78
-22.75
-14.02
2.64
16.79
19.45
8.39
-10.17
-25.42
-28.22
-16.32
4.03
21.85
27.53
18.27
-0.15
-16.97
-22.71
-14.46
2.41
17.63
22.10
13.11
-3.74
-18.14
-21.22
-10.67
7.57
22.90
26.14
14.94
-4.50
-21.12
-25.53
-15.40
2.90
18.13
20.72
8.41
-11.96
-28.64
-31.84
-19.35
1.84
19.68
23.88
11.93
-9.24
-27.45
-32.39
-21.56
-1.73
15.21
19.22
8.07
-11.23
-26.92
-29.41
-16.98
3.38
20.36
25.07
16.20
0.56
-11.47
-12.33
-1.60
13.85
24.34
23.21
10.91
-5.04
-14.64
-11.37
3.93
23.12
35.28
32.76
15.90
-6.99
-24.07
-26.63
-14.02
6.07
22.22
25.86
16.36
0.71
-11.04
-11.90
-2.00
12.05
21.76
21.89
13.68
3.48
-1.48
2.35
12.85
23.52
27.68
22.27
9.62
-4.12
-12.55
-12.69
-6.41
0.75
3.02
-2.41
-13.58
-25.31
-32.07
-31.04
-23.65
-14.52
-8.60
-8.43
-12.46
-16.55
-16.44
-10.41
-0.46
8.80
12.81
9.67
1.69
-6.12
-8.81
-4.29
5.31
14.71
18.52
14.34
4.42
-5.96
-11.33
-9.22
-1.52
6.66
10.08
6.23
-3.11
-13.39
-19.86
-20.23
-15.73
-10.10
-7.04
-8.06
-11.44
-13.63
-11.61
-4.78
4.53
12.07
14.20
9.83
1.56
-5.45
-6.35
0.75
13.42
25.51
30.29
23.90
8.08
-10.20
-22.08
-21.43
-8.44
9.83
23.10
23.31
9.62
-10.98
-27.47
-31.00
-20.11
-1.54
13.90
17.64
8.53
-6.60
-17.57
-17.01
-4.82
11.83
23.10
22.43
10.47
-5.12
-14.49
-11.51
2.62
19.77
29.58
25.41
8.30
-13.10
-27.38
-26.78
-11.73
9.01
23.19
21.78
4.47
-19.95
-38.54
-41.47
-27.68
-5.48
12.47
16.37
5.05
-13.56
-27.59
-28.34
-15.45
3.16
16.32
16.43
4.13
-12.23
-21.95
-18.49
-3.45
14.49
24.88
21.70
7.00
-10.34
-20.06
-16.41
-1.58
15.78
25.71
22.65
8.81
-7.51
-16.93
-14.38
-2.03
12.39
20.28
17.14
5.40
-7.56
-13.81
-9.54
2.71
15.81
22.28
18.64
7.61
-3.80
-8.59
-3.78
7.71
18.91
22.97
17.14
4.69
-7.26
-11.86
-6.54
5.38
16.70
20.56
14.32
1.49
-10.76
-15.70
-10.84
0.42
11.12
14.72
8.85
-2.96
-13.79
-17.23
-11.17
0.83
11.77
15.21
8.95
-3.26
-14.25
-17.50
-10.89
1.85
13.41
17.09
10.60
-2.16
-13.68
-17.07
-10.05
3.52
16.04
20.40
14.04
0.75
-11.92
-16.89
-11.54
0.72
12.70
17.62
12.90
1.91
-8.45
-11.81
-6.04
5.29
15.16
17.15
9.29
-4.31
-16.07
-19.18
-11.63
2.24
14.33
17.29
8.79
-6.69
-20.66
-25.41
-18.36
-3.82
9.78
14.68
8.20
-5.43
-17.92
-21.80
-14.59
-0.41
12.72
17.51
11.56
-1.01
-12.30
-15.32
-7.98
5.52
17.29
20.28
12.40
-1.91
-14.44
-17.90
-10.05
4.74
18.11
22.41
14.99
0.16
-13.64
-18.58
-11.86
2.47
16.15
21.35
15.17
1.53
-11.48
-16.39
-10.55
2.16
13.88
17.39
10.28
-3.29
-15.30
-18.65
-11.20
2.73
14.97
18.17
10.10
-4.75
-17.88
-21.77
-14.05
0.76
14.02
17.90
9.84
-5.47
-19.08
-22.97
-14.62
1.25
15.58
20.16
12.35
-3.07
-16.99
-21.31
-13.62
1.23
14.10
16.97
7.57
-8.71
-22.32
-25.02
-14.65
3.30
19.03
23.95
15.56
-0.92
-15.86
-20.80
-13.15
2.26
16.27
20.69
12.98
-2.03
-15.37
-19.13
-11.02
4.17
17.57
21.31
13.14
-2.10
-15.48
-19.32
-11.45
3.24
15.91
18.94
10.32
-4.74
-17.15
-19.19
-8.98
8.16
22.86
26.91
17.93
0.89
-14.85
-20.97
-14.64
-0.27
13.37
18.20
11.45
-2.50
-15.05
-18.46
-10.32
4.83
18.34
22.37
14.49
-0.65
-14.22
-18.38
-10.75
3.98
16.97
20.27
11.53
-4.23
-17.82
-21.09
-11.66
5.48
21.00
26.38
18.78
2.80
-12.43
-18.62
-12.91
0.33
12.33
15.09
6.07
-9.77
-23.23
-26.12
-16.18
1.33
16.64
21.07
12.03
-5.15
-20.49
-25.21
-16.68
-0.22
14.30
18.15
8.92
-7.61
-21.24
-23.23
-11.47
7.96
24.37
28.43
17.55
-2.31
-20.25
-26.64
-18.53
-1.35
14.53
19.91
12.04
-3.60
-17.09
-19.90
-9.91
7.37
22.32
26.87
19.13
4.57
-7.67
-10.25
-1.80
12.15
22.73
22.93
11.74
-4.77
-17.19
-18.17
-6.73
10.69
23.80
24.19
10.39
-10.85
-28.28
-32.56
-21.69
-2.27
14.46
19.07
9.64
-7.51
-21.95
-25.38
-16.49
-1.23
11.36
14.72
8.48
-1.65
-8.04
-6.06
3.38
14.28
19.46
14.80
1.89
-12.41
-19.88
-15.52
-0.64
17.30
28.51
26.13
10.47
-11.02
-27.73
-31.68
-22.19
-6.04
6.78
8.92
0.33
-12.58
-21.01
-19.36
-8.61
4.62
12.56
11.01
1.93
-8.01
-11.65
-5.74
7.27
20.59
27.26
23.97
12.99
0.48
-7.12
-6.64
0.14
7.78
10.56
5.62
-5.11
-16.49
-23.07
-22.07
-14.94
-6.37
-1.40
-2.68
-8.62
-14.83
-16.52
-11.33
-0.74
10.72
18.09
18.63
13.58
6.99
3.33
4.94
10.72
16.84
19.28
16.16
8.92
1.28
-3.12
-2.83
0.54
3.09
0.92
-7.63
-20.42
-32.07
-36.53
-30.20
-14.35
4.81
18.88
21.37
11.71
-4.36
-17.69
-20.70
-11.84
3.60
16.65
20.07
12.93
0.93
-7.40
-6.08
4.54
17.77
24.70
19.62
3.64
-15.16
-26.34
-22.90
-5.57
16.95
32.46
31.77
14.05
-12.27
-34.03
-40.51
-29.47
-8.36
10.26
15.97
6.69
-10.40
-23.67
-24.13
-10.92
8.46
23.00
24.85
14.00
-1.83
-12.32
-10.77
1.93
17.86
26.91
22.75
6.72
-12.64
-24.47
-21.85
-5.92
14.46
27.50
25.17
7.96
-15.17
-32.00
-33.90
-20.87
-1.41
12.62
12.94
-0.07
-17.86
-29.11
-26.55
-11.39
7.53
19.21
17.01
2.84
-14.30
-23.69
-19.42
-3.72
14.50
24.98
22.14
8.35
-7.80
-16.66
-13.17
0.28
15.59
23.83
20.43
7.96
-5.85
-12.79
-8.99
2.80
15.16
20.42
15.19
2.58
-9.89
-14.83
-9.18
3.79
16.58
21.76
16.22
3.30
-9.55
-14.98
-9.93
2.48
15.04
20.53
15.84
4.05
-7.80
-12.73
-7.91
3.56
14.61
18.33
12.00
-0.88
-12.95
-17.20
-11.08
1.72
13.52
17.02
9.57
-4.92
-18.43
-23.41
-17.13
-3.41
9.82
15.00
9.35
-3.25
-14.90
-18.30
-10.93
3.26
16.32
20.84
14.20
0.42
-12.52
-17.26
-11.18
1.85
14.03
18.06
11.39
-1.97
-14.10
-17.79
-10.61
3.39
16.21
20.43
13.47
-0.56
-13.51
-17.92
-11.18
2.70
15.65
20.14
13.45
-0.45
-13.58
-18.52
-12.61
0.39
12.74
17.15
11.00
-1.85
-13.62
-17.15
-10.03
3.68
15.94
19.27
11.15
-4.10
-17.99
-22.69
-15.44
-0.47
13.64
18.83
12.14
-2.23
-15.74
-20.44
-13.55
0.77
14.06
18.50
11.40
-2.88
-15.74
-19.39
-11.30
4.02
17.74
21.76
13.33
-2.88
-17.77
-22.93
-15.44
0.28
15.24
21.05
14.69
0.52
-12.64
-16.69
-8.90
6.15
19.56
23.11
14.17
-2.34
-17.02
-21.40
-12.76
4.03
19.48
24.85
17.14
1.02
-14.15
-19.83
-13.08
1.57
15.06
19.05
10.83
-4.71
-18.26
-21.52
-12.05
4.96
19.79
23.62
13.75
-4.54
-21.10
-26.80
-18.63
-1.69
14.01
19.30
11.10
-5.41
-20.26
-24.44
-15.12
2.56
18.74
24.42
16.62
0.29
-14.88
-20.15
-12.66
2.79
16.71
20.49
11.41
-5.36
-20.01
-23.76
-13.93
4.20
20.54
25.88
17.23
-0.20
-16.24
-21.68
-13.60
2.81
17.47
21.32
11.68
-5.79
-20.64
-23.72
-12.52
7.08
24.28
29.42
19.50
0.20
-17.63
-24.21
-16.31
0.85
16.75
21.79
12.80
-4.75
-20.26
-24.19
-13.64
5.69
22.88
27.99
17.86
-1.74
-19.63
-25.79
-17.10
0.68
16.44
20.25
9.32
-10.00
-26.08
-28.84
-15.64
6.89
26.67
32.98
22.54
1.60
-17.95
-25.46
-17.49
0.20
16.34
20.76
10.45
-8.49
-24.61
-27.98
-15.95
4.95
22.86
27.36
15.56
-5.81
-24.49
-29.80
-18.75
2.01
20.21
25.08
13.60
-7.46
-25.75
-30.53
-18.85
2.73
22.07
28.47
18.72
-0.92
-18.72
-24.40
-14.97
3.55
19.88
24.15
13.76
-4.94
-20.57
-23.50
-11.53
8.60
25.26
28.74
16.96
-3.05
-19.52
-22.95
-11.69
7.00
21.35
22.16
8.28
-12.23
-27.01
-26.73
-10.52
13.06
30.93
32.84
17.44
-6.78
-26.40
-30.69
-17.65
4.88
24.10
29.63
19.54
0.82
-15.09
-19.40
-10.81
4.11
15.72
17.12
8.17
-4.85
-13.71
-13.30
-4.51
6.45
12.09
8.24
-3.53
-16.42
-22.37
-16.72
-0.90
17.77
29.89
28.98
15.41
-3.70
-18.22
-20.60
-10.23
6.27
19.04
20.68
10.85
-4.17
-15.38
-16.58
-7.99
4.15
11.87
10.29
0.73
-10.44
-15.90
-11.82
-0.17
12.48
18.97
15.64
4.42
-8.45
-16.05
-14.65
-5.70
5.08
11.09
8.45
-1.63
-14.01
-22.50
-23.28
-16.98
-8.09
-2.04
-2.20
-7.72
-14.45
-17.54
-14.26
-5.72
3.77
9.29
8.19
1.81
-5.32
-8.33
-4.77
3.79
12.38
15.47
10.18
-1.53
-13.48
-18.47
-12.33
3.34
21.29
32.17
29.53
13.86
-7.29
-23.21
-25.91
-14.71
3.22
16.96
18.17
6.23
-11.36
-23.61
-22.59
-8.26
11.35
25.03
25.06
11.84
-6.13
-17.57
-15.15
0.14
19.34
30.80
26.92
8.77
-14.08
-28.95
-27.31
-9.80
13.83
30.02
28.93
10.20
-16.57
-37.26
-41.17
-27.01
-3.58
15.52
19.78
7.90
-11.70
-26.34
-26.82
-12.86
6.87
20.20
18.91
3.80
-15.69
-27.30
-23.38
-5.45
16.47
29.80
26.67
8.62
-14.15
-28.85
-27.40
-11.08
10.35
24.49
23.48
8.63
-10.68
-22.78
-20.64
-5.88
12.47
23.48
20.86
6.73
-9.97
-19.00
-14.99
-0.53
15.55
23.60
18.90
4.55
-10.60
-17.40
-11.74
2.93
17.89
24.29
18.38
3.81
-10.73
-16.72
-10.72
3.58
17.69
23.38
17.34
3.42
-10.01
-15.01
-8.59
5.35
18.53
23.08
16.07
1.52
-12.32
-17.73
-11.94
1.12
13.40
17.42
10.53
-3.10
-15.38
-18.92
-11.32
3.20
16.44
20.85
13.84
-0.44
-13.74
-18.52
-12.12
1.49
14.26
18.71
12.16
-1.38
-13.92
-18.13
-11.49
1.99
14.37
18.30
11.29
-2.45
-14.81
-18.41
-10.92
3.32
16.00
19.58
11.62
-3.35
-16.75
-20.86
-13.18
1.84
15.59
20.17
12.95
-1.58
-14.71
-18.62
-10.76
4.33
17.97
22.23
14.55
-0.49
-14.12
-18.51
-11.23
3.13
15.83
19.04
10.43
-5.09
-18.50
-21.90
-13.06
3.00
17.06
20.98
12.38
-3.64
-17.67
-21.49
-12.69
3.60
17.88
21.67
12.41
-4.61
-19.63
-23.98
-15.04
2.00
17.42
22.44
14.32
-1.82
-16.27
-20.47
-11.91
4.21
18.21
21.58
11.96
-5.03
-19.37
-22.45
-12.08
5.94
21.31
25.08
14.80
-3.73
-20.00
-24.91
-15.82
1.66
17.22
21.78
12.67
-4.45
-19.32
-22.99
-13.06
4.83
20.41
24.72
15.26
-2.30
-17.67
-22.00
-12.91
3.96
18.40
21.60
11.22
-6.80
-22.00
-25.45
-14.80
4.08
20.67
25.79
16.82
-0.62
-16.15
-20.79
-11.93
4.93
19.65
23.38
13.64
-3.82
-18.68
-22.06
-11.66
6.64
22.34
26.29
16.05
-2.38
-18.25
-22.40
-12.52
5.25
20.01
22.56
10.72
-8.85
-24.87
-27.87
-15.76
4.79
22.28
26.87
15.98
-4.09
-22.07
-28.24
-19.81
-2.53
13.00
17.55
8.60
-7.88
-21.35
-22.84
-10.30
9.93
26.80
30.85
19.74
-0.08
-17.21
-22.00
-12.00
6.39
21.83
24.66
12.59
-7.64
-24.44
-28.09
-16.30
4.27
21.96
26.79
16.07
-3.84
-21.52
-27.10
-17.85
0.20
16.03
20.00
9.60
-8.92
-24.32
-27.02
-14.71
6.08
23.79
28.42
17.37
-2.76
-20.13
-24.61
-13.63
6.12
22.72
25.94
13.28
-8.17
-26.00
-29.76
-16.93
5.34
24.46
29.62
17.88
-3.85
-23.18
-29.47
-19.78
-0.53
16.60
21.63
12.12
-5.29
-19.21
-20.37
-7.14
13.20
28.91
30.53
16.59
-5.09
-22.01
-24.12
-9.72
13.19
31.41
33.85
17.95
-8.52
-31.97
-40.65
-31.28
-11.00
6.97
11.03
-1.88
-24.20
-42.34
-44.73
-28.74
-2.41
20.34
27.70
16.89
-4.53
-23.50
-29.14
-18.95
0.35
17.49
23.55
17.06
4.46
-4.63
-3.52
7.63
21.96
30.39
27.16
13.37
-3.17
-12.60
-8.68
7.35
27.01
39.07
35.80
17.75
-6.27
-23.91
-26.11
-12.40
8.92
25.77
29.16
18.49
1.19
-12.14
-14.17
-5.08
8.24
16.95
15.81
6.31
-4.75
-9.78
-5.21
6.43
18.17
22.93
17.67
5.09
-8.09
-15.05
-12.71
-3.36
6.69
10.86
5.92
-5.92
-18.72
-26.18
-25.09
-17.27
-8.24
-3.82
-6.86
-15.15
-23.19
-25.34
-19.16
-6.91
5.63
12.62
11.40
4.29
-3.17
-5.48
-0.39
9.73
19.26
22.63
17.55
6.66
-4.36
-9.95
-7.83
-0.40
6.71
8.01
1.28
-10.92
-22.95
-29.42
-28.17
-21.52
-14.81
-13.27
-18.99
-29.15
-37.58
-37.99
-27.55
-8.77
11.39
25.08
27.70
20.67
10.47
4.82
8.19
19.07
30.76
35.34
28.51
12.75
-3.74
-11.54
-5.56
11.67
30.81
40.54
33.65
11.49
-16.26
-36.50
-39.73
-25.29
-1.84
17.45
22.30
11.15
-8.19
-23.57
-25.89
-14.39
3.22
15.84
15.94
4.19
-10.93
-18.67
-12.79
4.49
23.53
32.86
25.88
4.88
-19.68
-34.99
-32.98
-14.96
8.82
24.73
23.31
4.74
-21.12
-40.34
-42.85
-28.19
-5.62
11.42
13.21
-0.41
-20.19
-33.31
-31.19
-14.64
6.80
20.76
19.57
4.88
-13.37
-23.28
-18.05
-0.08
20.57
32.27
28.67
12.47
-6.44
-16.97
-13.37
1.51
18.27
26.73
21.98
7.36
-7.92
-14.54
-8.53
6.33
21.03
26.74
20.00
4.86
-9.88
-15.91
-10.19
3.32
16.28
20.93
14.49
0.94
-11.70
-16.17
-10.07
2.63
14.17
17.52
10.48
-2.71
-14.11
-16.76
-8.67
5.78
18.45
22.19
14.87
0.97
-11.34
-14.94
-7.72
5.97
18.12
21.71
14.65
1.32
-10.32
-13.41
-6.09
7.25
18.68
21.29
13.12
-1.35
-14.04
-17.91
-10.84
2.85
15.17
18.92
11.84
-1.83
-14.07
-17.78
-10.79
2.67
14.59
17.88
10.46
-3.07
-14.39
-16.38
-7.31
7.75
19.92
21.63
11.09
-6.18
-20.72
-24.60
-15.90
-0.04
13.58
17.02
8.27
-7.26
-20.26
-23.04
-13.84
1.88
14.83
17.27
7.42
-8.96
-22.27
-24.51
-13.93
3.75
18.70
22.60
13.35
-3.40
-17.74
-21.38
-12.22
4.20
18.21
21.57
12.26
-4.03
-17.60
-20.28
-10.15
7.22
22.27
26.76
18.51
2.74
-11.26
-15.57
-8.07
6.20
18.23
20.31
10.51
-5.74
-19.13
-21.84
-12.13
4.45
18.36
21.48
11.86
-4.92
-19.16
-22.80
-13.92
1.86
14.95
17.32
7.18
-9.56
-23.09
-25.29
-14.47
3.54
18.84
23.08
14.23
-2.11
-16.13
-19.64
-10.61
5.45
18.95
21.72
11.86
-4.82
-18.45
-20.71
-9.80
8.37
23.54
26.92
16.24
-2.63
-19.24
-24.59
-16.23
0.22
14.57
18.05
8.42
-8.38
-22.01
-23.81
-11.82
7.80
24.50
29.27
19.69
1.54
-14.88
-20.72
-13.55
1.30
14.12
16.58
6.67
-9.82
-22.90
-24.28
-12.21
7.12
23.16
26.95
16.31
-2.53
-18.68
-22.98
-13.20
4.41
18.95
21.32
9.50
-9.83
-25.47
-28.26
-16.35
3.51
20.05
23.90
12.96
-6.28
-22.68
-27.07
-17.32
0.38
15.34
18.64
8.28
-9.38
-23.56
-25.39
-13.01
7.04
23.76
27.90
17.27
-1.70
-17.90
-22.08
-11.97
6.22
21.78
25.65
15.68
-1.85
-16.37
-19.15
-8.37
9.64
24.30
26.81
15.27
-3.96
-20.09
-24.20
-14.18
3.84
19.27
23.16
13.28
-4.31
-19.04
-22.07
-11.38
6.79
21.65
24.15
12.29
-7.28
-23.20
-26.14
-14.11
5.89
22.08
24.58
11.25
-10.61
-28.58
-32.37
-19.68
2.14
20.44
24.45
11.58
-10.90
-30.20
-35.54
-24.18
-3.03
15.72
21.69
12.39
-5.42
-20.14
-22.36
-10.34
8.98
24.45
27.37
16.64
-0.53
-13.37
-14.03
-2.20
14.54
25.43
22.75
6.56
-14.85
-29.75
-29.63
-14.13
8.33
25.17
26.54
11.03
-13.31
-33.61
-39.28
-28.00
-6.79
12.45
19.88
13.55
-0.18
-10.96
-11.01
0.26
16.33
28.07
29.43
20.92
9.07
1.79
3.54
12.84
23.18
27.22
21.06
6.75
-8.42
-15.98
-10.98
4.98
24.00
35.95
33.79
17.70
-5.10
-24.32
-32.26
-28.08
-17.77
-10.05
-10.93
-19.72
-30.06
-34.12
-27.71
-13.02
2.71
11.77
10.51
1.60
-7.82
-10.53
-3.50
10.41
24.09
30.46
26.32
14.24
0.69
-7.79
-8.17
-2.53
3.48
4.19
-2.76
-14.64
-25.63
-30.04
-25.54
-14.57
-2.89
3.75
2.68
-3.93
-10.85
-12.77
-7.38
3.22
13.89
19.51
17.81
10.92
3.65
0.63
3.58
10.34
16.08
16.35
9.69
-1.15
-10.76
-14.20
-9.87
-0.58
7.70
9.14
1.34
-12.80
-26.41
-32.10
-26.06
-10.41
7.52
18.95
18.21
6.36
-9.45
-19.88
-18.64
-6.22
10.46
22.12
22.61
12.66
-0.61
-8.43
-5.63
6.19
19.44
25.32
19.05
2.90
-14.57
-23.43
-18.16
-0.80
19.56
31.72
28.33
10.17
-13.93
-31.93
-35.05
-22.72
-2.80
13.07
16.15
5.73
-10.66
-22.18
-21.26
-8.13
9.34
20.68
19.08
5.60
-11.39
-21.37
-18.01
-2.90
15.16
25.36
21.17
4.31
-16.01
-28.42
-26.00
-10.24
9.64
22.05
19.65
3.78
-16.43
-29.49
-28.19
-13.87
4.66
16.40
14.61
0.95
-15.81
-25.24
-21.45
-6.57
10.77
20.69
17.98
5.12
-9.43
-16.52
-11.72
2.01
16.41
22.87
17.52
3.68
-10.40
-16.53
-11.22
2.19
15.78
21.75
16.82
4.30
-8.16
-13.20
-7.87
4.51
16.55
21.17
15.65
3.51
-7.87
-11.67
-5.48
7.08
18.67
22.47
16.06
3.20
-8.70
-12.88
-7.03
5.09
16.15
19.38
12.53
-0.52
-12.28
-16.03
-9.57
3.23
14.96
18.89
12.80
0.59
-10.38
-13.59
-7.11
5.01
15.27
17.09
8.62
-5.62
-17.62
-20.47
-12.36
2.07
14.54
17.78
9.68
-5.14
-18.29
-22.44
-15.43
-1.66
10.74
14.64
7.93
-4.90
-15.79
-17.80
-9.08
5.84
18.90
23.04
16.18
2.70
-9.42
-13.26
-6.78
5.82
16.82
19.42
11.72
-1.81
-13.34
-16.07
-8.30
5.41
17.02
19.48
10.86
-4.22
-17.43
-21.52
-14.41
-0.61
11.51
14.56
6.34
-8.44
-21.19
-24.38
-15.87
-0.38
13.47
18.03
11.04
-2.85
-15.06
-18.24
-10.34
3.96
16.29
19.42
11.47
-2.65
-14.45
-16.74
-7.83
7.35
20.16
23.10
14.11
-1.96
-16.29
-21.23
-14.44
-0.50
12.02
15.43
7.42
-7.28
-19.94
-22.84
-13.81
2.36
16.76
21.44
14.00
-0.79
-13.98
-17.75
-9.82
5.01
17.84
20.96
12.25
-3.13
-16.10
-18.92
-9.66
6.49
20.33
23.94
15.15
-0.98
-15.30
-19.96
-12.72
1.63
14.26
17.47
9.07
-5.99
-18.84
-21.79
-12.84
3.01
16.65
20.15
11.34
-4.54
-18.10
-21.35
-12.29
3.69
17.01
19.59
9.53
-7.37
-21.16
-23.63
-12.92
5.14
20.54
24.82
15.76
-1.09
-16.01
-20.75
-13.10
1.77
14.60
17.48
8.49
-6.88
-19.16
-20.50
-9.27
8.62
23.10
25.72
14.44
-4.63
-20.97
-25.62
-16.21
1.54
17.37
22.42
14.20
-1.81
-15.76
-19.28
-10.17
6.21
20.31
23.95
14.96
-1.26
-15.19
-18.74
-9.81
6.24
19.86
22.77
12.79
-4.47
-18.99
-22.17
-11.82
6.22
21.39
24.50
13.06
-6.72
-23.70
-28.22
-17.72
1.48
17.92
21.64
9.98
-10.47
-27.86
-32.07
-20.48
0.35
18.62
24.15
14.13
-5.03
-21.87
-26.60
-16.68
1.77
17.76
21.92
11.91
-5.99
-20.82
-23.37
-11.58
8.09
24.50
28.21
16.96
-2.77
-19.74
-24.49
-14.71
3.33
18.65
22.03
11.33
-6.85
-21.44
-23.38
-11.05
8.53
23.75
24.97
10.37
-12.70
-31.85
-36.69
-24.81
-3.15
16.08
22.50
13.44
-4.61
-20.37
-24.46
-14.79
2.55
17.52
22.28
15.77
4.04
-4.07
-2.60
8.01
21.01
27.66
22.40
6.44
-12.30
-23.65
-20.85
-4.58
16.88
31.95
31.96
16.31
-7.18
-26.37
-31.65
-21.22
-1.94
15.06
20.75
13.61
-0.32
-11.56
-13.06
-4.34
8.82
18.51
19.61
12.87
4.10
0.05
4.26
14.95
26.00
30.77
25.97
13.64
0.05
-7.91
-6.63
2.15
12.19
16.39
10.80
-2.90
-18.70
-29.55
-31.32
-25.08
-16.13
-10.59
-11.82
-18.22
-24.69
-25.83
-19.21
-6.95
5.50
12.69
12.10
5.85
-0.90
-3.04
1.54
10.74
19.38
22.30
17.27
6.57
-4.60
-10.96
-10.13
-3.99
2.48
4.16
-1.37
-12.15
-23.46
-30.31
-30.21
-24.52
-17.39
-13.20
-14.02
-18.39
-22.46
-22.53
-17.17
-8.19
0.40
4.86
3.82
-0.48
-3.60
-1.45
7.21
19.85
30.99
35.13
29.65
16.77
2.91
-4.54
-1.10
12.04
28.02
37.59
33.98
17.13
-5.85
-24.13
-29.01
-18.89
-0.37
15.51
19.58
9.98
-6.86
-20.48
-22.76
-12.72
3.02
14.71
15.51
5.65
-7.59
-14.81
-10.34
4.20
20.47
28.31
21.57
1.95
-21.29
-36.28
-35.05
-18.05
5.60
22.90
23.99
7.82
-17.07
-37.40
-42.65
-31.06
-10.60
5.93
8.40
-4.40
-24.06
-37.88
-36.56
-19.81
3.41
20.40
22.24
9.08
-10.13
-23.25
-22.23
-7.72
11.52
24.18
23.15
9.82
-6.98
-16.48
-12.47
3.07
21.28
31.86
28.99
14.80
-2.22
-12.31
-10.11
2.36
17.26
25.66
22.76
10.75
-2.96
-10.31
-7.23
3.99
16.41
22.63
18.98
7.83
-4.20
-10.28
-7.18
2.70
12.98
17.12
12.25
1.19
-9.42
-13.05
-7.10
5.35
17.36
22.02
16.43
3.66
-9.27
-15.42
-11.80
-1.27
9.43
13.59
8.41
-2.91
-13.50
-16.77
-10.26
2.65
14.85
19.50
13.89
1.36
-10.94
-16.21
-11.74
-0.70
9.99
13.73
8.06
-3.43
-13.63
-16.00
-8.53
4.84
16.54
19.66
11.99
-2.27
-15.14
-19.43
-12.83
0.51
12.59
16.15
8.81
-5.12
-17.55
-21.19
-13.77
0.55
13.80
18.76
12.99
0.48
-11.05
-14.73
-8.38
4.04
14.95
17.58
9.95
-3.51
-14.86
-17.09
-8.33
6.80
19.83
23.17
14.45
-1.73
-16.58
-22.22
-15.96
-2.05
11.05
15.57
8.90
-4.61
-16.60
-19.56
-11.20
4.09
17.95
22.82
16.23
2.40
-10.47
-15.08
-9.05
3.53
14.68
17.25
9.07
-5.30
-17.49
-20.10
-11.06
4.90
18.96
23.16
14.94
-1.03
-15.75
-21.13
-14.47
-0.20
12.98
17.19
9.88
-4.34
-16.86
-20.09
-11.81
3.30
16.62
20.48
12.54
-2.54
-16.09
-20.49
-13.47
0.40
12.48
15.16
6.26
-9.18
-22.12
-24.68
-14.75
2.46
17.53
22.10
13.64
-2.81
-17.79
-23.00
-15.85
-1.16
12.04
15.77
7.76
-6.89
-19.05
-20.89
-10.44
7.00
21.99
26.28
17.45
0.59
-14.87
-20.58
-13.83
0.80
14.38
18.84
11.58
-2.76
-15.34
-18.30
-9.30
6.89
21.25
25.61
17.38
1.34
-13.27
-18.21
-10.77
4.36
18.10
22.20
14.04
-1.52
-15.27
-19.03
-10.34
5.85
20.24
24.47
15.96
-0.30
-14.88
-19.45
-11.45
4.11
17.77
21.02
11.37
-5.83
-20.65
-24.37
-14.56
3.15
18.37
21.85
10.94
-8.48
-25.56
-30.72
-21.14
-2.50
14.50
20.33
12.01
-4.89
-20.02
-24.21
-14.74
3.00
18.96
24.16
15.88
-0.62
-15.46
-19.90
-11.30
5.29
20.14
24.53
15.74
-0.92
-15.50
-19.13
-9.30
8.34
23.33
26.38
14.88
-5.13
-22.67
-28.14
-18.87
-0.85
14.98
19.08
8.89
-9.34
-24.53
-27.30
-15.42
4.66
21.61
25.72
14.49
-5.64
-23.20
-28.35
-18.43
0.48
17.23
22.17
12.74
-4.89
-19.81
-22.87
-12.06
6.20
21.04
23.57
12.21
-6.15
-20.48
-22.13
-9.93
8.88
23.00
23.55
9.36
-11.92
-28.38
-30.66
-17.35
3.95
20.97
23.60
9.84
-12.87
-32.00
-37.02
-25.33
-3.68
16.02
23.48
16.01
-0.33
-14.86
-18.70
-9.91
5.84
19.21
23.06
16.61
5.60
-1.81
-0.26
9.70
21.91
28.54
24.83
11.95
-3.18
-11.93
-8.95
4.64
21.33
31.23
27.39
10.26
-12.26
-28.89
-31.10
-18.16
2.39
19.07
22.98
13.07
-3.89
-17.58
-20.46
-12.06
1.33
11.13
11.86
4.42
-5.00
-9.19
-4.56
6.73
18.08
22.67
17.35
4.47
-9.54
-17.88
-17.10
-8.87
1.11
6.52
3.84
-5.50
-16.53
-23.51
-23.12
-16.28
-7.40
-1.57
-1.81
-7.08
-13.41
-16.19
-12.88
-4.45
5.19
11.57
12.06
7.72
2.10
-0.72
1.51
7.87
14.84
18.53
16.85
10.87
3.90
-0.61
-1.13
1.06
2.55
-0.18
-8.55
-20.38
-30.64
-33.89
-27.20
-12.22
4.91
16.48
16.98
6.64
-8.52
-19.80
-20.51
-9.95
6.14
18.99
21.89
14.40
2.38
-5.92
-4.90
4.90
16.99
23.14
18.23
3.70
-12.79
-21.78
-17.40
-0.92
19.46
32.86
31.57
15.43
-7.70
-26.18
-31.05
-20.96
-2.95
11.72
14.08
2.91
-14.55
-27.22
-26.81
-12.91
6.72
20.86
21.51
8.69
-9.44
-21.63
-20.33
-6.01
12.84
24.90
22.61
6.70
-13.89
-27.37
-25.89
-10.13
10.95
25.21
24.31
8.54
-13.34
-29.21
-30.65
-17.69
1.37
15.03
15.43
3.01
-13.89
-24.44
-21.74
-7.10
10.99
21.93
19.34
5.05
-12.25
-22.18
-18.91
-4.47
12.67
22.66
20.13
7.37
-7.45
-15.20
-11.26
1.91
16.55
24.23
20.79
8.88
-4.09
-10.40
-6.53
4.76
16.35
21.02
15.65
3.35
-8.73
-13.55
-8.31
3.88
15.93
20.86
15.77
3.79
-8.13
-13.24
-8.80
2.19
12.99
17.03
11.70
0.19
-10.72
-14.61
-9.06
2.62
13.59
17.28
11.25
-1.04
-12.50
-16.49
-10.70
1.25
12.06
14.88
7.38
-6.44
-18.88
-22.82
-15.86
-1.91
11.32
16.57
11.18
-1.17
-13.01
-17.40
-11.88
-0.03
10.90
14.25
7.81
-4.40
-14.84
-16.71
-7.99
7.11
20.58
25.05
18.00
3.50
-10.37
-16.16
-11.16
0.87
12.27
15.87
9.22
-3.71
-15.19
-18.28
-10.81
3.19
15.91
20.26
13.80
0.46
-12.08
-16.78
-11.16
1.10
12.61
16.52
10.47
-1.73
-12.66
-15.62
-8.54
4.53
15.89
18.56
10.40
-4.26
-17.21
-21.18
-13.86
0.40
13.32
17.37
10.10
-4.19
-17.22
-21.52
-14.66
-0.75
12.12
16.58
10.11
-3.17
-15.25
-18.93
-11.85
1.80
13.99
17.36
9.61
-4.79
-17.35
-20.46
-11.80
4.06
18.35
23.05
15.46
0.09
-14.28
-19.68
-13.41
0.28
13.03
17.21
10.40
-2.93
-14.45
-16.80
-7.88
7.69
21.39
25.58
17.91
2.95
-10.65
-15.17
-8.08
6.24
19.24
23.08
15.15
-0.07
-13.83
-18.18
-10.52
4.65
18.44
22.65
14.49
-1.48
-16.16
-21.34
-14.19
0.76
14.57
19.03
11.39
-3.65
-17.10
-20.87
-12.50
3.16
16.94
20.58
11.54
-5.14
-19.99
-24.65
-16.62
-0.94
12.87
16.39
7.19
-9.28
-23.12
-25.81
-15.21
2.85
17.95
21.10
10.02
-9.12
-25.38
-29.43
-18.82
0.44
17.53
23.02
14.24
-3.01
-18.26
-22.41
-12.90
4.71
20.35
25.12
16.49
-0.13
-14.84
-19.02
-10.22
6.33
20.90
24.89
15.77
-1.16
-15.99
-20.03
-10.74
6.48
21.56
25.53
15.75
-2.16
-17.84
-22.23
-12.79
4.77
20.00
23.76
13.56
-4.64
-20.19
-24.00
-13.75
4.54
20.19
23.96
13.45
-5.32
-21.67
-26.43
-17.18
0.27
15.32
18.82
8.37
-9.97
-25.35
-28.56
-17.25
2.36
19.26
23.90
13.79
-4.84
-20.95
-25.16
-15.15
2.84
17.82
20.54
8.92
-10.28
-25.58
-27.56
-14.27
7.24
25.07
29.10
16.87
-4.86
-24.14
-30.72
-21.73
-3.20
13.79
19.62
11.70
-4.09
-17.32
-19.42
-8.64
8.91
23.26
26.54
17.56
2.59
-8.88
-9.85
0.12
14.51
23.94
21.79
8.19
-9.47
-20.94
-19.06
-3.99
16.34
30.63
30.50
15.42
-6.73
-24.14
-27.68
-16.08
3.35
19.28
22.88
12.99
-3.64
-16.79
-18.97
-9.71
4.61
15.24
16.34
8.49
-2.26
-8.43
-5.77
4.34
15.90
22.21
19.75
10.03
-1.45
-8.81
-9.08
-3.79
1.98
2.80
-3.95
-16.12
-27.99
-33.30
-28.68
-15.79
-0.53
10.17
11.98
5.81
-3.28
-9.07
-7.72
-0.03
9.39
15.07
13.98
7.70
1.00
-1.14
3.55
12.99
21.86
24.85
19.53
8.07
-4.14
-11.48
-11.18
-4.81
2.72
6.11
2.57
-6.43
-16.56
-23.03
-23.24
-18.27
-11.87
-8.12
-9.11
-13.60
-18.09
-19.17
-15.41
-8.37
-1.69
1.19
-1.04
-6.40
-10.82
-10.55
-4.34
5.57
14.26
16.72
10.70
-1.54
-13.84
-19.26
-13.77
1.17
18.65
29.59
27.45
12.37
-8.58
-24.86
-28.12
-17.09
1.66
17.42
21.43
12.24
-3.67
-16.13
-17.27
-6.36
9.99
22.20
23.52
14.18
1.13
-6.57
-3.44
9.19
23.75
31.02
25.54
8.91
-10.56
-22.55
-20.53
-5.52
14.08
26.89
24.77
7.63
-16.22
-34.64
-38.34
-26.23
-6.06
10.24
13.46
2.60
-14.66
-27.09
-26.61
-13.23
5.08
17.46
16.66
3.53
-13.42
-23.33
-19.57
-3.71
15.26
26.23
22.46
5.74
-14.50
-26.77
-24.09
-8.06
12.07
24.88
23.26
8.66
-10.06
-22.00
-20.61
-7.42
9.21
19.31
17.15
4.74
-9.82
-17.37
-13.18
0.30
15.13
22.66
18.65
5.83
-8.02
-14.76
-10.60
1.67
14.61
20.55
16.08
4.20
-7.79
-12.62
-7.29
5.06
17.19
21.95
16.43
3.89
-8.41
-13.53
-8.72
2.79
13.98
18.11
12.57
0.74
-10.42
-14.37
-8.70
3.27
14.73
19.14
14.04
2.64
-8.34
-12.64
-7.95
2.53
12.17
14.77
8.14
-4.10
-14.94
-17.92
-10.90
2.33
14.32
18.12
11.28
-2.28
-14.80
-19.19
-12.95
0.06
12.20
16.45
10.38
-2.04
-13.32
-16.70
-10.09
2.59
13.96
17.36
10.64
-2.27
-13.94
-17.82
-11.79
0.27
11.03
13.86
6.71
-6.30
-17.52
-20.13
-12.06
2.56
15.86
20.66
14.42
1.07
-11.64
-16.63
-11.32
0.66
11.95
15.76
9.72
-2.33
-13.02
-15.67
-8.23
5.25
17.07
20.26
12.57
-1.76
-14.67
-18.89
-12.07
1.60
13.93
17.49
9.82
-4.65
-17.48
-21.05
-12.98
2.29
16.13
20.64
13.17
-1.85
-15.76
-20.74
-14.11
-0.11
12.95
17.51
11.03
-2.19
-14.01
-17.11
-9.25
5.29
18.34
22.57
15.57
1.57
-11.26
-15.57
-8.96
4.48
16.67
20.22
12.71
-1.52
-14.09
-17.45
-9.28
5.85
19.17
22.74
14.01
-2.24
-16.92
-21.93
-14.70
0.04
13.34
17.15
9.04
-6.06
-19.08
-22.14
-13.10
2.93
16.73
20.26
11.25
-5.14
-19.58
-24.00
-16.07
-0.76
12.83
16.63
8.36
-6.86
-19.72
-22.14
-11.99
5.35
20.17
23.98
14.38
-3.14
-18.55
-23.10
-14.25
2.68
17.84
22.51
14.15
-1.90
-15.90
-19.38
-10.09
6.60
21.00
24.67
15.33
-1.59
-16.37
-20.63
-12.06
4.13
18.35
22.22
13.26
-3.28
-17.76
-21.78
-12.96
3.48
17.82
21.53
12.20
-4.74
-19.37
-23.11
-13.63
3.63
18.75
23.05
14.05
-2.79
-17.59
-21.82
-13.09
3.34
17.83
21.93
13.25
-3.01
-17.27
-21.25
-12.62
3.43
17.30
20.58
10.89
-6.23
-20.71
-23.78
-13.10
5.57
21.70
25.97
15.67
-3.36
-20.30
-25.65
-16.57
1.26
17.22
21.95
12.70
-4.70
-19.69
-23.20
-12.91
5.21
20.52
23.93
13.10
-5.80
-21.92
-26.02
-15.76
2.79
18.78
22.82
12.40
-6.36
-22.47
-26.52
-16.08
2.76
19.03
23.32
13.28
-4.74
-19.64
-22.26
-10.68
8.37
23.51
25.33
11.97
-9.36
-26.73
-30.35
-18.22
2.51
19.72
23.25
10.77
-10.62
-28.66
-33.08
-21.43
-0.55
17.59
22.84
12.86
-5.58
-20.93
-23.74
-12.24
6.78
22.38
26.02
16.51
0.64
-11.53
-12.77
-2.82
11.45
20.58
18.20
4.92
-11.56
-21.11
-17.09
-0.29
20.96
35.26
34.36
18.06
-5.45
-23.91
-27.79
-15.71
4.90
22.22
26.80
17.11
-0.21
-14.73
-18.56
-10.80
2.55
13.00
14.88
8.70
0.27
-3.43
1.30
12.65
24.36
29.76
25.44
13.25
-1.01
-10.96
-13.15
-8.75
-2.69
-0.54
-5.27
-15.30
-25.78
-31.32
-29.03
-20.35
-10.11
-3.65
-3.93
-9.53
-16.03
-18.54
-14.60
-5.69
3.74
9.03
7.87
2.13
-3.63
-4.76
0.78
11.12
21.31
26.31
23.62
15.01
5.10
-1.22
-1.50
2.82
7.39
7.67
1.48
-9.43
-20.56
-27.23
-27.10
-21.52
-14.71
-11.24
-13.46
-19.71
-25.36
-25.39
-17.23
-2.57
13.27
24.08
26.04
20.10
11.40
6.19
8.29
16.73
26.09
29.69
23.54
9.32
-6.19
-14.70
-11.13
3.24
20.88
31.85
29.21
13.15
-8.70
-25.45
-29.00
-18.64
-1.58
11.36
12.05
0.10
-16.90
-28.12
-26.02
-10.99
8.82
22.38
22.27
9.10
-8.73
-20.26
-18.50
-4.47
13.23
23.56
19.45
2.09
-19.33
-32.81
-30.44
-12.98
10.15
25.94
25.09
7.39
-17.87
-37.09
-40.12
-26.04
-3.62
13.92
16.73
4.16
-15.03
-28.30
-26.97
-11.40
9.31
23.07
22.04
7.43
-11.36
-22.65
-19.41
-3.47
15.81
27.20
24.31
9.38
-8.33
-18.19
-14.42
0.62
18.10
28.07
25.23
11.97
-3.41
-11.94
-9.09
2.54
15.23
20.78
15.43
2.22
-11.16
-17.00
-12.05
0.55
13.24
18.53
13.34
0.97
-11.10
-15.78
-10.36
1.76
13.33
17.49
11.71
-0.44
-11.81
-15.74
-9.93
2.11
13.33
17.16
11.28
-0.73
-11.77
-15.39
-9.40
2.59
13.56
17.05
10.90
-1.14
-11.94
-15.02
-8.28
4.60
16.45
20.63
14.77
2.40
-9.34
-13.90
-8.82
2.59
13.47
17.36
11.91
0.54
-9.82
-12.80
-6.22
6.31
17.63
21.08
14.32
1.05
-11.32
-16.06
-10.82
0.67
11.03
13.50
5.92
-7.58
-19.23
-22.05
-13.98
0.68
13.83
18.11
11.08
-3.01
-15.99
-20.47
-13.94
-0.43
12.11
16.42
10.05
-2.79
-14.12
-16.75
-8.48
6.30
19.23
22.74
14.37
-1.35
-15.72
-20.88
-14.16
0.13
13.46
17.96
10.90
-3.40
-16.45
-20.51
-12.98
1.91
15.79
20.90
14.51
0.75
-12.16
-16.66
-10.12
3.45
15.99
19.94
12.74
-1.38
-14.08
-17.72
-9.86
5.05
18.29
21.89
13.21
-2.99
-17.64
-22.53
-15.02
0.25
14.28
18.93
11.56
-3.17
-16.40
-20.27
-12.42
2.47
15.67
19.40
11.32
-3.77
-17.06
-20.77
-12.60
2.70
16.29
20.19
12.03
-3.30
-16.68
-20.02
-11.01
5.32
19.59
23.43
14.33
-2.52
-17.54
-22.31
-14.36
1.20
14.87
18.23
8.90
-7.69
-21.75
-24.82
-14.72
2.96
18.15
22.11
12.46
-5.17
-20.53
-24.80
-15.47
2.02
17.64
22.54
14.10
-2.34
-16.88
-20.87
-11.86
4.87
19.54
23.55
14.52
-2.07
-16.30
-19.61
-9.75
7.79
23.03
27.27
18.09
1.00
-14.01
-18.36
-9.72
6.45
20.26
23.16
12.83
-5.10
-20.57
-24.93
-15.83
1.20
16.09
19.98
10.36
-7.15
-22.28
-26.15
-16.39
1.25
16.29
19.63
8.90
-9.76
-25.37
-28.62
-17.15
2.68
19.57
23.77
12.64
-7.43
-24.96
-30.00
-19.72
-0.12
17.75
24.12
16.05
-0.84
-15.99
-20.26
-11.03
6.08
20.81
24.15
13.70
-4.62
-20.11
-23.60
-12.64
6.70
23.48
28.07
17.73
-1.53
-18.64
-23.93
-14.67
3.13
18.44
21.64
10.20
-9.40
-25.68
-28.90
-16.72
4.12
21.75
25.91
13.88
-7.69
-26.74
-32.86
-23.06
-3.55
14.12
19.88
10.98
-6.41
-21.17
-23.99
-12.75
6.20
22.16
26.43
17.41
1.58
-10.85
-12.15
-1.56
14.12
24.85
23.26
9.10
-10.05
-23.33
-22.76
-7.89
13.54
29.85
31.75
17.64
-5.23
-24.96
-31.51
-22.30
-3.56
13.67
19.89
12.82
-1.83
-14.18
-16.31
-6.92
8.40
21.10
24.89
19.32
9.56
2.58
2.77
9.52
17.68
21.06
16.19
4.50
-8.10
-14.66
-11.21
0.87
14.93
22.48
17.70
1.27
-19.62
-34.78
-36.55
-24.32
-5.05
10.80
15.12
7.14
-6.91
-17.70
-18.59
-9.53
3.45
12.46
12.64
5.32
-3.24
-6.06
0.20
13.16
25.96
31.55
26.57
13.29
-1.83
-11.87
-13.23
-7.38
0.23
3.53
-0.80
-11.32
-23.20
-30.93
-31.34
-25.28
-16.81
-10.64
-9.59
-12.83
-17.05
-18.43
-14.88
-7.29
1.13
6.90
8.18
5.99
3.38
3.43
7.35
13.64
18.64
18.51
11.43
-0.64
-12.50
-17.89
-12.87
1.63
19.36
31.36
30.51
15.92
-6.15
-25.27
-32.42
-25.16
-8.95
6.19
11.70
5.86
-5.67
-13.73
-11.63
0.60
16.19
26.09
24.52
12.63
-1.88
-9.73
-5.55
8.74
24.68
32.07
24.76
4.41
-19.63
-35.27
-34.31
-17.01
7.42
25.66
27.32
10.92
-15.14
-37.25
-44.18
-33.36
-12.13
6.88
13.28
5.04
-10.63
-22.27
-21.35
-7.47
11.45
24.26
23.33
9.24
-9.42
-21.38
-19.34
-4.23
15.19
27.54
25.39
9.57
-11.07
-24.95
-24.36
-9.89
9.84
23.28
22.52
8.11
-11.49
-24.97
-24.79
-11.59
6.42
18.48
17.59
4.71
-12.04
-22.48
-20.40
-7.22
9.08
18.77
16.24
3.39
-11.67
-19.64
-15.56
-1.74
13.76
22.03
18.49
5.72
-8.37
-15.34
-11.09
1.75
15.67
22.75
19.18
7.59
-4.89
-10.99
-7.38
3.35
14.59
19.57
15.30
4.53
-6.20
-10.43
-5.45
5.94
17.19
21.75
16.75
