1553884558.00
64.000000
-0.00
-0.00
-0.00
-0.00
-0.00
-0.00
-0.00
-0.00
-0.00
-0.00
0.00
0.01
0.01
-0.00
-0.03
-0.05
-0.05
0.00
0.13
0.36
0.66
1.01
1.37
1.72
2.06
2.40
2.79
3.24
3.80
4.42
5.06
5.66
6.20
6.68
7.15
7.68
8.31
9.14
10.09
11.04
11.88
12.56
13.14
13.76
14.65
15.96
17.91
20.32
22.90
25.38
27.58
29.57
31.68
34.32
37.81
42.54
48.15
54.10
59.83
64.97
69.58
74.14
79.34
85.71
93.76
103.00
112.62
121.73
129.77
136.75
143.30
150.75
157.77
166.64
177.95
191.79
206.97
220.57
228.25
225.36
208.53
176.87
132.76
80.05
23.07
-34.94
-92.44
-149.16
-205.23
-260.37
-313.74
-363.87
-409.83
-450.91
-486.50
-515.74
-537.23
-549.22
-549.96
-538.37
-514.21
-478.67
-433.88
-382.45
-327.02
-269.84
-212.63
-156.66
-102.95
-52.37
-5.90
35.58
71.43
101.35
125.50
144.38
158.69
169.15
176.37
180.75
182.57
182.07
179.51
175.23
169.65
163.18
156.15
148.81
141.30
133.69
126.02
118.33
110.69
103.16
95.80
88.68
81.83
75.25
68.95
62.95
57.25
51.86
46.78
42.03
37.59
33.45
29.62
26.07
22.80
19.82
17.11
14.68
12.50
10.57
8.86
7.34
5.99
4.81
3.79
2.95
2.27
1.74
1.32
0.98
0.66
0.37
0.09
-0.14
-0.31
-0.41
-0.45
-0.46
-0.49
-0.59
-0.78
-1.01
-1.22
-1.35
-1.36
-1.26
-1.14
-1.13
-1.33
-1.78
-2.37
-2.95
-3.34
-3.43
-3.26
-3.03
-3.02
-3.44
-4.34
-5.56
-6.75
-7.58
-7.83
-7.57
-7.15
-7.04
-7.62
-8.98
-10.85
-12.69
-14.00
-14.49
-14.23
-13.64
-13.22
-13.40
-14.43
-16.45
-19.40
-22.88
-25.91
-26.97
-24.42
-17.29
-5.93
7.79
21.08
31.39
37.42
39.50
39.17
38.17
37.58
37.51
37.49
37.08
36.34
35.71
35.63
36.11
36.60
36.21
34.25
30.47
25.30
19.57
14.22
9.70
6.04
2.95
-0.02
-3.19
-6.52
-9.67
-12.16
-13.53
-13.64
-12.66
-11.04
-9.35
-8.08
-7.50
-7.58
-8.11
-8.79
-9.44
-9.89
-10.10
-10.09
-9.85
-9.36
-8.58
-7.48
-6.08
-4.49
-2.86
-1.44
-0.45
-0.08
-0.37
-1.24
-2.46
-3.75
-4.80
-5.38
-5.36
-4.81
-3.91
-3.00
-2.33
-2.03
-1.98
-1.95
-1.74
-1.38
-1.01
-0.88
-1.09
-1.50
-1.73
-1.42
-0.39
1.22
3.02
4.57
5.57
5.92
5.81
5.43
4.90
4.34
3.74
3.09
2.39
1.71
1.06
0.35
-0.64
-2.22
-4.65
-8.09
-12.44
-17.37
-22.47
-27.33
-31.58
-34.94
-37.23
-38.30
-38.11
-36.80
-34.73
-32.38
-30.22
-28.58
-27.52
-26.92
-26.63
-26.65
-27.09
-28.04
-29.34
-30.53
-31.02
-30.32
-28.31
-25.28
-21.69
-17.88
-13.92
-9.59
-4.64
0.97
6.96
12.79
17.93
22.03
25.04
27.16
28.71
29.97
31.08
32.00
32.61
32.73
32.26
31.21
29.69
27.87
25.88
23.76
21.50
19.16
16.93
15.10
13.99
13.68
13.99
14.42
14.43
13.61
11.87
9.48
6.88
4.53
2.73
1.65
1.35
1.89
3.29
5.46
8.19
11.09
13.75
15.84
17.23
17.94
18.15
18.00
17.57
16.90
16.03
15.06
14.16
13.55
13.39
13.79
14.71
15.97
17.23
18.06
18.12
17.16
15.21
12.46
9.21
5.73
2.17
-1.35
-4.75
-7.89
-10.70
-13.15
-15.38
-17.57
-19.84
-22.06
-23.80
-24.52
-23.68
-21.03
-16.69
-11.11
-4.96
1.15
6.73
11.44
15.07
17.49
18.66
18.67
17.81
16.59
15.53
15.06
15.35
16.25
17.40
18.42
19.06
19.31
19.26
19.04
18.63
17.90
16.65
14.80
12.40
9.68
6.85
4.07
1.27
-1.67
-4.88
-8.31
-11.76
-14.98
-17.85
-20.51
-23.30
-26.54
-30.19
-33.74
-36.33
-37.06
-35.40
-31.35
-25.47
-18.56
-11.39
-4.52
1.75
7.25
11.81
15.17
17.00
17.11
15.57
12.82
9.55
6.59
4.60
3.94
4.56
6.11
8.09
10.03
11.61
12.62
13.01
12.85
12.25
11.37
10.31
9.12
7.71
5.98
3.82
1.24
-1.59
-4.45
-7.09
-9.35
-11.26
-12.94
-14.67
-16.75
-19.42
-22.76
-26.57
-30.34
-33.41
-35.05
-34.71
-32.17
-27.51
-21.14
-13.61
-5.58
2.31
9.46
15.43
19.96
23.04
24.88
25.78
26.01
25.72
24.90
23.47
21.43
18.91
16.14
13.43
11.00
8.86
6.90
4.88
2.62
0.00
-2.92
-6.05
-9.26
-12.50
-15.83
-19.31
-22.95
-26.63
-30.11
-33.07
-35.32
-36.84
-37.78
-38.45
-39.14
-40.05
-41.29
-42.90
-44.81
-46.87
-48.67
-49.58
-48.85
-45.89
-40.58
-33.39
-25.29
-17.36
-10.51
-5.21
-1.47
1.01
2.63
3.75
4.67
5.62
6.79
8.36
10.48
13.17
16.42
20.09
23.97
27.84
31.49
34.73
37.38
39.26
40.08
39.56
37.52
33.96
29.15
23.57
17.77
12.18
7.10
2.65
-1.08
-4.04
-6.24
-7.82
-9.00
-10.10
-11.34
-12.69
-13.87
-14.38
-13.72
-11.60
-7.99
-3.29
1.90
6.91
11.20
14.48
16.78
18.38
19.63
20.75
21.83
22.79
23.52
23.95
24.11
24.10
23.92
23.43
22.41
20.68
18.22
15.23
12.04
8.90
5.89
2.74
-0.87
-5.16
-10.02
-14.96
-19.38
-22.80
-25.12
-26.77
-28.44
-30.72
-33.80
-37.25
-40.21
-41.76
-41.20
-38.43
-33.79
-27.91
-21.37
-14.61
-7.92
-1.62
3.92
8.23
10.99
12.25
12.56
12.75
13.70
15.97
19.66
24.33
29.26
33.66
36.96
38.90
39.55
39.29
38.53
37.64
36.70
35.60
34.02
31.72
28.67
25.14
21.53
18.20
15.28
12.67
10.04
7.08
3.59
-0.47
-4.93
-9.50
-13.78
-17.33
-19.76
-20.76
-20.16
-17.93
-14.16
-9.09
-3.15
3.07
8.85
13.50
16.55
17.95
18.00
17.26
16.21
15.17
14.17
13.15
12.07
11.04
10.30
10.02
10.19
10.55
10.63
9.94
8.23
5.51
2.11
-1.48
-4.85
-7.82
-10.43
-12.91
-15.46
-18.16
-20.97
-23.78
-26.58
-29.45
-32.41
-35.25
-37.49
-38.33
-37.08
-33.40
-27.51
-20.21
-12.52
-5.39
0.61
5.37
9.02
11.79
13.78
14.97
15.33
14.93
14.03
12.98
12.13
11.71
11.73
12.03
12.37
12.49
12.23
11.58
10.64
9.56
8.48
7.40
6.23
4.78
2.86
0.41
-2.53
-5.88
-9.59
-13.68
-18.24
-23.32
-28.80
-34.31
-39.24
-42.89
-44.59
-43.90
-40.74
-35.42
-28.55
-20.93
-13.40
-6.61
-0.99
3.24
6.07
7.52
7.69
6.74
4.97
2.76
0.52
-1.44
-3.09
-4.59
-6.29
-8.44
-11.06
-13.85
-16.38
-18.30
-19.52
-20.25
-20.82
-21.39
-21.81
-21.70
-20.65
-18.52
-15.59
-12.46
-9.79
-8.03
-7.28
-7.31
-7.78
-8.29
-8.53
-8.14
-6.69
-3.66
1.34
8.38
17.03
26.33
35.09
42.19
47.00
49.44
49.89
48.94
47.04
44.43
41.21
37.50
33.67
30.22
27.72
26.41
26.10
26.18
25.91
24.67
22.20
18.67
14.49
10.12
5.91
2.07
-1.38
-4.53
-7.48
-10.34
-13.23
-16.27
-19.65
-23.57
-28.11
-33.22
-38.48
-43.16
-46.31
-47.05
-44.86
-39.85
-32.73
-24.65
-16.83
-10.26
-5.52
-2.69
-1.52
-1.58
-2.42
-3.66
-4.98
-6.18
-7.11
-7.71
-7.98
-8.00
-7.87
-7.60
-7.22
-6.73
-6.17
-5.71
-5.62
-6.16
-7.50
-9.64
-12.38
-15.35
-18.18
-20.58
-22.47
-23.99
-25.45
-27.07
-28.87
-30.47
-31.24
-30.44
-27.55
-22.42
-15.37
-6.97
2.13
11.40
20.44
28.88
36.30
42.20
46.09
47.75
47.39
45.62
43.28
41.14
39.61
38.70
38.13
37.60
36.96
36.29
35.65
34.95
33.83
31.79
28.42
23.67
17.84
11.52
5.31
-0.38
-5.36
-9.63
-13.29
-16.42
-19.18
-21.82
-24.60
-27.75
-31.23
-34.65
-37.32
-38.43
-37.41
-34.02
-28.49
-21.42
-13.56
-5.67
1.55
7.57
11.99
14.60
15.45
14.83
13.27
11.41
9.80
8.82
8.59
8.97
9.70
10.48
11.10
11.49
11.75
12.02
12.44
12.98
13.46
13.46
12.40
9.74
5.13
-1.43
-9.48
-18.22
-26.65
-33.96
-39.68
-43.81
-46.67
-48.65
-49.92
-50.30
-49.34
-46.64
-42.03
-35.82
-28.65
-21.25
-14.10
-7.33
-0.73
6.00
12.98
19.90
26.18
31.10
34.11
35.08
34.31
32.45
30.20
28.08
26.38
25.12
24.20
23.60
23.40
23.70
24.50
25.59
26.50
26.70
25.79
23.68
20.61
17.11
13.67
10.66
8.20
6.26
4.68
3.29
1.89
0.22
-1.98
-4.97
-8.80
-13.19
-17.50
-20.82
-22.22
-21.09
-17.32
-11.36
-4.06
3.62
10.85
17.11
22.16
25.98
28.61
30.08
30.40
29.66
28.08
26.03
23.93
22.09
20.71
19.76
19.13
18.67
18.32
18.06
17.91
17.78
17.49
16.77
15.39
13.23
10.33
6.91
3.24
-0.37
-3.72
-6.73
-9.41
-11.90
-14.30
-16.69
-19.19
-21.90
-24.93
-28.34
-32.08
-35.92
-39.44
-42.11
-43.47
-43.19
-41.12
-37.22
-31.56
-24.34
-15.99
-7.22
0.90
7.30
11.15
12.28
11.17
8.83
6.37
4.60
3.70
3.35
2.97
2.07
0.55
-1.33
-3.07
-4.18
-4.54
-4.27
-3.66
-2.98
-2.30
-1.51
-0.54
0.55
1.41
1.54
0.58
-1.51
-4.42
-7.62
-10.65
-13.27
-15.56
-17.78
-20.11
-22.56
-24.82
-26.43
-26.88
-25.75
-22.86
-18.24
-12.17
-5.06
2.50
9.93
16.60
22.03
25.88
27.98
28.32
27.03
24.36
20.75
16.76
13.04
10.18
8.48
7.97
8.34
9.24
10.35
11.61
13.08
14.78
16.56
18.09
18.97
18.94
18.03
16.42
14.43
12.27
10.00
7.53
4.67
1.25
-2.86
-7.63
-12.81
-17.92
-22.25
-25.02
-25.57
-23.56
-19.01
-12.33
-4.18
4.58
13.04
20.38
25.95
29.45
30.99
31.03
30.22
29.18
28.31
27.71
27.23
26.60
25.64
24.23
22.43
20.40
18.30
16.27
14.34
12.51
10.66
8.69
6.48
3.97
1.13
-2.03
-5.43
-8.98
-12.57
-16.20
-19.90
-23.77
-27.90
-32.22
-36.43
-40.00
-42.27
-42.61
-40.66
-36.40
-30.22
-22.79
-14.88
-7.20
-0.25
5.61
10.18
13.30
14.90
14.97
13.75
11.66
9.29
7.23
5.86
5.23
5.08
5.05
4.81
4.24
3.49
2.89
2.85
3.67
5.49
8.09
10.92
13.24
14.30
13.58
11.01
6.91
1.79
-3.86
-9.81
-16.08
-22.71
-29.49
-35.85
-40.89
-43.67
-43.61
-40.65
-35.32
-28.48
-21.08
-13.80
-7.06
-1.08
3.92
7.66
9.86
10.33
9.26
7.13
4.71
2.68
1.53
1.42
2.13
3.28
4.43
5.24
5.48
5.14
4.28
3.01
1.40
-0.47
-2.57
-4.80
-7.03
-9.14
-11.07
-12.93
-14.92
-17.24
-19.96
-22.88
-25.50
-27.10
-26.96
-24.55
-19.78
-13.03
-5.07
3.08
10.55
16.75
21.45
24.73
26.77
27.68
27.54
26.42
24.47
22.01
19.41
17.04
15.11
13.69
12.68
11.93
11.24
10.41
9.23
7.57
5.37
2.69
-0.31
-3.47
-6.58
-9.54
-12.21
-14.55
-16.56
-18.30
-19.86
-21.23
-22.28
-22.71
-22.13
-20.29
-17.10
-12.77
-7.70
-2.32
2.95
7.78
11.87
14.89
16.56
16.71
15.36
12.73
9.19
5.21
1.14
-2.71
-6.11
-8.94
-11.16
-12.88
-14.35
-15.84
-17.50
-19.21
-20.56
-21.09
-20.50
-18.91
-16.81
-14.88
-13.65
-13.27
-13.42
-13.50
-12.88
-11.10
-8.06
-3.88
1.11
6.59
12.30
17.96
23.34
28.04
31.57
33.47
33.44
31.50
28.02
23.57
18.70
13.82
9.12
4.71
0.74
-2.57
-4.94
-6.30
-6.78
-6.81
-6.89
-7.42
-8.51
-10.03
-11.73
-13.41
-15.01
-16.59
-18.22
-19.84
-21.25
-22.11
-22.13
-21.11
-19.01
-15.87
-11.77
-6.80
-1.09
5.16
11.54
17.54
22.62
26.34
28.53
29.29
28.94
27.82
26.27
24.57
22.95
21.67
20.92
20.80
21.22
21.82
22.21
21.95
20.83
18.90
16.37
13.52
10.55
7.53
4.39
1.09
-2.34
-5.73
-8.92
-11.88
-14.81
-18.09
-22.08
-26.85
-31.96
-36.42
-39.06
-38.85
-35.33
-28.80
-20.15
-10.58
-1.18
7.32
14.62
20.66
25.45
28.90
30.86
31.29
30.29
28.29
25.86
23.55
21.68
20.21
18.86
17.31
15.34
12.99
10.52
8.19
6.13
4.24
2.28
-0.05
-2.90
-6.26
-9.99
-13.84
-17.62
-21.18
-24.37
-27.07
-29.16
-30.63
-31.66
-32.68
-34.25
-36.84
-40.54
-44.82
-48.61
-50.59
-49.66
-45.36
-38.03
-28.62
-18.39
-8.40
0.66
8.48
14.93
19.85
23.07
24.45
24.13
22.61
20.66
19.10
18.46
18.87
20.06
21.51
22.77
23.63
24.26
24.94
25.96
27.37
28.87
30.00
30.31
29.52
27.62
24.70
21.01
16.74
12.06
7.21
2.49
-1.82
-5.56
-8.89
-12.28
-16.35
-21.55
-27.93
-34.89
-41.41
-46.25
-48.42
-47.37
-43.09
-36.00
-26.68
-15.83
-4.17
7.55
18.36
27.31
33.66
37.08
37.88
36.83
34.95
33.11
31.74
30.83
30.18
29.62
29.15
28.94
29.12
29.64
30.12
30.09
29.13
27.12
24.22
20.76
17.09
13.45
9.86
6.26
2.60
-1.06
-4.59
-7.84
-10.83
-13.76
-17.05
-21.08
-25.90
-31.10
-35.74
-38.65
-38.84
-35.77
-29.65
-21.27
-11.77
-2.31
6.22
13.25
18.54
22.07
23.87
23.98
22.50
19.72
16.15
12.52
9.59
7.95
7.75
8.73
10.29
11.77
12.70
12.88
12.44
11.56
10.43
9.05
7.32
5.11
2.40
-0.63
-3.62
-6.17
-8.02
-9.23
-10.13
-11.29
-13.34
-16.74
-21.64
-27.75
-34.34
-40.36
-44.60
-46.07
-44.20
-39.05
-31.24
-21.68
-11.38
-1.13
8.40
16.72
23.31
27.81
30.01
30.05
28.45
25.90
23.10
20.47
18.14
16.04
14.11
12.38
11.10
10.46
10.53
11.14
11.93
12.46
12.37
11.47
9.72
7.21
4.10
0.57
-3.14
-6.80
-10.25
-13.46
-16.56
-19.91
-23.89
-28.76
-34.38
-40.17
-45.13
-48.26
-48.93
-47.12
-43.47
-39.00
-34.69
-31.12
-28.43
-26.29
-24.16
-21.38
-17.41
-11.93
-5.00
2.78
10.38
16.56
20.41
21.68
21.01
19.65
18.97
19.97
22.93
27.46
32.77
38.03
42.55
45.91
47.84
48.16
46.80
43.82
39.54
34.47
29.23
24.29
19.83
15.70
11.51
6.87
1.59
-4.25
-10.29
-15.92
-20.47
-23.31
-23.94
-22.13
-17.94
-11.80
-4.36
3.54
11.10
17.62
22.60
25.73
26.87
26.01
23.27
18.86
13.08
6.31
-1.06
-8.61
-15.96
-22.79
-28.84
-33.81
-37.43
-39.39
-39.50
-37.82
-34.73
-30.99
-27.60
-25.46
-25.20
-26.96
-30.37
-34.61
-38.64
-41.51
-42.66
-42.16
-40.72
-39.39
-38.99
-39.62
-40.42
-39.86
-36.44
-29.38
-19.04
-6.69
6.00
17.65
27.45
35.16
40.81
44.38
45.80
45.04
42.40
38.58
34.48
30.95
28.38
26.66
25.19
23.28
20.46
16.75
12.65
8.96
6.41
5.37
5.65
6.57
7.22
6.72
4.44
0.17
-5.96
-13.59
-22.31
-31.67
-41.20
-50.27
-57.97
-63.27
-65.13
-62.92
-56.68
-47.16
-35.70
-23.79
-12.73
-3.31
4.18
9.85
14.03
17.01
18.97
19.94
19.82
18.58
16.37
13.57
10.80
8.67
7.56
7.51
8.23
9.31
10.41
11.33
12.02
12.41
12.35
11.55
9.81
7.09
3.64
-0.18
-4.02
-7.73
-11.43
-15.43
-20.02
-25.13
-30.25
-34.39
-36.44
-35.51
-31.30
-24.29
-15.51
-6.17
2.68
10.45
16.92
22.10
25.98
28.42
29.26
28.49
26.39
23.46
20.35
17.64
15.72
14.73
14.57
15.00
15.63
16.00
15.65
14.27
11.77
8.29
4.22
-0.02
-4.08
-7.83
-11.30
-14.62
-17.92
-21.27
-24.64
-27.92
-30.87
-33.10
-34.04
-33.02
-29.44
-23.01
-13.98
-3.11
8.38
19.15
28.06
34.36
37.85
38.75
37.53
34.72
30.83
26.26
21.45
16.89
13.12
10.61
9.57
9.84
10.95
12.22
13.03
13.01
12.04
10.24
7.74
4.65
1.02
-3.10
-7.54
-12.07
-16.43
-20.50
-24.37
-28.26
-32.39
-36.68
-40.67
-43.56
-44.40
-42.47
-37.60
-30.17
-21.11
-11.55
-2.55
5.12
11.03
15.08
17.36
18.04
17.38
15.65
13.20
10.48
7.94
6.00
4.90
4.63
4.88
5.23
5.25
4.68
3.47
1.76
-0.30
-2.64
-5.24
-8.15
-11.32
-14.63
-17.92
-21.13
-24.42
-28.13
-32.57
-37.72
-43.10
-47.68
-50.22
-49.71
-45.71
-38.60
-29.43
-19.57
-10.28
-2.42
3.78
8.44
11.93
14.59
16.58
17.91
18.48
18.24
17.31
15.91
14.39
13.10
12.27
11.96
12.07
12.30
12.33
11.73
10.21
7.63
4.14
0.08
-4.14
-8.16
-11.90
-15.51
-19.27
-23.46
-28.12
-32.99
-37.52
-40.94
-42.42
-41.41
-37.67
-31.34
-22.96
-13.21
-2.87
7.33
16.67
24.36
29.69
32.23
32.07
29.94
27.05
24.66
23.57
23.79
24.76
25.66
26.05
26.08
26.47
28.03
31.17
35.57
40.26
44.06
46.00
45.72
43.36
39.55
34.97
30.14
25.32
20.52
15.56
10.21
4.32
-2.01
-8.31
-13.81
-17.56
-18.72
-16.87
-12.24
-5.57
2.08
9.70
16.56
22.23
26.48
29.08
29.84
28.66
25.74
21.74
17.55
14.11
12.00
11.24
11.35
11.58
11.33
10.32
8.72
6.92
5.35
4.28
3.73
3.50
3.26
2.73
1.69
0.04
-2.21
-4.95
-8.01
-11.22
-14.43
-17.66
-21.06
-24.80
-28.93
-33.21
-36.93
-39.09
-38.66
-34.98
-28.06
-18.67
-8.10
2.25
11.26
18.33
23.34
26.48
28.07
28.40
27.76
26.40
24.68
22.95
21.55
20.74
20.62
21.11
21.95
22.70
22.98
22.44
20.95
18.58
15.55
12.11
8.45
4.63
0.66
-3.39
-7.33
-10.78
-13.28
-14.53
-14.48
-13.53
-12.35
-11.73
-12.28
-14.29
-17.77
-22.59
-28.63
-35.80
-43.87
-52.20
-59.64
-64.74
-66.20
-63.32
-56.25
-45.97
-33.80
-21.05
-8.65
2.79
12.89
21.28
27.65
31.79
33.79
34.09
33.40
32.47
31.92
32.00
32.66
33.59
34.36
34.64
34.29
33.41
32.22
30.87
29.40
27.65
25.40
22.56
19.22
15.71
12.40
9.54
7.16
5.01
2.76
0.08
-3.07
-6.46
-9.73
-12.53
-14.75
-16.53
-18.35
-20.68
-23.85
-27.81
-32.14
-36.07
-38.72
-39.30
-37.27
-32.43
-25.02
-15.68
-5.37
4.87
14.03
21.41
26.70
29.94
31.42
31.60
30.86
29.60
28.07
26.52
25.16
24.12
23.47
23.13
22.97
22.75
22.26
21.39
20.10
18.44
16.53
14.47
12.30
9.98
7.42
4.53
1.26
-2.31
-5.97
-9.48
-12.61
-15.30
-17.63
-19.81
-22.05
-24.46
-27.05
-29.83
-32.85
-36.25
-40.13
-44.31
-48.22
-50.94
-51.41
-48.79
-42.81
-33.84
-22.94
-11.52
-1.00
7.56
13.68
17.41
19.16
19.47
18.75
17.26
15.19
12.79
10.44
8.60
7.59
7.48
7.98
8.62
8.98
8.83
8.26
7.48
6.67
5.79
4.63
2.97
0.78
-1.74
-4.23
-6.43
-8.34
-10.19
-12.30
-14.84
-17.67
-20.47
-22.91
-24.85
-26.55
-28.47
-31.12
-34.77
-39.24
-43.77
-47.23
-48.32
-46.05
-40.01
-30.68
-19.33
-7.64
2.76
10.80
16.10
18.97
20.04
19.95
19.24
18.21
17.08
15.99
14.92
13.69
12.15
10.42
9.18
9.73
13.47
21.28
32.77
46.20
59.10
69.29
75.85
79.36
81.31
83.08
84.92
85.73
83.69
77.29
66.23
51.70
35.81
20.65
7.38
-4.01
-14.37
-24.54
-34.60
-43.61
-50.04
-52.44
-50.34
-44.44
-36.36
-27.84
-20.14
-13.69
-8.32
-3.70
0.25
3.22
4.74
4.57
3.00
0.71
-1.32
-2.22
-1.48
1.00
4.83
9.23
13.22
15.80
16.28
14.57
11.15
6.90
2.74
-0.85
-3.79
-6.36
-8.77
-10.94
-12.40
-12.64
-11.45
-9.18
-6.66
-4.81
-4.12
-4.45
-5.02
-4.80
-3.00
0.60
5.62
11.24
16.54
20.81
23.71
25.21
25.47
24.66
22.79
19.83
15.74
10.70
5.08
-0.61
-5.84
-10.33
-14.04
-17.18
-19.96
-22.53
-24.93
-27.12
-29.17
-31.25
-33.65
-36.54
-39.87
-43.31
-46.36
-48.55
-49.74
-50.13
-50.34
-51.02
-52.68
-55.40
-58.69
-61.61
-62.91
-61.38
-56.12
-46.68
-33.18
-16.19
3.39
24.48
45.84
66.14
84.08
98.66
109.50
117.11
122.73
127.90
133.90
141.17
149.25
157.06
163.41
167.47
169.01
168.39
166.29
163.37
159.91
155.60
149.61
140.87
128.46
112.01
91.80
68.62
43.57
17.77
-7.90
-32.78
-56.73
-80.29
-104.61
-131.03
-159.95
-189.79
-216.43
-233.94
-236.56
-220.93
-187.86
-142.44
-92.48
-46.21
-10.06
12.51
20.81
16.26
1.60
-19.53
-42.78
-63.54
-77.96
-84.16
-83.15
-78.80
-76.79
-82.93
-101.53
-134.07
-178.62
-229.90
-280.21
-320.90
-344.46
-346.40
-326.36
-287.95
-237.28
-180.94
-124.47
-71.53
-24.14
16.68
50.48
77.27
97.68
113.11
125.22
135.49
144.70
152.84
159.24
163.03
163.48
160.33
153.71
144.09
131.97
117.83
101.97
84.84
67.12
50.03
35.07
23.63
16.45
13.27
12.84
13.31
12.79
9.92
4.22
-3.91
-13.35
-22.57
-30.06
-34.69
-35.99
-34.16
-29.96
-24.30
-18.03
-11.71
-5.62
0.16
5.78
11.58
18.19
26.26
36.16
47.60
59.53
70.37
78.60
83.36
84.68
83.47
80.92
78.03
75.29
72.74
70.26
67.91
65.98
64.78
64.37
64.37
64.06
62.76
60.10
56.18
51.40
46.19
40.81
35.28
29.58
23.76
17.92
12.12
6.23
0.01
-6.64
-13.50
-19.89
-24.87
-27.58
-27.58
-24.98
-20.38
-14.63
-8.67
-3.38
0.39
1.88
0.55
-3.81
-10.92
-19.99
-29.95
-39.74
-48.50
-55.72
-61.22
-65.01
-67.25
-68.20
-68.18
-67.48
-66.14
-63.97
-60.58
-55.66
-49.33
-42.21
-35.34
-29.66
-25.63
-23.08
-21.29
-19.35
-16.48
-12.26
-6.58
0.42
8.38
16.81
25.11
32.68
39.14
44.33
48.26
50.84
51.72
50.23
45.54
36.95
24.21
7.82
-10.94
-30.11
-47.34
-60.42
-67.70
-68.55
-63.39
-53.43
-40.24
-25.22
-9.33
6.88
23.06
38.81
53.67
67.29
79.63
91.09
102.36
114.20
127.12
141.16
155.91
170.61
184.36
196.34
205.90
212.54
215.91
215.77
212.04
204.93
195.08
183.51
171.42
159.85
149.34
139.79
130.59
121.06
110.81
99.94
88.99
78.62
69.25
60.89
53.18
45.54
37.33
28.11
17.74
6.42
-5.27
-16.51
-26.44
-34.46
-40.40
-44.55
-47.51
-49.92
-52.20
-54.48
-56.69
-58.86
-61.19
-64.11
-68.03
-73.24
-79.74
-87.28
-95.60
-104.46
-113.78
-123.44
-133.18
-142.64
-151.49
-159.73
-167.77
-176.29
-185.79
-196.24
-206.80
-216.03
-222.34
-224.52
-222.16
-215.62
-205.84
-193.85
-180.48
-166.14
-150.88
-134.51
-116.77
-97.53
-76.94
-55.55
-34.20
-13.95
4.26
19.78
32.40
42.28
49.84
55.60
60.10
63.92
67.61
71.60
76.04
80.68
84.87
87.77
88.61
87.03
83.16
77.63
71.35
65.24
59.97
55.87
52.82
50.34
47.70
44.19
39.45
33.61
27.35
21.63
17.12
13.85
10.93
6.94
0.66
-8.29
-19.04
-29.78
-38.70
-44.95
-49.18
-53.46
-60.49
-72.55
-90.66
-114.06
-140.49
-166.55
-188.53
-203.08
-207.86
-201.94
-186.03
-162.36
-134.17
-104.91
-77.48
-53.73
-34.55
-20.40
-12.18
-11.54
-20.62
-40.83
-71.76
-110.47
-151.91
-190.32
-221.03
-241.72
-252.55
-255.44
-252.84
-246.56
-237.38
-225.21
-209.70
-190.92
-169.85
-148.60
-130.04
-117.04
-111.23
-111.74
-114.90
-115.07
-106.82
-87.25
-57.25
-21.15
15.36
47.60
73.61
94.02
110.74
125.28
137.87
147.68
153.96
156.95
157.89
158.36
159.28
160.38
160.43
158.00
152.36
143.88
134.07
124.82
117.79
113.62
111.84
111.09
109.76
106.68
101.56
95.13
88.69
83.62
80.71
79.95
80.58
81.45
81.57
80.35
77.75
74.04
69.67
64.91
60.09
55.67
52.52
51.87
54.94
62.38
73.78
87.63
101.66
113.67
122.23
126.99
128.68
128.67
128.54
129.60
132.58
137.28
142.30
145.07
142.42
131.62
111.59
83.55
50.93
18.19
-10.53
-32.44
-46.46
-52.62
-51.45
-43.44
-29.18
-9.62
13.52
37.91
61.10
81.13
96.98
108.58
116.27
120.16
119.63
113.35
99.84
78.58
50.82
19.96
-9.17
-31.56
-43.66
-44.33
-35.07
-19.18
-0.64
17.00
31.29
40.98
45.76
45.92
42.08
35.02
25.56
14.61
3.12
-7.87
-17.27
-24.17
-28.27
-30.17
-31.72
-35.70
-45.04
-62.03
-87.80
-122.49
-165.48
-215.63
-270.66
-326.39
-376.42
-412.88
-428.50
-419.09
-384.97
-330.56
-262.68
-187.96
-111.66
-37.92
29.17
85.03
125.56
149.42
159.89
164.58
172.49
189.77
216.46
246.37
269.95
279.23
271.38
249.61
220.67
191.24
164.83
140.99
116.87
89.31
56.48
18.09
-24.65
-69.32
-112.61
-150.92
-181.55
-203.81
-219.39
-231.13
-241.29
-250.40
-256.94
-258.48
-253.27
-240.83
-221.43
-195.14
-161.64
-121.34
-76.99
-33.52
3.35
29.69
45.18
53.17
58.70
66.32
78.33
93.92
110.55
125.19
134.81
135.92
124.61
97.33
52.59
-7.48
-77.83
-149.27
-210.11
-249.72
-262.28
-248.49
-214.24
-167.37
-115.59
-68.11
-31.63
-9.36
-1.27
-5.20
-17.61
-33.48
-46.76
-53.22
-56.68
-62.63
-74.62
-92.82
-115.47
-140.64
-166.33
-189.06
-205.66
-219.59
-233.42
-246.85
-257.38
-263.72
-267.73
-272.92
-280.71
-249.33
-157.37
-16.09
137.11
268.46
364.28
425.73
455.04
464.25
459.89
438.78
398.10
338.96
265.57
186.64
115.43
61.71
30.84
20.42
19.31
18.12
13.21
6.43
1.39
-0.37
-0.31
-0.50
-3.52
-12.67
-27.03
-40.70
-45.04
-33.46
-5.65
31.76
69.30
97.98
112.08
111.75
101.83
88.58
76.58
66.98
58.47
49.91
41.19
33.09
26.76
22.81
20.91
20.12
19.28
17.91
16.58
16.64
19.58
26.03
35.70
47.01
57.97
66.89
73.10
76.95
79.64
82.46
86.18
90.68
95.11
98.50
100.37
101.12
101.53
102.73
105.46
109.86
115.65
122.56
130.60
139.81
149.69
158.40
163.69
163.60
157.56
146.72
133.31
119.24
104.97
89.45
71.13
50.45
30.51
16.11
11.24
16.68
29.28
43.46
56.72
67.62
77.67
89.82
105.97
124.85
142.18
152.75
153.21
143.72
127.13
107.76
88.86
71.43
54.29
35.09
11.52
-18.15
-55.24
-101.21
-156.92
-221.42
-290.67
-356.81
-408.91
-435.77
-429.63
-389.50
-322.61
-242.42
-164.67
-103.08
-66.13
-56.15
-70.29
-102.47
-144.99
-189.80
-229.03
-255.81
-265.35
-256.03
-229.83
-192.13
-150.67
-113.79
-88.69
-79.79
-87.70
-109.04
-137.30
-164.58
-183.96
-191.28
-185.90
-170.17
-147.71
-121.90
-94.92
-67.91
-42.01
-19.26
-2.62
4.98
2.02
-10.57
-29.30
-49.29
-65.82
-75.81
-78.40
-74.65
-66.58
-56.38
-45.75
-35.84
-27.38
-20.83
-16.41
-14.00
-13.16
-13.04
-12.42
-10.00
-4.72
3.81
14.99
27.06
37.48
43.55
43.31
36.45
24.86
12.36
3.71
2.92
11.80
29.14
51.43
74.35
94.51
110.49
122.66
132.11
139.42
144.07
145.12
142.15
136.06
128.80
122.46
118.09
115.23
112.30
107.65
100.47
91.25
81.35
72.50
66.14
63.11
63.49
66.63
71.12
75.06
76.47
74.03
67.77
59.22
50.88
45.11
43.16
44.66
47.92
50.92
52.29
51.98
51.04
51.03
53.02
57.00
61.67
64.96
64.99
60.96
53.69
45.40
38.77
35.74
36.65
40.09
43.53
44.39
40.85
32.33
19.58
4.42
-10.19
-20.37
-22.15
-12.70
8.14
36.87
66.58
89.40
99.48
95.55
81.26
62.81
45.04
28.24
8.03
-21.79
-64.29
-116.05
-167.12
-204.67
-218.01
-202.52
-160.26
-98.25
-25.70
47.85
112.94
159.99
180.03
166.85
120.18
47.56
-36.20
-112.44
-163.71
-178.42
-153.45
-94.31
-13.46
73.29
150.61
207.10
237.48
242.78
228.55
202.10
170.20
136.99
103.98
71.17
38.21
5.78
-25.12
-54.42
-83.39
-114.27
-149.84
-192.51
-243.43
-301.97
-364.34
-424.16
-473.55
-505.11
-513.75
-499.07
-465.44
-420.08
-370.41
-320.54
-271.68
-223.65
-176.55
-129.79
-84.01
-40.36
0.63
38.89
77.94
121.54
171.33
226.14
285.58
346.27
401.98
445.31
468.49
472.31
462.16
444.75
426.55
417.86
424.71
447.00
479.44
511.65
541.99
572.05
603.03
635.40
675.37
725.50
782.52
838.10
878.46
901.98
912.02
912.54
855.95
717.78
507.47
266.85
75.93
-60.61
-153.76
-214.94
-261.11
-300.20
-329.97
-348.83
-358.98
-366.49
-382.24
-404.61
-426.77
-441.91
-444.74
-428.85
-394.18
-347.59
-300.31
-266.15
-246.91
-238.53
-236.45
-237.49
-238.07
-237.52
-237.52
-240.87
-251.84
-268.23
-285.26
-297.74
-300.45
-288.19
-259.31
-217.22
-169.95
-128.49
-99.79
-86.27
-86.34
-95.74
-109.54
-124.53
-139.57
-154.80
-170.80
-186.87
-202.45
-218.51
-238.17
-266.19
-306.61
-359.82
-420.62
-478.63
-521.18
-537.90
-524.78
-485.68
-430.51
-370.99
-316.28
-270.34
-232.21
-198.11
-164.01
-127.03
-85.73
-40.04
8.29
54.99
93.18
114.84
113.82
88.84
45.00
-7.31
-55.86
-90.78
-107.31
-106.17
-91.84
-69.87
-44.77
-19.26
5.48
29.22
52.31
75.55
99.73
124.67
148.68
168.49
180.48
182.56
175.68
163.84
152.61
146.73
148.13
155.57
165.65
174.52
179.04
177.18
167.69
149.83
123.71
90.85
54.54
19.15
-11.01
-32.93
-45.44
-49.01
-44.94
-34.62
-19.31
-0.30
20.71
41.56
59.92
73.93
82.72
86.62
86.75
84.33
80.00
73.48
64.04
51.23
35.73
19.51
5.29
-4.43
-8.50
-7.39
-2.85
3.15
9.27
15.12
20.94
26.92
32.70
37.24
39.24
37.59
31.81
22.10
9.32
-4.93
-18.30
-27.67
-29.85
-22.45
-5.15
19.58
46.76
70.10
83.98
85.27
74.34
54.75
31.96
11.30
-3.67
-12.07
-15.47
-16.54
-17.65
-19.58
-21.52
-22.20
-21.14
-19.18
-17.53
-16.36
-14.27
-9.06
0.98
16.21
36.13
60.52
89.77
124.28
162.41
199.17
226.88
237.75
226.93
194.34
144.05
82.15
14.62
-53.55
-117.78
-173.27
-215.20
-240.06
-246.95
-237.78
-216.46
-187.58
-155.37
-123.24
-93.46
-67.17
-44.10
-22.56
0.10
26.53
58.46
96.07
137.76
180.25
218.47
246.46
258.81
252.57
229.05
194.06
156.30
124.17
102.53
90.95
84.71
77.54
64.85
45.71
22.61
-0.35
-19.71
-33.92
-43.46
-49.87
-54.68
-58.79
-62.10
-63.68
-62.19
-56.47
-46.07
-31.64
-14.57
3.64
22.24
41.74
63.35
87.86
114.42
140.21
161.12
173.52
175.87
169.39
157.39
143.52
130.26
118.30
107.17
96.39
86.55
79.13
75.70
76.59
80.30
83.92
84.35
79.55
69.34
55.16
39.34
24.05
10.66
-0.49
-9.73
-17.69
-24.84
-31.17
-36.21
-39.19
-39.49
-36.89
-31.90
-25.65
-19.65
-15.35
-13.72
-15.06
-19.19
-25.70
-34.34
-45.17
-58.42
-74.03
-91.09
-107.64
-120.93
-128.28
-128.08
-120.43
-107.03
-90.55
-73.45
-57.24
-42.17
-27.64
-12.85
2.47
17.78
31.80
42.95
49.90
51.87
48.77
41.13
29.89
16.33
1.87
-11.99
-23.92
-32.98
-38.78
-41.48
-41.66
-40.02
-37.18
-33.66
-29.84
-26.08
-22.62
-19.53
-16.53
-13.20
-9.22
-4.62
0.04
3.84
5.83
5.36
2.28
-3.10
-10.31
-18.86
-28.41
-38.55
-48.69
-57.94
-65.28
-69.81
-71.01
-68.99
-64.40
-58.33
-51.90
-46.03
-41.24
-37.67
-35.26
-33.91
-33.63
-34.48
-36.56
-39.89
-44.40
-49.90
-56.12
-62.72
-69.29
-75.34
-80.30
-83.59
-84.72
-83.44
-79.72
-73.82
-66.18
-57.43
-48.36
-39.76
-32.22
-25.99
-20.87
-16.30
-11.65
-6.44
-0.58
5.58
11.46
16.41
20.03
22.20
23.06
22.92
22.10
20.88
19.47
18.00
16.60
15.36
14.34
13.57
13.09
12.94
13.17
13.85
14.95
16.30
17.54
18.21
17.95
16.67
14.67
12.55
10.93
10.19
10.17
10.22
9.43
7.04
2.83
-2.67
-8.33
-12.73
-14.61
-13.25
-8.58
-1.21
7.79
17.13
25.48
31.81
35.54
36.77
36.41
36.05
37.52
42.27
50.69
61.96
74.17
85.03
92.72
96.41
96.46
94.06
90.56
86.94
83.54
80.16
76.44
72.35
68.26
64.95
63.22
63.59
66.07
69.92
73.61
74.82
70.76
58.83
37.67
8.34
-25.32
-57.20
-80.62
-90.47
-84.87
-65.65
-37.48
-6.02
23.67
47.91
64.51
72.24
70.69
60.38
43.14
22.07
1.03
-16.57
-28.78
-35.58
-38.42
-39.09
-38.78
-37.48
-34.38
-28.56
-19.79
-8.73
3.22
14.44
23.44
29.18
31.12
29.16
23.63
15.19
4.74
-6.67
-18.13
-28.81
-38.01
-45.16
-49.84
-51.84
-51.30
-48.54
-44.02
-38.17
-31.40
-24.12
-16.90
-10.44
-5.52
-2.69
-2.28
-4.25
-8.28
-13.87
-20.44
-27.33
-33.88
-39.55
-44.06
-47.45
-49.95
-51.83
-53.18
-53.79
-53.23
-51.08
-47.11
-41.47
-34.65
-27.31
-20.19
-13.93
-9.07
-6.02
-5.07
-6.23
-9.21
-13.36
-17.88
-21.96
-25.15
-27.40
-29.05
-30.52
-32.15
-33.97
-35.80
-37.37
-38.51
-39.18
-39.38
-39.08
-38.14
-36.32
-33.45
-29.49
-24.66
-19.40
-14.24
-9.71
-6.14
-3.65
-2.08
-1.04
-0.15
0.92
2.28
3.84
5.36
6.54
7.10
6.77
5.34
2.69
-1.08
-5.61
-10.21
-14.07
-16.41
-16.74
-14.97
-11.33
-6.29
-0.34
6.02
12.35
18.16
22.98
26.31
27.81
27.37
25.11
21.43
16.85
11.97
7.39
3.60
1.01
-0.12
0.23
1.89
4.44
7.36
10.13
12.39
14.01
15.00
15.47
15.44
14.82
13.31
10.60
6.46
0.97
-5.43
-11.93
-17.59
-21.51
-23.16
-22.45
-19.83
-16.14
-12.37
-9.42
-7.88
-7.93
-9.31
-11.48
-13.76
-15.47
-16.06
-15.17
-12.65
-8.62
-3.39
2.53
8.55
14.15
18.93
22.62
25.07
26.19
25.91
24.26
21.40
17.68
13.55
9.40
5.54
2.05
-1.11
-4.06
-6.88
-9.58
-12.10
-14.28
-15.89
-16.60
-16.06
-13.97
-10.25
-5.11
0.90
7.04
12.48
16.50
18.63
18.67
16.79
13.47
9.48
5.63
2.68
1.09
1.00
2.24
4.48
7.33
10.37
13.17
15.19
15.88
14.83
11.90
7.37
1.86
-3.80
-8.88
-12.84
-15.35
-16.23
-15.43
-13.05
-9.39
-5.03
-0.72
2.83
5.23
6.54
7.26
8.05
9.42
11.48
13.91
16.08
17.35
17.35
16.08
13.94
11.48
9.23
7.56
6.57
6.21
6.40
7.12
8.42
10.23
12.27
14.05
14.92
14.37
12.26
8.79
4.47
-0.24
-5.02
-9.72
-14.27
-18.42
-21.70
-23.64
-23.97
-22.91
-21.14
-19.54
-18.78
-18.98
-19.62
-19.72
-18.26
-14.56
-8.48
-0.43
8.82
18.42
27.64
36.04
43.52
50.14
56.09
61.45
66.00
69.05
69.49
65.94
57.24
42.87
23.62
1.65
-19.85
-37.48
-48.63
-52.29
-49.15
-41.16
-30.63
-19.42
-8.56
1.59
10.87
18.83
24.68
27.56
27.12
23.81
18.91
14.11
10.77
9.34
9.14
8.65
6.24
1.03
-6.65
-15.11
-22.00
-25.12
-23.34
-17.25
-9.23
-3.14
-3.51
-14.40
-38.09
-73.96
-117.86
-162.60
-199.42
-220.43
-220.81
-200.13
-162.08
-112.87
-59.10
-6.12
42.60
85.23
120.62
147.83
165.96
174.54
173.86
165.10
149.98
130.39
108.19
85.10
63.05
44.04
30.03
22.52
22.13
28.42
39.99
54.85
70.81
85.98
99.02
109.32
116.91
122.25
125.91
128.22
129.16
128.25
124.80
118.13
107.82
93.80
76.38
56.11
33.68
9.98
-13.88
-36.50
-56.25
-71.36
-80.28
-82.17
-77.21
-66.83
-53.37
-39.51
-27.50
-18.72
-13.62
-11.94
-13.20
-16.87
-22.43
-29.22
-36.35
-42.88
-48.11
-52.01
-55.20
-58.78
-63.80
-70.84
-79.76
-89.70
-99.16
-106.25
-108.91
-105.36
-94.45
-76.13
-51.60
-23.16
6.29
33.90
57.42
75.56
88.17
96.16
101.14
105.00
109.29
114.60
120.25
124.52
125.17
120.26
108.83
91.14
68.46
42.68
15.82
-10.30
-34.23
-55.07
-72.47
-86.73
-98.55
-108.73
-117.67
-125.18
-130.55
-133.04
-132.46
-129.64
-126.34
-124.84
-127.25
-134.64
-146.48
-160.29
-171.68
-175.13
-165.30
-138.85
-95.88
-40.55
19.95
77.45
125.28
159.88
181.10
190.94
192.03
186.34
174.87
158.09
136.69
111.90
85.27
58.17
31.39
5.16
-20.20
-43.82
-63.80
-77.69
-83.33
-79.96
-69.01
-53.92
-39.31
-29.60
-27.67
-34.13
-47.40
-64.44
-81.49
-94.82
-101.08
-97.96
-84.62
-62.32
-34.45
-5.81
18.60
35.00
41.76
39.43
30.09
16.38
0.62
-15.39
-30.31
-43.00
-52.45
-57.98
-59.43
-57.21
-52.20
-45.36
-37.63
-29.71
-22.09
-15.18
-9.28
-4.70
-1.73
-0.61
-1.57
-4.70
-9.88
-16.76
-24.68
-32.80
-40.26
-46.37
-50.73
-53.28
-54.18
-53.63
-51.73
-48.48
-43.90
-38.20
-31.95
-26.01
-21.44
-19.16
-19.68
-22.84
-27.80
-33.16
-37.37
-39.16
-37.97
-34.15
-28.91
-24.01
-21.35
-22.34
-27.50
-36.10
-46.30
-55.49
-61.07
-61.25
-55.61
-45.25
-32.32
-19.20
-7.74
1.28
7.96
12.84
16.29
18.16
17.48
12.79
2.78
-12.66
-31.43
-48.87
-58.44
-53.57
-30.11
11.75
67.03
127.38
183.71
228.99
259.74
276.04
280.16
275.07
263.37
247.02
227.53
206.20
184.19
162.33
141.05
120.40
100.26
80.63
61.86
44.63
29.82
18.24
10.37
6.09
4.54
4.31
3.81
1.77
-2.26
-7.83
-13.76
-18.55
-21.01
-20.58
-17.48
-12.45
-6.42
-0.09
6.17
12.41
18.81
25.44
32.01
37.87
42.10
43.81
42.43
37.89
30.64
21.48
11.21
0.50
-10.29
-20.95
-31.30
-41.02
-49.72
-57.04
-62.87
-67.39
-70.93
-73.85
-76.38
-78.57
-80.46
-82.13
-83.77
-85.59
-87.71
-89.97
-91.89
-92.84
-92.14
-89.38
-84.53
-77.95
-70.30
-62.34
-54.78
-48.10
-42.55
-38.17
-34.83
-32.32
-30.45
-28.97
-27.64
-26.22
-24.48
-22.33
-19.90
-17.50
-15.51
-14.27
-13.92
-14.32
-15.18
-16.09
-16.85
-17.55
-18.56
-20.40
-23.48
-27.78
-32.76
-37.49
-40.90
-42.17
-40.87
-37.05
-31.01
-23.22
-14.13
-4.20
5.95
15.64
24.12
30.77
35.31
37.86
38.83
38.82
38.37
37.73
36.87
35.50
33.32
30.21
26.26
21.85
17.43
13.36
9.84
6.83
4.20
1.72
-0.80
-3.59
-6.81
-10.54
-14.70
-18.93
-22.61
-24.95
-25.26
-23.10
-18.47
-11.85
-3.97
4.37
12.48
19.88
26.26
31.38
35.08
37.27
38.07
37.80
36.97
36.06
35.38
34.97
34.62
34.01
32.88
31.12
28.79
26.11
23.29
20.60
18.17
15.99
13.93
11.77
9.27
6.34
2.93
-0.84
-4.74
-8.52
-11.97
-14.87
-17.18
-18.95
-20.56
-22.51
-25.31
-29.24
-34.08
-39.10
-43.20
-45.31
-44.67
-41.14
-35.04
-27.03
-17.84
-8.12
1.54
10.63
18.54
24.77
28.99
31.24
31.91
31.60
30.90
30.24
29.79
29.53
29.37
29.25
29.17
29.14
29.22
29.44
29.83
30.43
31.26
32.27
33.27
33.97
34.04
33.32
31.79
29.65
27.16
24.57
22.01
19.52
17.09
14.73
12.49
10.44
8.62
6.98
5.37
3.66
1.78
-0.26
-2.40
-4.55
-6.68
-8.83
-11.03
-13.26
-15.48
-17.58
-19.59
-21.61
-23.90
-26.73
-30.18
-33.98
-37.52
-39.95
-40.43
-38.55
-34.35
-28.36
-21.42
-14.35
-7.75
-1.92
3.08
7.26
10.62
13.06
14.52
15.04
14.82
14.23
13.68
13.49
13.86
14.76
16.01
17.39
18.65
19.66
20.37
20.84
21.13
21.27
21.22
20.84
20.05
18.82
17.27
15.57
13.92
12.42
10.99
9.53
7.92
6.19
4.46
2.88
1.51
0.28
-0.98
-2.40
-3.99
-5.65
-7.20
-8.55
-9.80
-11.23
-13.19
-15.93
-19.40
-23.17
-26.55
-28.75
-29.17
-27.58
-24.20
-19.55
-14.24
-8.83
-3.70
0.92
4.84
7.85
9.78
10.57
10.39
9.62
8.73
8.10
7.89
8.04
8.43
9.09
10.31
12.53
16.16
21.18
27.12
33.06
38.02
41.28
42.57
42.08
40.21
37.36
33.74
29.44
24.56
19.28
13.93
8.84
4.14
-0.18
-4.21
-7.98
-11.36
-14.14
-16.13
-17.44
-18.50
-19.98
-22.45
-26.18
-30.95
-36.04
-40.56
-43.64
-44.70
-43.54
-40.31
-35.42
-29.38
-22.71
-15.90
-9.37
-3.64
0.86
3.77
5.04
4.91
3.93
2.76
1.97
1.81
2.27
3.18
4.37
5.85
7.69
9.95
12.50
14.99
16.91
17.83
17.57
16.24
14.24
12.09
10.25
8.91
7.98
7.18
6.16
4.69
2.76
0.52
-1.73
-3.77
-5.52
-7.08
-8.60
-10.29
-12.30
-14.76
-17.76
-21.36
-25.50
-29.90
-34.06
-37.28
-38.82
-38.18
-35.17
-29.99
-23.17
-15.35
-7.25
0.43
7.03
12.02
15.10
16.29
15.99
14.83
13.46
12.37
11.76
11.58
11.71
12.14
12.92
14.13
15.73
17.48
18.97
19.83
19.84
19.03
17.58
15.76
13.85
12.13
10.79
9.85
9.02
7.66
4.87
-0.19
-7.90
-17.91
-29.17
-40.18
-49.52
-56.28
-60.27
-61.88
-61.74
-60.27
-57.54
-53.30
-47.39
-39.95
-31.56
-23.06
-15.31
-8.83
-3.82
-0.21
2.21
3.61
4.19
4.19
3.95
3.82
4.10
4.94
6.42
8.56
11.30
14.52
17.98
21.39
24.44
26.99
29.06
30.75
32.10
33.00
33.17
32.31
30.26
27.07
23.02
18.46
13.69
8.90
4.15
-0.49
-4.89
-8.78
-11.76
-13.46
-13.61
-12.14
-9.31
-5.55
-1.39
2.62
6.13
8.88
10.74
11.58
11.30
9.84
7.29
3.95
0.32
-2.99
-5.49
-6.92
-7.35
-7.11
-6.62
-6.27
-6.24
-6.50
-6.85
-7.11
-7.20
-7.22
-7.44
-8.07
-9.19
-10.70
-12.38
-14.04
-15.63
-17.15
-18.56
-19.63
-19.88
-18.83
-16.28
-12.46
-8.08
-4.01
-1.02
0.50
0.51
-0.82
-3.31
-6.79
-11.04
-15.57
-19.64
-22.34
-22.96
-21.25
-17.59
-12.90
-8.34
-4.93
-3.22
-3.17
-4.20
-5.43
-6.03
-5.40
-3.36
-0.10
3.85
7.87
11.28
13.49
14.15
13.20
11.02
8.42
6.46
6.12
7.97
11.94
17.37
23.27
28.71
33.10
36.28
38.44
39.83
40.64
40.95
40.80
40.27
39.58
38.93
38.45
38.06
37.51
36.54
34.97
32.84
30.33
27.71
25.14
22.68
20.24
17.67
14.82
11.63
8.07
4.12
-0.21
-4.84
-9.59
-14.11
-17.94
-20.58
-21.60
-20.85
-18.41
-14.65
-10.10
-5.31
-0.80
3.06
6.01
7.96
8.94
8.99
8.28
6.99
5.36
3.70
2.34
1.51
1.27
1.44
1.67
1.60
1.00
-0.13
-1.59
-3.17
-4.77
-6.51
-8.61
-11.21
-14.24
-17.39
-20.33
-22.89
-25.15
-27.43
-29.95
-32.52
-34.49
-34.94
-33.02
-28.52
-21.91
-14.33
-7.02
-0.91
3.71
7.05
9.51
11.37
12.62
13.04
12.53
11.26
9.70
8.44
7.90
8.14
8.92
9.83
10.47
10.61
10.21
9.32
8.01
6.33
4.36
2.15
-0.19
-2.49
-4.59
-6.37
-7.91
-9.37
-11.04
-13.19
-15.96
-19.27
-22.78
-25.99
-28.31
-29.24
-28.50
-26.11
-22.32
-17.58
-12.34
-7.00
-1.79
3.20
7.82
11.79
14.68
16.00
15.56
13.62
10.95
8.66
7.70
8.54
10.85
13.70
15.91
16.61
15.72
13.98
12.61
12.72
14.68
17.88
20.87
22.01
20.18
15.25
8.30
1.37
-2.91
-1.91
6.27
22.05
43.72
67.55
88.64
102.47
106.40
100.50
87.09
69.57
50.73
31.80
12.26
-9.34
-34.13
-61.61
-89.12
-112.30
-126.51
-128.79
-119.21
-101.12
-79.89
-60.73
-46.71
-38.02
-32.77
-28.62
-24.31
-20.04
-16.78
-15.13
-14.63
-13.99
-11.96
-8.17
-3.37
0.86
2.94
2.08
-1.44
-6.31
-11.00
-14.31
-15.88
-16.19
-16.18
-16.55
-17.41
-18.13
-17.67
-15.16
-10.34
-3.70
3.66
10.52
15.92
19.48
21.35
22.01
21.98
21.58
20.82
19.53
17.49
14.74
11.65
8.84
6.91
6.02
5.83
5.56
4.39
1.89
-1.70
-5.56
-8.75
-10.67
-11.36
-11.45
-11.81
-13.08
-15.51
-18.87
-22.74
-26.69
-30.35
-33.33
-35.26
-36.10
-36.57
-38.43
-44.01
-55.29
-72.43
-92.95
-112.06
-124.15
-125.06
-113.73
-92.79
-67.48
-43.56
-25.27
-14.11
-8.72
-5.95
-2.32
4.83
16.72
33.37
54.19
78.17
103.85
129.11
151.18
167.44
176.41
178.66
176.78
174.28
173.97
176.62
180.87
184.09
183.80
178.68
168.72
154.69
137.45
117.67
95.96
73.06
49.83
27.14
5.65
-14.33
-32.62
-49.01
-63.06
-74.18
-81.87
-85.97
-86.77
-85.04
-81.78
-78.07
-74.78
-72.36
-70.84
-69.90
-69.01
-67.64
-65.45
-62.35
-58.45
-53.97
-49.17
-44.31
-39.69
-35.54
-32.00
-29.11
-26.78
-24.83
-23.15
-21.75
-20.74
-20.34
-20.73
-21.94
-23.85
-26.12
-28.31
-29.97
-30.81
-30.81
-30.20
-29.38
-28.79
-28.75
-29.38
-30.69
-32.52
-34.65
-36.72
-38.26
-38.68
-37.43
-34.13
-28.79
-21.82
-13.93
-5.96
1.33
7.44
12.15
15.49
17.58
18.56
18.55
17.73
16.36
14.87
13.77
13.52
14.35
16.14
18.41
20.59
22.19
22.96
22.97
22.45
21.67
20.72
19.54
17.98
15.86
13.13
9.92
6.45
3.02
-0.20
-3.11
-5.78
-8.33
-10.88
-13.50
-16.18
-18.86
-21.47
-23.92
-26.01
-27.41
-27.64
-26.21
-22.77
-17.33
-10.36
-2.71
4.64
10.90
15.57
18.59
20.14
20.52
19.99
18.72
16.91
14.82
12.86
11.43
10.78
10.85
11.34
11.82
11.96
11.65
11.00
10.18
9.26
8.15
6.63
4.52
1.84
-1.16
-4.04
-6.39
-8.01
-9.04
-9.88
-11.10
-13.11
-16.01
-19.47
-22.80
-25.16
-25.80
-24.29
-20.61
-15.04
-8.10
-0.31
7.83
15.89
23.42
29.94
34.96
38.11
39.28
38.72
36.98
34.72
32.49
30.51
28.67
26.64
24.21
21.41
18.58
16.13
14.36
13.22
12.39
11.37
9.79
7.53
4.76
1.84
-0.97
-3.54
-5.99
-8.52
-11.36
-14.64
-18.35
-22.33
-26.29
-29.81
-32.32
-33.24
-32.10
-28.72
-23.28
-16.37
-8.82
-1.46
5.07
10.48
14.74
17.99
20.30
21.60
21.75
20.63
18.35
15.21
11.74
8.49
5.94
4.37
3.80
4.08
4.86
5.73
6.34
6.48
6.10
5.35
4.40
3.35
2.16
0.80
-0.76
-2.43
-4.16
-5.97
-7.96
-10.26
-12.76
-15.09
-16.66
-16.91
-15.63
-12.99
-9.50
-5.73
-2.07
1.31
4.37
7.09
9.28
10.77
11.52
11.69
11.71
11.99
12.76
13.96
15.22
16.04
16.05
15.12
13.41
11.31
9.19
7.26
5.39
3.25
0.53
-2.89
-6.82
-10.76
-14.24
-16.96
-19.04
-20.90
-23.10
-25.99
-29.53
-33.29
-36.58
-38.66
-38.99
-37.33
-33.73
-28.53
-22.30
-15.77
-9.65
-4.58
-0.94
1.18
1.93
1.58
0.43
-1.27
-3.23
-5.11
-6.57
-7.27
-7.11
-6.23
-4.98
-3.76
-2.86
-2.33
-2.07
-1.93
-1.83
-1.78
-1.97
-2.61
-3.91
-5.95
-8.65
-11.85
-15.34
-18.96
-22.55
-25.87
-28.51
-29.92
-29.50
-26.95
-22.43
-16.56
-10.23
-4.28
0.81
4.92
8.14
10.57
12.10
12.52
11.64
9.60
6.84
4.05
1.93
0.94
1.14
2.26
3.76
5.10
5.85
5.89
5.28
4.22
2.85
1.20
-0.84
-3.38
-6.45
-9.95
-13.71
-17.50
-21.09
-24.18
-26.38
-27.21
-26.26
-23.30
-18.47
-12.23
-5.28
1.69
8.10
13.55
17.76
20.55
21.84
21.67
20.26
18.02
15.45
13.10
11.33
10.31
9.97
9.99
10.00
9.67
8.84
7.56
6.03
4.45
2.96
1.48
-0.21
-2.42
-5.40
-9.17
-13.48
-17.68
-20.93
-22.39
-21.51
-18.22
-12.96
-6.51
0.25
6.66
12.31
17.05
20.78
23.38
24.64
24.46
22.89
20.28
17.15
14.03
11.31
9.14
7.50
6.27
5.34
4.62
4.03
3.39
2.52
1.28
-0.35
-2.29
-4.42
-6.70
-9.29
-12.44
-16.34
-20.84
-25.32
-28.85
-30.40
-29.23
-25.24
-18.98
-11.45
-3.71
3.42
9.52
14.50
18.43
21.19
22.60
22.44
20.78
18.11
15.23
13.02
11.99
12.10
12.84
13.53
13.65
13.10
12.15
11.15
10.27
9.36
8.09
6.19
3.68
0.91
-1.66
-3.69
-5.14
-6.36
-7.82
-9.88
-12.48
-15.13
-16.98
-17.15
-15.05
-10.57
-4.17
3.35
11.11
18.36
24.64
29.67
33.38
35.69
36.60
36.17
34.63
32.37
29.93
27.83
26.46
25.94
26.04
26.33
26.28
25.52
23.98
21.85
19.49
17.21
15.18
13.38
11.71
10.10
8.55
7.13
5.87
4.74
3.65
2.48
1.12
-0.46
-2.31
-4.54
-7.32
-10.92
-15.52
-21.07
-27.16
-33.00
-37.53
-39.72
-38.91
-35.03
-28.60
-20.59
-12.10
-4.09
2.81
8.31
12.35
14.98
16.28
16.40
15.54
14.07
12.43
11.10
10.45
10.62
11.51
12.86
14.35
15.76
16.94
17.90
18.65
19.15
19.29
18.94
17.92
16.15
13.66
10.58
7.16
3.68
0.42
-2.43
-4.74
-6.51
-7.86
-8.99
-10.24
-12.02
-14.68
-18.37
-22.86
-27.43
-30.98
-32.33
-30.55
-25.36
-17.22
-7.17
3.44
13.40
21.82
28.31
32.81
35.44
36.32
35.57
33.33
29.90
25.74
21.52
17.83
15.06
13.26
12.24
11.65
11.28
11.08
11.14
11.55
12.14
12.54
12.24
10.79
8.07
4.29
-0.01
-4.20
-7.76
-10.48
-12.47
-14.10
-15.78
-17.80
-20.29
-23.21
-26.48
-29.96
-33.45
-36.62
-38.93
-39.76
-38.52
-34.91
-29.00
-21.28
-12.50
-3.50
4.96
12.28
18.10
22.26
24.79
25.82
25.60
24.43
22.68
20.79
19.25
18.45
18.57
19.55
21.09
22.76
24.16
25.06
25.40
25.19
24.44
23.03
20.83
17.71
13.71
9.10
4.34
-0.13
-3.94
-7.01
-9.49
-11.75
-14.21
-17.21
-20.89
-25.15
-29.65
-33.79
-36.88
-38.23
-37.39
-34.19
-28.81
-21.72
-13.52
-4.92
3.40
10.77
16.62
20.54
22.43
22.50
21.26
19.38
17.44
15.82
14.61
13.71
12.90
12.04
11.00
9.73
8.21
6.45
4.55
2.63
0.84
-0.78
-2.31
-4.00
-6.12
-8.88
-12.25
-15.99
-19.67
-22.87
-25.30
-26.94
-27.98
-28.78
-29.67
-30.83
-32.12
-33.15
-33.31
-31.92
-28.44
-22.61
-14.58
-4.85
5.69
16.04
25.16
32.26
36.82
38.69
38.10
35.48
31.55
26.97
22.40
18.35
15.11
12.75
11.22
10.40
10.18
10.40
10.86
11.31
11.49
11.22
10.39
8.95
6.86
4.06
0.50
-3.69
-8.22
-12.64
-16.55
-19.75
-22.39
-25.00
-28.15
-32.22
-37.11
-42.20
-46.52
-49.07
-49.19
-46.73
-42.03
-35.72
-28.45
-20.77
-13.06
-5.70
0.87
6.11
9.55
10.96
10.52
8.75
6.40
4.18
2.58
1.75
1.59
1.87
2.40
3.09
3.94
4.94
5.98
6.79
7.05
6.50
5.07
2.94
0.41
-2.18
-4.56
-6.64
-8.44
-10.14
-12.02
-14.34
-17.28
-20.74
-24.26
-27.09
-28.43
-27.62
-24.45
-19.14
-12.21
-4.36
3.78
11.61
18.63
24.35
28.43
30.66
31.08
29.93
27.63
24.69
21.61
18.86
16.78
15.56
15.19
15.50
16.22
17.06
17.78
18.19
18.12
17.49
16.24
14.40
12.05
9.35
6.37
3.17
-0.29
-4.07
-8.23
-12.71
-17.35
-21.76
-25.40
-27.69
-28.12
-26.44
-22.76
-17.48
-11.18
-4.43
2.27
8.49
13.82
17.88
20.29
20.88
19.75
17.28
14.08
10.75
7.76
5.33
3.51
2.16
1.13
0.29
-0.42
-1.04
-1.63
-2.33
-3.35
-4.94
-7.29
-10.45
-14.30
-18.57
-22.96
-27.26
-31.33
-35.17
-38.74
-41.96
-44.59
-46.24
-46.39
-44.54
-40.32
-33.70
-25.08
-15.29
-5.41
3.50
10.70
15.88
19.11
20.77
21.30
21.09
20.48
19.74
19.14
18.87
19.03
19.58
20.38
21.19
21.80
22.02
21.73
20.90
19.53
17.72
15.55
13.01
10.05
6.64
2.79
-1.36
-5.61
-9.78
-13.86
-18.04
-22.56
-27.49
-32.51
-36.88
-39.67
-40.07
-37.74
-32.99
-26.60
-19.52
-12.52
-6.03
-0.16
5.02
9.32
12.28
13.49
12.81
10.62
7.76
5.26
3.88
3.91
4.99
6.44
7.57
7.97
7.67
6.99
6.27
5.73
5.23
4.47
3.08
0.91
-1.97
-5.25
-8.55
-11.59
-14.29
-16.79
-19.34
-22.24
-25.63
-29.50
-33.51
-37.03
-39.25
-39.35
-36.80
-31.51
-23.96
-15.00
-5.63
3.24
10.94
17.04
21.26
23.50
23.84
22.65
20.54
18.26
16.49
15.65
15.76
16.55
17.54
18.31
18.64
18.52
18.18
17.93
18.09
18.87
20.25
22.02
23.76
24.96
25.12
23.91
21.21
17.07
11.66
5.18
-2.12
-9.89
-17.63
-24.66
-30.23
-33.70
-34.67
-33.10
-29.26
-23.64
-16.85
-9.55
-2.38
4.04
9.20
12.75
14.60
14.95
14.22
12.99
11.78
10.96
10.69
10.94
11.48
12.09
12.54
12.75
12.70
12.40
11.82
10.87
9.42
7.32
4.56
1.23
-2.43
-6.10
-9.48
-12.33
-14.62
-16.45
-18.12
-20.02
-22.49
-25.70
-29.42
-33.02
-35.46
-35.60
-32.57
-26.06
-16.53
-5.09
6.85
17.94
27.20
34.21
38.92
41.57
42.39
41.58
39.34
35.94
31.76
27.25
22.85
18.85
15.42
12.58
10.34
8.70
7.74
7.50
7.92
8.71
9.37
9.30
8.04
5.39
1.55
-3.01
-7.71
-12.06
-15.81
-18.98
-21.79
-24.54
-27.51
-30.86
-34.56
-38.28
-41.36
-42.93
-42.20
-38.68
-32.52
-24.39
-15.41
-6.75
0.63
6.09
9.36
10.50
9.83
7.91
5.47
3.23
1.71
1.11
1.30
1.90
2.59
3.17
3.63
4.01
4.33
4.51
4.35
3.73
2.60
1.07
-0.70
-2.50
-4.23
-5.89
-7.54
-9.30
-11.22
-13.33
-15.65
-18.22
-21.05
-24.13
-27.29
-30.09
-31.93
-32.09
-30.09
-25.82
-19.64
-12.32
-4.75
2.24
8.11
12.57
15.57
17.17
17.47
16.63
14.93
12.78
10.74
9.34
8.96
9.67
11.14
12.80
14.10
14.66
14.52
13.96
13.39
13.00
12.71
12.27
11.39
9.94
7.99
5.74
3.42
1.24
-0.57
-1.84
-2.45
-2.52
-2.50
-3.07
-4.97
-8.60
-13.76
-19.67
-25.09
-28.75
-29.67
-27.44
-22.24
-14.74
-5.91
3.25
11.88
19.33
25.23
29.36
31.63
32.09
31.02
28.91
26.48
24.42
23.20
22.90
23.23
23.78
24.20
24.46
24.72
25.18
25.86
26.41
26.34
25.15
22.63
18.95
14.57
10.04
5.76
1.84
-1.75
-5.12
-8.25
-10.99
-13.14
-14.66
-15.77
-16.96
-18.71
-21.21
-24.13
-26.63
-27.62
-26.19
-21.90
-15.01
-6.31
3.21
12.60
21.16
28.43
34.12
38.01
40.00
40.16
38.83
36.60
34.13
32.05
30.71
30.19
30.35
30.90
31.53
31.99
32.11
31.77
30.95
29.68
28.06
26.13
23.89
21.25
18.09
14.33
9.98
5.24
0.41
-4.23
-8.49
-12.35
-15.99
-19.65
-23.53
-27.73
-32.17
-36.69
-41.05
-44.96
-48.05
-49.81
-49.64
-46.99
-41.51
-33.27
-22.86
-11.26
0.38
11.00
19.75
26.16
30.03
31.34
30.26
27.11
22.39
16.80
11.16
6.27
2.71
0.74
0.21
0.70
1.63
2.47
2.85
2.60
1.72
0.32
-1.41
-3.34
-5.35
-7.38
-9.39
-11.34
-13.14
-14.67
-15.81
-16.56
-17.00
-17.36
-17.92
-18.95
-20.63
-23.08
-26.29
-30.07
-34.02
-37.46
-39.61
-39.71
-37.32
-32.41
-25.38
-16.93
-7.87
1.04
9.21
16.17
21.57
25.18
26.87
26.71
24.99
22.17
18.87
15.70
13.12
11.29
10.14
9.41
8.90
8.58
8.60
9.16
10.33
11.89
13.33
13.96
13.20
10.81
6.93
2.15
-2.80
-7.24
-10.76
-13.28
-14.98
-16.18
-17.22
-18.46
-20.25
-22.90
-26.53
-30.91
-35.33
-38.73
-40.06
-38.58
-34.25
-27.64
-19.64
-11.10
-2.59
5.56
13.08
19.59
24.54
27.41
27.98
26.53
23.80
20.71
18.05
16.27
15.32
14.87
14.58
14.31
14.15
14.38
15.15
16.38
17.58
18.11
17.42
15.33
12.13
8.41
4.80
1.64
-1.16
-3.98
-7.24
-11.13
-15.51
-19.96
-23.98
-27.12
-29.10
-29.72
-28.82
-26.27
-22.06
-16.38
-9.65
-2.45
4.60
10.99
16.36
20.46
23.12
24.27
23.96
22.47
20.22
17.72
15.37
13.42
11.91
10.80
10.10
9.85
10.07
10.62
11.24
11.49
11.01
9.60
7.34
4.52
1.44
-1.62
-4.60
-7.58
-10.69
-14.04
-17.65
-21.34
-24.76
-27.40
-28.71
-28.20
-25.62
-21.03
-14.79
-7.47
0.30
7.88
14.77
20.57
24.95
27.67
28.64
27.89
25.69
22.54
19.02
15.68
12.89
10.81
9.36
8.42
7.90
7.76
7.95
8.29
8.45
8.04
6.75
4.51
1.52
-1.83
-5.16
-8.26
-11.21
-14.27
-17.70
-21.58
-25.71
-29.55
-32.41
-33.62
-32.67
-29.39
-23.92
-16.70
-8.38
0.26
8.46
15.53
20.97
24.55
26.30
26.48
25.50
23.78
21.72
19.54
17.41
15.43
13.69
12.33
11.44
11.04
10.99
11.02
10.79
10.03
8.61
6.55
4.03
1.21
-1.78
-4.94
-8.32
-12.01
-16.06
-20.35
-24.63
-28.50
-31.45
-32.98
-32.72
-30.46
-26.21
-20.24
-12.98
-5.05
2.84
9.95
15.62
19.40
21.13
20.95
19.27
16.64
13.63
10.72
8.28
6.53
5.56
5.38
5.89
6.87
8.01
8.92
9.20
8.56
6.90
4.33
1.17
-2.24
-5.66
-9.02
-12.47
-16.24
-20.48
-25.17
-29.95
-34.24
-37.31
-38.51
-37.45
-34.12
-28.83
-22.12
-14.57
-6.73
0.89
7.81
13.53
17.59
19.68
19.79
18.24
15.56
12.38
9.21
6.44
4.29
2.86
2.16
2.08
2.32
2.49
2.16
1.08
-0.69
-2.83
-4.79
-6.13
-6.75
-6.89
-7.14
-8.15
-10.36
-13.86
-18.33
-23.21
-27.77
-31.28
-33.09
-32.72
-29.92
-24.77
-17.77
-9.69
-1.50
5.90
11.80
15.84
17.95
18.32
17.23
15.04
12.04
8.57
4.92
1.40
-1.69
-4.12
-5.75
-6.57
-6.79
-6.66
-6.57
-6.77
-7.38
-8.28
-9.25
-10.06
-10.64
-11.18
-12.02
-13.47
-15.70
-18.57
-21.76
-24.79
-27.11
-28.15
-27.37
-24.34
-18.92
-11.38
-2.47
6.78
15.33
22.47
27.92
31.81
34.36
35.72
35.88
34.78
32.47
29.33
25.93
22.97
20.95
20.01
19.86
20.03
19.97
19.40
18.24
16.65
14.75
12.60
10.02
6.86
3.08
-1.13
-5.41
-9.38
-12.88
-16.07
-19.30
-22.81
-26.49
-29.73
-31.57
-31.04
-27.60
-21.35
-13.10
-4.06
4.56
11.84
17.31
20.90
22.74
23.10
22.25
20.50
18.26
15.92
13.85
12.28
11.33
10.98
11.13
11.66
12.37
12.99
13.21
12.72
11.34
9.08
6.13
2.80
-0.62
-3.94
-7.10
-10.11
-13.07
-16.13
-19.42
-23.04
-26.93
-30.79
-34.08
-36.08
-36.12
-33.72
-28.76
-21.56
-12.73
-3.05
6.63
15.56
23.11
28.80
32.40
33.91
33.62
32.01
29.61
26.94
24.38
22.16
20.44
19.28
18.66
18.49
18.57
18.65
18.46
17.78
16.51
14.60
12.08
8.95
5.26
1.10
-3.32
-7.70
-11.74
-15.27
-18.32
-21.14
-24.16
-27.75
-32.10
-37.04
-42.04
-46.27
-48.84
-49.05
-46.52
-41.28
-33.78
-24.65
-14.63
-4.47
5.10
13.41
19.88
24.14
26.18
26.38
25.37
23.89
22.50
21.51
20.93
20.65
20.56
20.64
20.93
21.42
22.02
22.45
22.40
21.62
19.97
17.51
14.48
11.18
7.90
4.85
2.10
-0.40
-2.77
-5.13
-7.58
-10.18
-12.95
-15.94
-19.12
-22.39
-25.57
-28.44
-30.94
-33.22
-35.71
-38.82
-42.71
-46.99
-50.76
-52.89
-52.49
-49.14
-43.03
-34.81
-25.20
-14.85
-4.32
5.80
14.74
21.65
25.91
27.40
26.67
24.72
22.69
21.41
21.11
21.56
22.27
22.81
23.07
23.22
23.53
24.19
25.03
25.66
25.57
24.40
22.15
19.11
15.77
12.56
9.65
6.93
4.15
1.12
-2.14
-5.39
-8.33
-10.74
-12.69
-14.44
-16.33
-18.57
-21.12
-23.82
-26.51
-29.21
-32.16
-35.62
-39.62
-43.72
-47.07
-48.61
-47.50
-43.40
-36.64
-28.01
-18.51
-9.02
-0.15
7.76
14.51
19.93
23.79
25.94
26.40
25.44
23.60
21.58
20.00
19.26
19.47
20.48
21.99
23.69
25.34
26.72
27.70
28.13
27.90
26.93
25.25
22.94
20.22
17.31
14.42
11.70
9.19
6.77
4.29
1.62
-1.24
-4.20
-7.12
-9.91
-12.64
-15.55
-18.93
-23.02
-27.79
-32.89
-37.62
-41.05
-42.30
-40.71
-36.10
-28.81
-19.62
-9.56
0.38
9.41
16.98
22.77
26.60
28.44
28.44
26.98
24.69
22.25
20.29
19.20
19.07
19.80
21.13
22.81
24.60
26.29
27.63
28.40
28.38
27.49
25.79
23.44
20.71
17.83
14.99
12.25
9.53
6.71
3.70
0.48
-2.82
-6.03
-8.96
-11.56
-13.90
-16.21
-18.79
-21.90
-25.68
-29.97
-34.34
-38.07
-40.36
-40.50
-38.13
-33.28
-26.38
-18.09
-9.14
-0.15
8.27
15.59
21.33
25.09
26.71
26.34
24.45
21.67
18.69
16.04
14.04
12.76
12.14
12.07
12.41
13.04
13.80
14.50
14.93
14.90
14.27
13.01
11.13
8.72
5.87
2.70
-0.68
-4.12
-7.42
-10.41
-12.98
-15.13
-17.02
-18.93
-21.20
-24.07
-27.63
-31.69
-35.79
-39.26
-41.39
-41.58
-39.48
-35.13
-28.85
-21.14
-12.58
-3.74
4.77
12.38
18.48
22.56
24.36
23.97
21.89
18.84
15.55
12.61
10.29
8.62
7.46
6.67
6.11
5.71
5.41
5.11
4.68
4.03
3.08
1.77
0.02
-2.24
-5.08
-8.47
-12.30
-16.30
-20.12
-23.41
-25.99
-27.89
-29.42
-31.08
-33.34
-36.40
-40.05
-43.61
-46.17
-46.86
-45.18
-41.03
-34.69
-26.61
-17.23
-7.07
3.27
12.96
21.05
26.65
29.30
29.07
26.61
22.91
18.91
15.36
12.61
10.66
9.37
8.57
8.18
8.20
8.66
9.55
10.76
12.08
13.27
14.16
14.72
15.02
15.24
15.49
15.79
16.09
16.24
16.07
15.42
14.07
11.96
9.15
6.02
3.27
1.76
2.26
5.19
10.38
17.10
24.34
31.12
36.76
40.96
43.70
45.08
45.04
43.43
40.10
35.10
28.85
22.13
15.85
10.79
7.23
4.90
3.11
0.99
-2.15
-6.64
-12.48
-19.35
-26.73
-33.88
-39.81
-43.32
-43.32
-39.19
-31.19
-20.60
-9.36
0.54
7.82
12.29
14.85
16.91
19.74
23.94
29.28
34.99
40.20
44.36
47.26
48.92
49.34
48.35
45.69
41.24
35.22
28.27
21.24
15.02
10.13
6.72
4.53
3.13
2.14
1.29
0.56
-0.04
-0.48
-0.82
-1.19
-1.79
-2.76
-4.21
-6.17
-8.71
-11.92
-15.92
-20.83
-26.64
-33.19
-40.04
-46.53
-51.80
-55.00
-55.40
-52.63
-46.82
-38.59
-28.96
-19.12
-10.15
-2.80
2.60
6.14
8.14
9.00
9.08
8.66
7.96
7.19
6.60
6.39
6.64
7.31
8.22
9.11
9.70
9.75
9.12
7.74
5.65
2.94
-0.20
-3.56
-6.94
-10.19
-13.28
-16.29
-19.41
-22.81
-26.58
-30.57
-34.36
-37.25
-38.51
-37.54
-34.12
-28.48
-21.26
-13.31
-5.43
1.76
7.92
12.88
16.61
19.05
20.14
19.90
18.45
16.10
13.26
10.35
7.69
5.39
3.48
1.91
0.67
-0.22
-0.74
-0.96
-1.04
-1.26
-1.83
-2.87
-4.37
-6.25
-8.45
-10.99
-13.99
-17.62
-21.92
-26.73
-31.61
-35.85
-38.62
-39.21
-37.19
-32.63
-26.02
-18.18
-9.96
-2.14
4.74
10.30
14.24
16.38
16.68
15.38
13.02
10.33
8.01
6.45
5.75
5.68
5.94
6.33
6.75
7.22
7.70
8.01
7.90
7.13
5.59
3.35
0.61
-2.41
-5.61
-9.08
-13.06
-17.78
-23.25
-29.10
-34.54
-38.65
-40.62
-40.09
-37.22
-32.49
-26.52
-19.79
-12.64
-5.36
1.63
7.70
12.18
14.67
15.26
14.46
13.13
12.01
11.53
11.60
11.88
11.99
11.81
11.53
11.50
11.97
12.88
13.81
14.23
13.79
12.51
10.69
8.75
6.91
5.15
3.15
0.53
-2.99
-7.55
-13.08
-19.34
-25.91
-32.11
-37.17
-40.29
-40.93
-38.89
-34.34
-27.78
-19.84
-11.21
-2.54
5.48
12.23
17.22
20.24
21.42
21.22
20.29
19.25
18.49
18.09
17.89
17.63
17.15
16.49
15.85
15.48
15.48
15.67
15.69
15.12
13.62
11.14
7.88
4.25
0.65
-2.64
-5.51
-8.05
-10.52
-13.19
-16.34
-20.08
-24.33
-28.69
-32.45
-34.80
-34.95
-32.47
-27.37
-20.21
-11.89
-3.41
4.35
10.85
15.85
19.34
21.51
22.54
22.67
22.16
21.26
20.25
19.33
18.61
18.15
17.87
17.66
17.35
16.77
15.78
14.34
12.55
10.59
8.62
6.71
4.79
2.64
0.13
-2.75
-5.76
-8.56
-10.81
-12.37
-13.35
-14.08
-15.00
-16.55
-19.04
-22.58
-26.92
-31.46
-35.27
-37.31
-36.78
-33.39
-27.41
-19.64
-11.05
-2.60
4.95
11.11
15.60
18.38
19.61
19.72
19.22
18.59
18.11
17.85
17.68
17.45
17.09
16.64
16.19
15.83
15.57
15.27
14.63
13.17
10.36
5.75
-0.68
-8.44
-16.46
-23.45
-28.29
-30.46
-30.14
-28.16
-25.57
-23.38
-22.27
-22.53
-24.03
-26.29
-28.57
-29.92
-29.47
-26.64
-21.40
-14.27
-6.19
1.79
8.85
14.53
18.67
21.31
22.50
22.30
20.79
18.13
14.56
10.34
5.80
1.27
-2.84
-6.02
-7.75
-7.70
-5.88
-2.74
0.92
4.20
6.38
7.11
6.44
4.69
2.32
-0.24
-2.74
-5.06
-7.27
-9.58
-12.23
-15.49
-19.43
-23.89
-28.29
-31.74
-33.15
-31.55
-26.41
-17.82
-6.56
6.11
18.76
30.04
38.95
44.94
47.83
47.77
45.10
40.20
33.50
25.49
16.78
8.22
0.84
-4.27
-6.29
-4.87
-0.31
6.53
14.53
22.50
29.54
34.98
38.45
39.74
38.83
35.93
31.44
26.05
20.56
15.70
11.95
9.38
7.64
6.12
4.29
1.88
-0.93
-3.61
-5.54
-6.37
-6.15
-5.33
-4.49
-4.06
-4.16
-4.62
-5.22
-5.81
-6.49
-7.50
-9.11
-11.46
-14.49
-18.02
-21.75
-25.40
-28.57
-30.77
-31.40
-29.94
-26.11
-20.11
-12.69
-4.98
1.83
6.86
9.81
11.03
11.23
11.13
11.18
11.35
11.28
10.53
8.84
6.22
2.88
-0.92
-4.96
-9.16
-13.30
-16.94
-19.33
-19.63
-17.14
-11.69
-3.76
5.62
15.14
23.66
30.43
35.12
37.72
38.34
37.08
34.00
29.24
23.10
16.13
9.00
2.32
-3.47
-8.23
-12.03
-15.06
-17.49
-19.44
-21.09
-22.65
-24.39
-26.58
-29.34
-32.62
-36.19
-39.69
-42.78
-45.14
-46.53
-46.92
-46.43
-45.45
-44.56
-44.34
-45.05
-46.41
-47.47
-46.79
-42.94
-34.99
-22.96
-7.85
8.67
24.81
39.09
50.66
59.24
64.91
67.83
68.16
66.09
61.95
56.37
50.17
44.26
39.26
35.39
32.39
29.74
26.93
23.72
20.23
16.82
13.79
11.22
8.83
6.19
2.90
-1.15
-5.80
-10.71
-15.57
-20.28
-24.95
-29.91
-35.49
-41.92
-49.09
-56.54
-63.48
-68.92
-71.97
-72.15
-69.49
-64.59
-58.34
-51.64
-45.21
-39.43
-34.45
-30.37
-27.26
-25.22
-24.26
-24.25
-24.87
-25.69
-26.28
-26.30
-25.52
-23.85
-21.32
-18.11
-14.49
-10.80
-7.35
-4.29
-1.65
0.66
2.75
4.62
6.15
7.12
7.29
6.46
4.53
1.54
-2.30
-6.50
-10.40
-13.17
-14.06
-12.61
-8.74
-2.81
4.55
12.62
20.73
28.27
34.71
39.55
42.43
43.19
42.02
39.42
36.10
32.77
29.94
27.87
26.54
25.77
25.27
24.64
23.50
21.56
18.76
15.34
11.81
8.69
6.27
4.39
2.57
0.21
-3.06
-7.20
-11.81
-16.29
-20.00
-22.49
-23.30
-22.06
-18.44
-12.25
-3.72
6.46
17.23
27.32
35.60
41.36
44.46
45.18
44.12
41.86
38.88
35.47
31.83
28.22
25.01
22.62
21.30
21.00
21.34
21.65
21.28
19.81
17.21
13.73
9.76
5.55
1.16
-3.56
-8.82
-14.74
-21.24
-27.95
-34.27
-39.39
-42.46
-42.77
-39.94
-34.06
-25.70
-15.76
-5.30
4.71
13.55
20.71
25.90
28.96
29.85
28.70
25.87
21.89
17.39
13.03
9.28
6.37
4.30
2.81
1.53
0.08
-1.76
-4.03
-6.56
-9.10
-11.41
-13.39
-15.09
-16.63
-18.11
-19.60
-21.15
-22.87
-24.95
-27.51
-30.47
-33.37
-35.33
-35.31
-32.48
-26.57
-17.91
-7.45
3.64
14.29
23.69
31.36
37.09
40.78
42.42
42.22
40.55
38.01
35.30
33.03
31.60
31.08
31.23
31.64
31.90
31.68
30.85
29.44
27.52
25.11
22.15
18.50
14.05
8.92
3.40
-2.04
-6.93
-11.03
-14.34
-17.15
-19.89
-22.97
-26.58
-30.65
-34.73
-38.07
-39.81
-39.13
-35.53
-28.97
-19.90
-9.19
2.15
13.13
22.96
31.11
37.24
41.15
42.79
42.27
39.96
36.47
32.55
28.93
26.09
24.19
23.06
22.31
21.58
20.61
19.32
17.73
15.90
13.84
11.56
9.02
6.19
2.99
-0.65
-4.77
-9.30
-14.07
-18.79
-23.15
-26.92
-30.06
-32.81
-35.59
-38.88
-42.92
-47.48
-51.74
-54.54
-54.64
-51.19
-44.06
-33.83
-21.61
-8.61
4.06
15.56
25.26
32.67
37.40
39.34
38.71
36.18
32.71
29.30
26.75
25.45
25.33
26.02
27.02
27.89
28.36
28.33
27.80
26.79
25.28
23.25
20.68
17.61
14.09
10.27
6.29
2.35
-1.35
-4.63
-7.41
-9.71
-11.71
-13.75
-16.28
-19.71
-24.29
-29.86
-35.77
-40.90
-43.92
-43.72
-39.77
-32.30
-22.23
-10.82
0.69
11.34
20.55
27.98
33.36
36.51
37.43
36.41
34.05
31.19
28.62
26.85
25.96
25.71
25.75
25.76
25.60
25.29
24.84
24.17
23.04
21.17
18.33
14.53
9.95
4.99
0.06
-4.52
-8.59
-12.14
-15.27
-18.09
-20.79
-23.59
-26.79
-30.59
-34.94
-39.30
-42.76
-44.16
-42.51
-37.36
-28.92
-18.11
-6.19
5.48
15.75
23.85
29.36
32.14
32.32
30.25
26.54
21.97
17.40
13.58
10.97
9.59
9.14
9.10
9.07
8.89
8.64
8.47
8.35
7.98
6.95
4.94
2.00
-1.46
-4.85
-7.78
-10.24
-12.69
-15.82
-20.18
-25.86
-32.35
-38.64
-43.46
-45.65
-44.53
-40.00
-32.48
-22.83
-11.99
-0.88
9.70
19.06
26.58
31.78
34.36
34.40
32.31
28.83
24.79
20.98
17.88
15.72
14.42
13.77
13.50
13.35
13.13
12.75
12.12
11.12
9.63
7.53
4.72
1.23
-2.80
-7.19
-11.75
-16.46
-21.41
-26.82
-32.80
-39.18
-45.31
-50.21
-52.72
-51.90
-47.39
-39.54
-29.32
-18.04
-6.98
2.87
10.94
17.00
20.97
22.92
22.94
21.34
18.60
15.41
12.51
10.48
9.60
9.80
10.74
11.98
13.17
14.09
14.64
14.76
14.35
13.31
11.57
9.17
6.23
3.00
-0.32
-3.66
-7.14
-11.05
-15.79
-21.59
-28.37
-35.57
-42.18
-46.94
-48.72
-46.84
-41.32
-32.84
-22.45
-11.35
-0.49
9.40
17.79
24.22
28.26
29.61
28.24
24.57
19.38
13.70
8.49
4.48
1.97
0.88
0.86
1.43
2.16
2.72
2.94
2.75
2.11
0.96
-0.74
-3.03
-5.87
-9.15
-12.82
-16.87
-21.36
-26.16
-30.85
-34.58
-36.28
-35.02
-30.36
-22.65
-12.86
-2.24
8.04
17.21
24.88
30.92
35.18
37.50
37.74
35.99
32.65
28.49
24.40
21.19
19.32
18.79
19.22
20.04
20.72
20.93
20.51
19.45
17.81
15.67
13.14
10.37
7.45
4.32
0.68
-3.92
-9.84
-16.98
-24.59
-31.40
-35.88
-36.83
-33.75
-26.99
-17.54
-6.67
4.42
14.83
23.97
31.49
37.04
40.29
40.99
39.18
35.27
30.10
24.70
20.04
16.60
14.41
13.08
12.13
11.31
10.56
9.93
9.30
8.28
6.31
2.99
-1.70
-7.29
-13.05
-18.36
-23.01
-27.30
-31.77
-36.80
-42.33
-47.67
-51.73
-53.38
-51.78
-46.66
-38.32
-27.50
-15.17
-2.40
9.80
20.46
28.86
34.46
37.12
37.08
34.92
31.43
27.39
23.47
20.09
17.48
15.72
14.76
14.48
14.65
14.98
15.10
14.66
13.38
11.10
7.81
3.69
-0.98
-5.86
-10.60
-14.92
-18.70
-22.05
-25.30
-28.92
-33.28
-38.44
-43.91
-48.71
-51.56
-51.27
-47.21
-39.50
-28.99
-16.96
-4.75
6.58
16.35
24.18
29.86
33.21
34.17
32.89
29.88
25.93
21.99
18.85
16.94
16.21
16.30
16.70
17.03
17.11
16.92
16.51
15.87
14.89
13.39
11.22
8.25
4.53
0.22
-4.37
-8.86
-12.86
-16.16
-18.74
-20.82
-22.80
-25.18
-28.41
-32.75
-38.11
-43.93
-49.18
-52.53
-52.72
-48.96
-41.23
-30.31
-17.53
-4.37
7.92
18.47
26.83
32.79
36.28
37.35
36.20
33.28
29.27
24.93
21.01
18.06
16.28
15.56
15.56
15.81
15.93
15.66
14.97
13.91
12.55
10.86
8.68
5.81
2.15
-2.27
-7.18
-12.20
-16.91
-21.04
-24.46
-27.27
-29.68
-31.99
-34.54
-37.65
-41.59
-46.38
-51.69
-56.71
-60.23
-60.98
-57.96
-50.92
-40.42
-27.66
-14.16
-1.27
10.00
19.08
25.72
29.85
31.53
31.00
28.75
25.42
21.81
18.63
16.41
15.34
15.33
16.03
16.96
17.73
18.11
18.04
17.62
16.90
15.84
14.24
11.89
8.66
4.67
0.29
-3.96
-7.61
-10.45
-12.58
-14.43
-16.55
-19.42
-23.29
-27.95
-32.82
-36.95
-39.38
-39.32
-36.38
-30.64
-22.56
-12.82
-2.29
8.17
17.63
25.23
30.34
32.72
32.60
30.68
27.82
24.74
21.83
19.08
16.31
13.38
10.40
7.65
5.47
4.01
3.10
2.36
1.36
-0.15
-2.12
-4.29
-6.34
-8.09
-9.62
-11.21
-13.26
-16.05
-19.70
-24.14
-29.12
-34.22
-38.76
-41.75
-41.97
-38.17
-29.56
-16.22
0.72
19.27
37.08
52.07
62.94
69.32
71.62
70.55
66.87
61.21
54.09
46.05
37.76
29.92
23.10
17.56
13.22
9.75
6.76
4.00
1.42
-0.94
-3.04
-5.01
-7.11
-9.67
-12.89
-16.70
-20.77
-24.67
-28.04
-30.85
-33.38
-36.07
-39.19
-42.64
-45.76
-47.60
-47.14
-43.73
-37.27
-28.19
-17.33
-5.68
5.78
16.17
24.76
30.96
34.48
35.37
34.05
31.20
27.57
23.80
20.33
17.34
14.92
13.09
11.92
11.42
11.50
11.89
12.16
11.83
10.48
7.95
4.31
-0.12
-4.90
-9.61
-13.97
-17.88
-21.40
-24.74
-28.23
-32.09
-36.37
-40.78
-44.67
-47.10
-47.11
-44.04
-37.76
-28.74
-17.89
-6.31
5.00
15.23
23.83
30.36
34.51
36.15
35.44
32.92
29.43
25.90
23.09
21.35
20.61
20.55
20.78
21.03
21.24
21.45
21.63
21.62
21.10
19.70
17.16
13.48
8.89
3.85
-1.17
-5.85
-10.08
-13.99
-17.84
-21.90
-26.37
-31.25
-36.34
-41.20
-45.17
-47.44
-47.21
-43.95
-37.50
-28.24
-17.01
-4.95
6.72
16.95
24.99
30.42
33.19
33.53
31.93
29.01
25.47
21.93
18.87
16.57
15.13
14.55
14.71
15.47
16.59
17.82
18.83
19.33
19.09
17.98
15.95
13.05
9.42
5.25
0.87
-3.36
-7.10
-10.20
-12.79
-15.29
-18.27
-22.22
-27.25
-32.95
-38.42
-42.43
-43.83
-41.92
-36.66
-28.63
-18.84
-8.36
1.92
11.35
19.45
25.79
29.93
31.58
30.76
27.92
23.91
19.67
15.95
13.17
11.37
10.38
10.04
10.21
10.81
11.69
12.59
13.12
12.94
11.80
9.66
6.68
3.14
-0.64
-4.41
-8.02
-11.41
-14.62
-17.75
-20.99
-24.53
-28.59
-33.21
-38.19
-42.89
-46.42
-47.73
-46.03
-41.01
-33.06
-23.07
-12.17
-1.43
8.41
16.86
23.62
28.44
31.01
31.18
29.10
25.28
20.56
15.91
12.12
9.63
8.44
8.31
8.86
9.80
11.00
12.31
13.61
14.62
14.96
14.26
12.38
9.45
5.94
2.43
-0.57
-2.86
-4.62
-6.35
-8.69
-12.11
-16.74
-22.21
-27.75
-32.22
-34.51
-33.79
-29.70
-22.54
-13.10
-2.49
8.14
17.78
25.74
31.57
35.06
36.22
35.28
32.66
28.95
24.81
20.85
17.51
14.97
13.20
12.01
11.19
10.55
10.06
9.69
9.38
8.94
8.04
6.30
3.51
-0.33
-4.94
-9.82
-14.48
-18.56
-22.01
-25.06
-28.12
-31.64
-35.85
-40.61
-45.34
-49.07
-50.72
-49.42
-44.77
-36.95
-26.62
-14.76
-2.45
9.28
19.50
27.43
32.58
34.77
34.33
31.91
28.38
24.55
20.98
17.94
15.48
13.54
12.09
11.14
10.68
10.61
10.73
10.69
10.14
8.81
6.60
3.57
-0.04
-3.98
-8.01
-11.96
-15.76
-19.39
-22.89
-26.35
-29.93
-33.81
-38.00
-42.20
-45.73
-47.58
-46.74
-42.56
-35.01
-24.71
-12.80
-0.55
10.85
20.52
27.93
32.79
35.04
34.85
32.63
28.99
24.69
20.46
16.87
14.25
12.68
12.03
12.04
12.40
12.75
12.81
12.31
11.07
9.00
6.12
2.53
-1.55
-5.85
-10.01
-13.80
-17.14
-20.18
-23.34
-27.12
-31.84
-37.45
-43.34
-48.42
-51.46
-51.38
-47.74
-40.79
-31.40
-20.76
-10.00
-0.01
8.62
15.50
20.32
22.84
22.97
20.98
17.45
13.27
9.34
6.38
4.73
4.34
4.90
6.07
7.53
9.09
10.61
11.96
12.94
13.31
12.86
11.49
9.23
6.26
2.84
-0.80
-4.53
-8.36
-12.47
-17.04
-22.15
-27.62
-32.90
-37.14
-39.44
-39.03
-35.66
-29.63
-21.72
-12.97
-4.36
3.30
9.51
13.94
16.41
16.90
15.60
12.96
9.61
6.25
3.43
1.42
0.25
-0.20
-0.08
0.46
1.28
2.12
2.65
2.55
1.64
-0.02
-2.16
-4.44
-6.59
-8.58
-10.59
-12.97
-16.04
-19.91
-24.41
-28.98
-32.77
-34.82
-34.33
-30.90
-24.63
-16.12
-6.29
3.89
13.60
22.20
29.29
34.58
37.91
39.25
38.72
36.66
33.55
29.96
26.46
23.50
21.36
20.11
19.65
19.73
20.02
20.13
19.77
18.72
16.93
14.48
11.54
8.30
4.86
1.20
-2.79
-7.32
-12.50
-18.28
-24.37
-30.23
-35.04
-37.88
-37.84
-34.31
-27.19
-17.07
-5.12
7.06
17.94
26.37
31.88
34.58
34.99
33.69
31.20
27.87
24.07
20.18
16.75
14.27
13.04
13.03
13.92
15.09
15.93
15.98
15.07
13.26
10.81
7.96
4.87
1.55
-2.04
-5.92
-10.10
-14.53
-19.20
-24.13
-29.24
-34.22
-38.45
-41.05
-41.11
-37.98
-31.55
-22.32
-11.27
0.39
11.47
21.05
28.46
33.37
35.73
35.72
33.84
30.79
27.42
24.48
22.44
21.37
20.98
20.77
20.32
19.49
18.39
17.30
16.41
15.68
14.76
13.17
10.48
6.53
1.51
-4.05
-9.43
-13.93
-17.08
-18.83
-19.51
-19.81
-20.55
-22.45
-25.93
-30.90
-36.71
-42.23
-46.09
-47.01
-44.15
-37.39
-27.35
-15.19
-2.31
9.98
20.62
28.94
34.62
37.65
38.33
37.22
35.05
32.61
30.57
29.36
29.12
29.68
30.65
31.60
32.12
31.98
31.18
29.86
28.21
26.38
24.34
21.95
19.01
15.44
11.35
6.99
2.70
-1.30
-4.96
-8.42
-11.91
-15.62
-19.58
-23.61
-27.49
-31.01
-34.10
-36.95
-39.90
-43.35
-47.61
-52.76
-58.48
-64.09
-68.59
-70.81
-69.79
-64.97
-56.42
-44.84
-31.40
-17.41
-4.09
7.67
17.35
24.72
29.79
32.68
33.71
33.30
32.03
30.53
29.39
29.05
29.72
31.37
33.72
36.36
38.75
40.38
40.90
40.15
38.26
35.48
32.10
28.28
24.04
19.29
14.00
8.28
2.43
-3.24
-8.45
-13.08
-17.08
-20.43
-23.05
-24.89
-26.08
-27.03
-28.41
-30.84
-34.59
-39.24
-43.67
-46.43
-46.23
-42.44
-35.25
-25.52
-14.45
-3.08
7.78
17.62
25.99
32.37
36.26
37.41
36.01
32.75
28.69
24.87
22.04
20.43
19.83
19.81
19.98
20.13
20.26
20.45
20.71
20.82
20.43
19.13
16.68
13.11
8.67
3.81
-1.00
-5.41
-9.22
-12.37
-14.85
-16.74
-18.16
-19.35
-20.63
-22.37
-24.88
-28.16
-31.86
-35.16
-36.98
-36.25
-32.26
-24.92
-14.84
-3.15
8.83
19.88
29.14
36.11
40.59
42.60
42.25
39.82
35.80
30.83
25.70
21.15
17.70
15.55
14.55
14.29
14.31
14.22
13.82
13.08
12.03
10.69
9.01
6.88
4.23
1.02
-2.65
-6.59
-10.53
-14.17
-17.34
-20.00
-22.29
-24.54
-27.16
-30.44
-34.45
-38.86
-42.98
-45.84
-46.45
-44.03
-38.21
-29.14
-17.49
-4.30
9.21
21.81
32.44
40.34
45.15
46.89
46.03
43.33
39.75
36.14
33.10
30.87
29.34
28.25
27.28
26.25
25.09
23.76
22.25
20.48
18.31
15.62
12.31
8.43
4.12
-0.35
-4.63
-8.38
-11.36
-13.53
-15.14
-16.79
-19.25
-23.28
-29.31
-37.23
-46.27
-55.13
-62.28
-66.35
-66.48
-62.51
-54.94
-44.82
-33.45
-22.09
-11.80
-3.30
3.06
7.28
9.56
10.28
9.89
8.90
7.81
7.06
6.92
7.44
8.44
9.66
10.81
11.78
12.58
13.20
13.54
13.30
12.11
9.68
6.00
1.40
-3.52
-8.15
-12.03
-15.08
-17.53
-19.90
-22.83
-26.83
-32.16
-38.57
-45.31
-51.20
-54.92
-55.45
-52.29
-45.66
-36.31
-25.36
-13.97
-3.26
5.92
12.92
17.47
19.64
19.79
18.47
16.20
13.40
10.33
7.19
4.23
1.75
0.08
-0.60
-0.33
0.58
1.67
2.43
2.51
1.79
0.34
-1.61
-3.88
-6.35
-9.05
-12.05
-15.40
-19.04
-22.82
-26.56
-30.02
-33.00
-35.15
-36.05
-35.11
-31.81
-25.83
-17.25
-6.62
5.18
17.16
28.44
38.38
46.55
52.66
56.47
57.76
56.52
53.02
47.96
42.37
37.42
34.08
32.81
33.46
35.35
37.54
39.12
39.53
38.61
36.47
33.41
29.67
25.41
20.66
15.44
9.75
3.63
-2.87
-9.75
-17.04
-24.69
-32.45
-39.71
-45.53
-48.76
-48.48
-44.29
-36.56
-26.36
-15.14
-4.33
5.00
12.27
17.23
19.87
20.30
18.73
15.59
11.56
7.38
3.78
1.20
-0.27
-0.76
-0.57
0.03
0.81
1.52
1.88
1.45
-0.16
-3.18
-7.60
-13.05
-19.03
-25.10
-31.07
-37.13
-43.59
-50.57
-57.69
-63.98
-68.10
-68.74
-65.13
-57.31
-46.07
-32.70
-18.60
-4.95
7.46
18.16
26.90
33.52
37.91
40.11
40.35
39.06
36.87
34.43
32.33
30.99
30.55
30.96
31.93
33.04
33.78
33.67
32.38
29.78
25.99
21.30
16.04
10.45
4.66
-1.35
-7.63
-14.26
-21.21
-28.40
-35.50
-41.94
-46.90
-49.45
-48.82
-44.68
-37.30
-27.49
-16.38
-5.14
5.29
14.25
21.31
26.27
29.08
29.87
28.92
26.72
23.83
20.85
18.24
16.33
15.19
14.70
14.56
14.41
13.89
12.76
10.93
8.41
5.35
1.94
-1.59
-5.07
-8.45
-11.77
-15.15
-18.74
-22.65
-26.94
-31.57
-36.35
-40.92
-44.63
-46.61
-45.98
-42.07
-34.72
-24.43
-12.21
0.65
12.88
23.49
31.83
37.55
40.60
41.13
39.55
36.44
32.53
28.56
25.13
22.64
21.17
20.58
20.58
20.84
21.07
21.07
20.70
19.77
18.10
15.47
11.81
7.21
1.98
-3.43
-8.58
-13.17
-17.19
-20.86
-24.58
-28.73
-33.47
-38.65
-43.69
-47.66
-49.57
-48.56
-44.20
-36.62
-26.46
-14.67
-2.35
9.43
19.71
27.72
32.93
35.12
34.52
31.76
27.76
23.47
19.65
16.73
14.78
13.64
13.01
12.59
12.08
11.28
10.08
8.51
6.77
5.12
3.79
2.81
1.92
0.70
-1.27
-4.11
-7.65
-11.47
-15.20
-18.77
-22.47
-26.71
-31.74
-37.27
-42.36
-45.68
-45.99
-42.53
-35.43
-25.56
-14.25
-2.83
7.71
16.81
24.21
29.80
33.39
34.81
34.03
31.35
27.41
23.08
19.14
16.12
14.17
13.19
13.08
13.91
15.96
19.51
24.59
30.76
37.09
42.44
45.79
46.54
44.70
40.74
35.30
28.91
21.73
13.64
4.53
-5.46
-15.66
-24.97
-32.08
-35.88
-35.84
-32.09
-25.42
-16.90
-7.66
1.36
9.47
16.17
21.10
23.99
24.71
23.37
20.32
16.15
11.61
7.48
4.38
2.65
2.35
3.20
4.73
6.37
7.61
8.10
7.71
6.47
4.46
1.72
-1.71
-5.82
-10.45
-15.36
-20.31
-25.19
-30.19
-35.63
-41.68
-48.07
-53.90
-57.82
-58.51
-55.14
-47.70
-36.99
-24.27
-10.90
1.98
13.56
23.27
30.71
35.61
37.89
37.72
35.56
32.01
27.78
23.47
19.55
16.29
13.83
12.15
11.18
10.78
10.77
10.95
11.03
10.72
9.71
7.78
4.86
1.07
-3.30
-7.92
-12.56
-17.27
-22.40
-28.44
-35.77
-44.33
-53.45
-61.84
-67.94
-70.28
-68.05
-61.22
-50.62
-37.68
-24.03
-11.11
-0.02
8.59
14.51
17.85
18.97
18.39
16.75
14.65
12.65
11.14
10.35
10.40
11.22
12.67
14.43
16.12
17.27
17.49
16.48
14.17
10.68
6.28
1.35
-3.75
-8.68
-13.21
-17.29
-21.07
-24.85
-29.01
-33.79
-39.09
-44.40
-48.78
-51.17
-50.62
-46.62
-39.25
-29.13
-17.26
-4.69
7.63
18.98
28.88
36.97
42.95
46.63
48.01
47.37
45.23
42.26
39.04
35.91
33.01
30.30
27.83
25.69
24.01
22.74
21.56
19.97
17.45
13.77
8.99
3.52
-2.16
-7.64
-12.69
-17.20
-21.22
-24.86
-28.33
-31.98
-36.09
-40.78
-45.70
-50.02
-52.60
-52.32
-48.50
-41.19
-31.13
-19.51
-7.63
3.47
13.13
21.02
26.99
30.93
32.78
32.57
30.58
27.33
23.52
19.93
17.15
15.53
15.09
15.62
16.80
18.29
19.84
21.24
22.29
22.76
22.43
21.13
18.82
15.63
11.87
7.91
4.05
0.40
-3.18
-6.96
-11.22
-16.03
-21.09
-25.70
-28.93
-29.88
-27.98
-23.18
-15.96
-7.13
2.40
11.83
20.52
27.96
33.70
37.35
38.74
37.95
35.40
31.69
27.48
23.29
19.45
16.08
13.16
10.55
8.05
5.37
2.28
-1.31
-5.24
-9.15
-12.66
-15.54
-17.84
-19.86
-22.01
-24.63
-27.86
-31.64
-35.70
-39.68
-43.06
-45.31
-45.84
-44.19
-40.07
-33.52
-24.91
-14.91
-4.39
5.66
14.38
21.09
25.46
27.51
27.53
25.97
23.32
20.01
16.42
12.95
10.03
8.01
7.14
7.37
8.31
9.36
9.86
9.33
7.61
4.86
1.39
-2.48
-6.59
-10.99
-15.84
-21.24
-27.08
-32.93
-38.01
-41.40
-42.19
-39.81
-34.16
-25.75
-15.48
-4.49
6.16
15.66
23.51
29.44
33.25
34.81
34.13
31.42
27.23
22.37
17.69
13.88
11.26
9.79
9.11
8.77
8.41
7.82
6.95
5.83
4.47
2.79
0.62
-2.30
-6.20
-11.21
-17.24
-23.92
-30.57
-36.32
-40.17
-41.24
-38.94
-33.12
-24.17
-13.01
-0.85
11.00
21.40
29.57
35.11
37.98
38.39
36.69
33.32
28.85
23.89
19.12
15.07
12.08
10.19
9.18
8.69
8.31
7.70
6.65
5.00
2.68
-0.30
-3.89
-7.91
-12.11
-16.30
-20.37
-24.45
-28.73
-33.32
-38.02
-42.23
-44.98
-45.27
-42.35
-35.97
-26.47
-14.65
-1.61
11.47
23.40
33.16
40.01
43.59
44.05
41.93
38.07
33.34
28.46
23.97
20.19
17.30
15.35
14.30
13.96
14.03
14.19
14.06
13.40
12.06
10.01
7.34
4.21
0.81
-2.65
-5.97
-9.03
-11.80
-14.41
-17.14
-20.44
-24.72
-30.13
-36.34
-42.51
-47.34
-49.46
-47.79
-41.97
-32.40
-20.13
-6.51
7.13
19.72
30.55
39.18
45.37
49.06
50.38
49.71
47.62
44.84
42.01
39.58
37.63
36.04
34.58
33.14
31.78
30.71
30.12
29.96
29.88
29.30
27.68
24.75
20.67
16.04
11.58
7.90
5.21
3.25
1.48
-0.66
-3.46
-6.87
-10.56
-14.13
-17.39
-20.44
-23.47
-26.76
-30.44
-34.53
-39.05
-43.97
-49.09
-53.90
-57.42
-58.39
-55.64
-48.57
-37.47
-23.48
-8.25
6.53
19.56
30.05
37.69
42.48
44.59
44.39
42.38
39.25
35.76
32.62
30.33
29.07
28.72
28.96
29.41
29.74
29.74
29.33
28.50
27.30
25.79
24.02
22.02
19.77
17.23
14.40
11.30
8.10
5.04
2.29
-0.10
-2.28
-4.48
-6.93
-9.71
-12.70
-15.73
-18.56
-21.09
-23.32
-25.37
-27.51
-30.04
-33.24
-37.17
-41.47
-45.38
-47.83
-47.81
-44.70
-38.50
-29.83
-19.69
-9.16
0.78
9.42
16.24
20.95
23.46
23.88
22.54
19.98
16.85
13.76
11.21
9.46
8.58
8.43
8.81
9.55
10.51
11.57
12.61
13.44
13.85
13.62
12.63
10.90
8.58
5.95
3.25
0.67
-1.69
-3.87
-5.99
-8.16
-10.48
-12.93
-15.41
-17.82
-20.12
-22.40
-24.85
-27.72
-31.16
-35.16
-39.42
-43.38
-46.24
-47.10
-45.21
-40.15
-32.09
-21.73
-10.21
1.15
11.17
19.07
24.53
27.65
28.76
28.29
26.58
23.97
20.83
17.60
14.77
12.79
11.94
12.15
13.13
14.40
15.54
16.30
16.63
16.56
16.11
15.18
13.64
11.39
8.49
5.15
1.68
-1.64
-4.62
-7.28
-9.73
-12.15
-14.63
-17.19
-19.72
-22.17
-24.57
-27.00
-29.56
-32.17
-34.45
-35.73
-35.21
-32.28
-26.77
-19.04
-9.91
-0.42
8.47
16.04
21.83
25.62
27.38
27.18
25.28
22.09
18.15
14.04
10.30
7.30
5.19
3.85
3.04
2.44
1.80
1.03
0.22
-0.51
-1.11
-1.73
-2.71
-4.44
-7.12
-10.65
-14.62
-18.45
-21.75
-24.40
-26.61
-28.81
-31.34
-34.42
-38.00
-41.83
-45.47
-48.40
-50.03
-49.79
-47.23
-42.19
-34.91
-26.03
-16.45
-7.17
0.95
7.34
11.70
14.02
14.52
13.61
11.78
9.55
7.38
5.58
4.28
3.53
3.32
3.63
4.47
5.77
7.34
8.84
9.89
10.15
9.48
7.89
5.53
2.64
-0.54
-3.75
-6.79
-9.54
-12.04
-14.52
-17.24
-20.31
-23.50
-26.17
-27.41
-26.44
-22.89
-17.00
-9.58
-1.65
5.85
12.31
17.50
21.38
23.98
25.22
25.00
23.37
20.57
17.10
13.62
10.69
8.70
7.69
7.44
7.61
7.85
7.96
7.86
7.48
6.79
5.65
3.93
1.61
-1.19
-4.24
-7.30
-10.30
-13.33
-16.63
-20.36
-24.34
-27.96
-30.32
-30.52
-28.04
-22.96
-15.97
-8.12
-0.45
6.28
11.64
15.47
17.69
18.31
17.29
14.80
11.25
7.25
3.50
0.64
-0.94
-1.19
-0.30
1.28
3.02
4.44
5.22
5.27
4.70
3.72
2.48
1.01
-0.84
-3.29
-6.49
-10.49
-15.10
-19.99
-24.70
-28.68
-31.37
-32.24
-30.92
-27.32
-21.67
-14.51
-6.55
1.42
8.72
14.85
19.44
22.24
23.19
22.35
20.03
16.74
13.15
9.85
7.28
5.53
4.46
3.74
3.11
2.44
1.77
1.20
0.69
0.10
-0.85
-2.34
-4.43
-7.05
-10.06
-13.42
-17.15
-21.29
-25.65
-29.75
-32.84
-34.08
-32.89
-29.11
-23.09
-15.54
-7.30
0.86
8.40
14.88
20.03
23.56
25.30
25.24
23.65
21.04
18.11
15.52
13.76
12.98
13.02
13.53
14.06
14.29
14.09
13.46
12.48
11.20
9.59
7.53
4.98
2.00
-1.22
-4.49
-7.74
-11.10
-14.77
-18.89
-23.21
-27.07
-29.50
-29.60
-26.84
-21.33
-13.73
-5.06
3.66
11.62
18.32
23.49
26.99
28.78
28.90
27.58
25.22
22.37
19.57
17.24
15.55
14.48
13.92
13.73
13.84
14.12
14.39
14.35
13.66
12.09
9.59
6.41
3.00
-0.20
-2.91
-5.18
-7.35
-9.89
-13.25
-17.60
-22.76
-28.12
-32.81
-35.83
-36.33
-33.82
-28.30
-20.31
-10.81
-0.98
8.03
15.34
20.42
23.21
23.96
23.22
21.56
19.53
17.45
15.52
13.81
12.40
11.44
11.08
11.39
12.23
13.19
13.73
13.40
11.98
9.58
6.51
3.13
-0.26
-3.59
-6.88
-10.14
-13.35
-16.43
-19.40
-22.42
-25.76
-29.60
-33.82
-37.82
-40.63
-41.12
-38.47
-32.42
-23.42
-12.51
-0.96
9.98
19.40
26.72
31.71
34.40
35.01
33.92
31.61
28.65
25.55
22.80
20.68
19.35
18.81
18.89
19.38
19.96
20.35
20.33
19.68
18.32
16.21
13.40
10.00
6.21
2.26
-1.65
-5.34
-8.72
-11.77
-14.60
-17.42
-20.55
-24.28
-28.64
-33.31
-37.44
-39.94
-39.74
-36.19
-29.36
-20.01
-9.37
1.31
11.00
19.05
25.15
29.13
30.94
30.63
28.48
25.03
21.07
17.45
14.78
13.36
13.10
13.61
14.44
15.22
15.75
16.02
16.03
15.74
14.97
13.48
11.06
7.65
3.50
-0.95
-5.10
-8.51
-11.03
-12.86
-14.46
-16.40
-19.07
-22.67
-27.06
-31.88
-36.51
-40.19
-42.11
-41.57
-38.13
-31.77
-22.94
-12.48
-1.48
8.98
17.95
24.80
29.20
31.13
30.85
28.85
25.75
22.25
18.98
16.41
14.84
14.28
14.53
15.28
16.20
17.02
17.56
17.69
17.30
16.24
14.38
11.65
8.13
4.11
-0.03
-3.85
-7.07
-9.61
-11.65
-13.57
-15.82
-18.80
-22.68
-27.29
-32.07
-36.11
-38.35
-37.93
-34.44
-28.08
-19.58
-9.99
-0.34
8.58
16.19
22.14
26.16
28.11
28.00
26.14
23.14
19.81
16.90
14.86
13.80
13.51
13.62
13.88
14.19
14.57
15.05
15.50
15.60
14.92
13.12
10.11
6.15
1.76
-2.49
-6.15
-9.10
-11.51
-13.80
-16.42
-19.73
-23.85
-28.54
-33.21
-37.02
-39.02
-38.48
-35.03
-28.85
-20.54
-11.03
-1.26
7.90
15.77
21.82
25.70
27.25
26.59
24.22
20.83
17.23
14.03
11.60
9.95
8.97
8.49
8.40
8.65
9.17
9.79
10.18
10.03
9.05
7.16
4.49
1.31
-2.12
-5.56
-8.92
-12.13
-15.23
-18.31
-21.63
-25.49
-30.15
-35.51
-41.00
-45.50
-47.70
-46.54
-41.60
-33.34
-22.84
-11.46
-0.41
9.51
17.87
24.47
29.17
31.89
32.66
31.78
29.80
27.42
25.33
23.89
23.13
22.83
22.70
22.56
22.45
22.50
22.73
22.91
22.56
21.14
18.38
14.38
9.67
4.97
0.84
-2.53
-5.36
-8.15
-11.43
-15.50
-20.44
-26.03
-31.77
-37.04
-41.04
-42.97
-42.18
-38.38
-31.73
-22.88
-12.86
-2.90
5.88
12.65
16.99
18.93
18.80
17.16
14.57
11.52
8.43
5.62
3.35
1.76
0.89
0.60
0.73
1.09
1.52
1.92
2.14
1.97
1.13
-0.56
-3.11
-6.29
-9.76
-13.12
-16.08
-18.53
-20.52
-22.23
-23.91
-25.84
-28.25
-31.14
-34.19
-36.68
-37.71
-36.34
-32.07
-24.95
-15.62
-5.16
5.28
14.72
22.47
28.19
31.78
33.32
33.06
31.37
28.77
25.79
22.97
20.75
19.38
18.88
19.10
19.74
20.48
21.01
21.12
20.66
19.57
17.85
15.50
12.58
9.21
5.56
1.87
-1.62
-4.75
-7.48
-9.93
-12.34
-15.00
-18.13
-21.69
-25.35
-28.48
-30.22
-29.75
-26.55
-20.58
-12.32
-2.71
7.14
16.23
23.82
29.54
33.25
35.00
34.93
33.29
30.47
27.04
23.63
20.77
18.79
17.78
17.54
17.84
18.38
18.94
19.31
19.28
18.60
17.05
14.50
10.96
6.66
1.94
-2.75
-7.03
-10.71
-13.79
-16.47
-19.02
-21.76
-24.84
-28.28
-31.79
-34.84
-36.72
-36.70
-34.24
-29.15
-21.71
-12.58
-2.67
7.09
15.89
23.15
28.50
31.79
33.06
32.53
30.59
27.73
24.53
21.50
19.04
17.37
16.54
16.44
16.82
17.43
18.01
18.36
18.32
17.74
16.49
14.32
11.09
6.76
1.53
-4.13
-9.54
-14.10
-17.46
-19.76
-21.47
-23.24
-25.65
-28.97
-33.11
-37.65
-41.96
-45.29
-46.93
-46.26
-42.93
-36.92
-28.60
-18.66
-8.02
2.26
11.19
18.02
22.28
23.94
23.34
21.15
18.20
15.17
12.54
10.56
9.31
8.84
9.17
10.26
11.92
13.73
15.12
15.58
14.84
12.99
10.39
7.44
4.48
1.56
-1.42
-4.60
-8.00
-11.48
-14.75
-17.55
-19.72
-21.31
-22.62
-24.09
-26.20
-29.27
-33.27
-37.74
-41.81
-44.36
-44.40
-41.30
-35.04
-26.16
-15.60
-4.50
6.12
15.45
22.88
28.07
30.82
31.18
29.48
26.34
22.57
19.02
16.37
14.91
14.60
15.10
16.01
17.02
17.90
18.59
19.00
19.01
18.45
17.12
14.92
11.89
8.26
4.35
0.52
-3.01
-6.10
-8.80
-11.18
-13.36
-15.39
-17.35
-19.33
-21.47
-23.85
-26.31
-28.44
-29.52
-28.76
-25.63
-20.06
-12.50
-3.83
4.96
13.03
19.78
24.94
28.38
30.05
29.98
28.29
25.36
21.79
18.35
15.76
14.49
14.59
15.75
17.37
18.90
19.97
20.50
20.65
20.60
20.42
19.95
18.89
16.93
13.92
9.97
5.44
0.80
-3.56
-7.43
-10.88
-14.10
-17.38
-20.90
-24.73
-28.87
-33.25
-37.67
-41.74
-44.82
-46.09
-44.79
-40.43
-33.09
-23.35
-12.21
-0.81
9.83
18.92
25.94
30.60
32.76
32.53
30.24
26.52
22.18
18.05
14.82
12.88
12.22
12.56
13.45
14.47
15.31
15.84
16.03
15.88
15.30
14.10
12.06
9.01
4.98
0.19
-4.92
-9.83
-14.10
-17.49
-20.02
-21.98
-23.81
-25.95
-28.77
-32.41
-36.75
-41.39
-45.68
-48.76
-49.75
-47.92
-42.95
-35.02
-24.83
-13.46
-2.11
8.19
16.71
23.03
27.06
28.90
28.80
27.12
24.35
21.05
17.78
15.04
13.17
12.29
12.28
12.82
13.47
13.84
13.68
12.93
11.68
10.09
8.25
6.11
3.53
0.44
-3.13
-6.95
-10.70
-14.04
-16.76
-18.82
-20.39
-21.77
-23.34
-25.48
-28.42
-32.05
-35.95
-39.31
-41.20
-40.74
-37.45
-31.33
-22.88
-12.96
-2.53
7.47
16.31
23.46
28.64
31.69
32.68
31.76
29.30
25.78
21.79
17.99
14.88
12.81
11.84
11.84
12.52
13.57
14.67
15.54
15.95
15.70
14.70
12.95
10.53
7.56
4.15
0.50
-3.16
-6.52
-9.31
-11.46
-13.18
-14.89
-17.07
-19.91
-23.09
-25.82
-27.08
-26.00
-22.19
-15.81
-7.51
1.81
11.25
20.03
27.48
33.04
36.28
36.99
35.26
31.55
26.59
21.20
16.09
11.65
8.01
5.14
3.00
1.66
1.20
1.58
2.52
3.40
3.47
2.17
-0.63
-4.55
-8.86
-12.79
-15.78
-17.71
-18.76
-19.29
-19.65
-20.11
-20.92
-22.27
-24.27
-26.84
-29.55
-31.65
-32.20
-30.40
-25.86
-18.79
-9.94
-0.43
8.57
16.06
21.37
24.13
24.36
22.36
18.78
14.44
10.20
6.72
4.31
2.95
2.37
2.32
2.65
3.32
4.26
5.30
6.14
6.45
5.99
4.73
2.82
0.51
-2.00
-4.57
-7.16
-9.78
-12.48
-15.29
-18.32
-21.58
-25.01
-28.26
-30.71
-31.55
-30.03
-25.79
-18.98
-10.31
-0.86
8.29
16.30
22.64
27.10
29.63
30.25
29.10
26.46
22.85
18.95
15.43
12.81
11.25
10.67
10.78
11.27
11.90
12.49
12.86
12.82
12.18
10.77
8.55
5.65
2.26
-1.32
-4.87
-8.25
-11.47
-14.66
-18.01
-21.68
-25.64
-29.59
-32.94
-34.93
-34.84
-32.18
-26.89
-19.40
-10.49
-1.17
7.64
15.17
20.95
24.71
26.41
26.19
24.36
21.47
18.23
15.37
13.42
12.64
12.89
13.74
14.69
15.27
15.19
14.37
12.88
10.90
8.64
6.28
3.92
1.56
-0.91
-3.69
-6.97
-10.93
-15.64
-20.93
-26.41
-31.42
-35.07
-36.50
-35.05
-30.50
-23.23
-14.13
-4.32
5.06
13.23
19.74
24.49
27.55
28.91
28.56
26.61
23.39
19.56
15.94
13.28
11.92
11.73
12.16
12.64
12.78
12.57
12.23
12.01
11.90
11.53
10.35
7.83
3.72
-1.89
-8.59
-15.90
-23.27
-30.26
-36.35
-40.87
-43.08
-42.32
-38.29
-31.27
-22.12
-12.12
-2.59
5.52
11.77
16.17
18.95
20.29
20.25
18.79
15.99
12.26
8.31
4.98
2.96
2.51
3.45
5.16
6.91
8.11
8.48
8.07
7.13
5.93
4.63
3.12
1.19
-1.50
-5.13
-9.75
-15.16
-20.94
-26.45
-30.88
-33.35
-33.12
-29.83
-23.63
-15.20
-5.55
4.26
13.37
21.21
27.39
31.66
33.85
33.97
32.31
29.43
26.10
22.98
20.50
18.76
17.59
16.75
16.05
15.39
14.72
13.99
13.12
12.00
10.49
8.53
6.05
3.05
-0.44
-4.39
-8.79
-13.66
-19.00
-24.67
-30.24
-35.00
-37.97
-38.23
-35.22
-28.99
-20.24
-10.08
0.29
9.92
18.20
24.82
29.61
32.44
33.24
32.13
29.53
26.17
22.82
20.11
18.30
17.27
16.68
16.21
15.68
15.06
14.37
13.51
12.26
10.35
7.57
3.93
-0.35
-4.89
-9.32
-13.35
-16.89
-20.06
-23.16
-26.62
-30.82
-35.88
-41.50
-46.89
-50.91
-52.37
-50.47
-45.00
-36.41
-25.61
-13.72
-1.76
9.41
19.15
26.94
32.39
35.31
35.76
34.21
31.36
28.11
25.17
23.02
21.72
21.08
20.81
20.59
20.29
19.81
19.15
18.22
16.96
15.26
13.07
10.34
7.02
3.12
-1.30
-6.02
-10.72
-14.98
-18.51
-21.17
-23.10
-24.63
-26.21
-28.33
-31.32
-35.31
-40.04
-44.84
-48.70
-50.48
-49.27
-44.65
-36.87
-26.70
-15.22
-3.56
7.29
16.59
23.80
28.57
30.83
30.75
28.82
25.76
22.36
19.34
17.15
15.89
15.37
15.21
15.06
14.66
13.92
12.88
11.60
10.08
8.26
6.02
3.26
-0.08
-3.96
-8.25
-12.70
-16.95
-20.68
-23.60
-25.64
-26.94
-27.86
-28.90
-30.60
-33.40
-37.41
-42.35
-47.40
-51.37
-52.93
-51.11
-45.59
-36.90
-26.22
-14.99
-4.50
4.35
11.14
15.77
18.31
18.94
18.02
16.05
13.68
11.49
9.92
9.13
9.15
10.03
12.08
15.78
21.57
29.54
39.07
48.93
57.47
63.17
65.09
63.12
57.85
50.27
41.36
31.85
22.15
12.54
3.17
-5.82
-14.45
-22.85
-31.16
-39.32
-46.89
-52.97
-56.44
-56.28
-51.96
-43.62
-32.03
-18.42
-4.16
9.39
21.06
29.96
35.50
37.41
35.82
31.25
24.51
16.60
8.51
1.12
-5.09
-9.88
-13.23
-15.19
-15.75
-14.82
-12.33
-8.34
-3.21
2.51
8.09
12.82
16.14
17.69
17.29
14.95
10.75
4.90
-2.32
-10.49
-19.15
-27.76
-35.80
-42.74
-48.10
-51.37
-51.98
-49.47
-43.58
-34.53
-23.01
-10.09
2.98
15.15
25.67
34.16
40.41
44.32
45.83
45.07
42.42
38.55
34.29
30.46
27.61
25.98
25.50
25.91
26.83
27.83
28.42
28.12
26.48
23.20
18.28
12.01
4.95
-2.24
-8.95
-14.81
-19.70
-23.71
-27.03
-29.80
-32.10
-33.97
-35.35
-36.13
-36.03
-34.71
-31.80
-27.10
-20.77
-13.38
-5.80
1.01
6.35
9.89
11.66
11.95
11.15
9.58
7.51
5.25
3.11
1.38
0.26
-0.23
-0.25
-0.06
0.12
0.17
0.15
0.22
0.51
1.04
1.71
2.29
2.56
2.32
1.48
-0.02
-2.17
-5.00
-8.52
-12.76
-17.65
-22.94
-28.13
-32.47
-35.09
-35.17
-32.24
-26.39
-18.22
-8.75
0.90
9.81
17.42
23.49
28.04
31.13
32.85
33.20
32.27
30.24
27.46
24.47
21.87
20.21
19.81
20.69
22.54
24.91
27.36
29.58
31.38
32.54
32.74
31.46
28.19
22.65
15.03
6.08
-3.12
-11.39
-17.74
-21.46
-22.16
-19.56
-13.50
-4.01
8.37
22.44
36.39
48.11
55.84
58.61
56.50
50.43
41.71
31.61
21.14
11.05
1.89
-5.90
-12.04
-16.52
-19.66
-22.09
-24.49
-27.42
-31.12
-35.47
-40.14
-44.66
-48.75
-52.37
-55.77
-59.39
-63.54
-68.20
-72.85
-76.47
-77.88
-76.06
-70.45
-61.18
-48.93
-34.77
-19.85
-5.23
8.18
19.67
28.68
34.89
38.27
39.14
38.08
35.76
32.78
29.55
26.34
23.40
21.00
19.44
18.87
19.19
19.99
20.66
20.64
19.53
17.25
13.90
9.60
4.36
-1.96
-9.53
-18.25
-27.54
-36.35
-43.32
-47.14
-46.94
-42.60
-34.70
-24.34
-12.81
-1.25
9.47
18.74
26.11
31.17
33.57
33.20
30.26
25.45
19.77
14.31
9.98
7.19
5.86
5.43
5.21
4.61
3.40
1.63
-0.38
-2.34
-4.12
-5.83
-7.80
-10.42
-14.08
-18.89
-24.68
-30.90
-36.70
-41.04
-43.00
-41.93
-37.71
-30.72
-21.71
-11.60
-1.31
8.36
16.73
23.27
27.57
29.44
28.95
26.44
22.52
17.94
13.46
9.68
6.95
5.22
4.20
3.40
2.34
0.70
-1.60
-4.46
-7.70
-11.15
-14.75
-18.55
-22.70
-27.40
-32.90
-39.27
-46.29
-53.32
-59.29
-62.96
-63.33
-59.93
-52.98
-43.31
-31.97
-19.96
-7.98
3.48
13.94
22.72
29.01
32.10
31.75
28.46
23.46
18.40
15.00
14.55
17.74
24.58
34.45
46.22
58.49
69.75
78.70
84.59
87.36
87.62
86.30
84.30
82.09
79.66
76.64
72.71
67.85
62.60
57.91
54.85
54.30
56.59
61.44
67.98
75.04
81.41
86.01
88.10
87.25
83.35
76.62
67.54
56.93
45.77
35.10
25.77
18.26
12.57
8.27
4.67
1.13
-2.81
-7.23
-11.95
-16.73
-21.55
-26.71
-32.87
-40.75
-50.81
-62.88
-76.02
-88.65
-98.93
-105.31
-106.92
-103.81
-96.81
-87.29
-76.69
-66.17
-56.53
-48.19
-41.44
-36.47
-33.44
-32.34
-32.87
-34.44
-36.23
-37.49
-37.73
-36.86
-35.09
-32.81
-30.39
-28.05
-25.83
-23.71
-21.64
-19.66
-17.92
-16.59
-15.87
-15.85
-16.58
-18.00
-20.04
-22.57
-25.35
-27.90
-29.55
-29.50
-27.11
-22.14
-14.92
-6.32
2.58
10.79
17.66
22.89
26.43
28.29
28.40
26.70
23.26
18.45
12.95
7.64
3.33
0.56
-0.60
-0.54
0.11
0.70
0.81
0.38
-0.43
-1.42
-2.48
-3.72
-5.35
-7.60
-10.61
-14.37
-18.75
-23.53
-28.32
-32.50
-35.27
-35.78
-33.38
-27.94
-19.92
-10.27
-0.20
9.15
16.89
22.44
25.59
26.35
24.94
21.81
17.52
12.76
8.21
4.42
1.82
0.50
0.28
0.76
1.38
1.68
1.43
0.60
-0.65
-2.22
-4.09
-6.38
-9.28
-12.87
-17.13
-21.86
-26.72
-31.24
-34.77
-36.61
-36.04
-32.64
-26.40
-17.85
-7.98
1.98
10.90
17.95
22.74
25.28
25.77
24.54
21.94
18.35
14.24
10.14
6.62
4.08
2.67
2.19
2.20
2.19
1.81
0.98
-0.12
-1.23
-2.18
-3.04
-4.14
-5.94
-8.89
-13.10
-18.31
-23.79
-28.52
-31.46
-31.81
-29.22
-23.82
-16.21
-7.20
2.26
11.31
19.20
25.34
29.29
30.88
30.16
27.53
23.62
19.20
15.02
11.61
9.27
7.93
7.34
7.18
7.21
7.28
7.33
7.33
7.13
6.48
5.04
2.45
-1.58
-7.05
-13.60
-20.44
-26.41
-30.29
-31.07
-28.30
-22.19
-13.55
-3.52
6.75
16.30
24.46
30.75
34.82
36.43
35.54
32.38
27.59
22.08
16.86
12.73
10.04
8.64
7.96
7.37
6.42
5.05
3.50
2.06
0.83
-0.41
-2.19
-5.10
-9.54
-15.47
-22.37
-29.28
-34.99
-38.37
-38.58
-35.26
-28.61
-19.32
-8.43
2.91
13.59
22.69
29.56
33.79
35.31
34.36
31.50
27.51
23.22
19.30
16.12
13.74
11.96
10.50
9.09
7.61
6.02
4.34
2.56
0.67
-1.43
-3.87
-6.90
-10.83
-15.98
-22.48
-30.05
-37.88
-44.65
-48.86
-49.22
-45.18
-37.11
-26.16
-13.92
-1.91
8.77
17.55
24.25
28.83
31.32
31.81
30.51
27.91
24.72
21.64
19.25
17.77
17.09
16.89
16.86
16.81
16.70
16.51
16.09
15.17
13.40
10.54
6.68
2.20
-2.37
-6.61
-10.43
-14.07
-17.96
-22.49
-27.83
-33.75
-39.72
-44.92
-48.45
-49.39
-47.06
-41.14
-31.80
-19.79
-6.26
7.34
19.67
29.70
36.91
41.29
43.25
43.39
42.33
40.50
38.25
35.89
33.79
32.36
31.90
32.47
33.76
35.23
36.27
36.52
35.89
34.56
32.72
30.44
27.62
24.05
19.65
14.51
8.89
3.13
-2.57
-8.06
-13.25
-18.08
-22.38
-26.04
-29.06
-31.66
-34.31
-37.59
-41.95
-47.43
-53.52
-59.16
-62.92
-63.47
-59.94
-52.19
-40.85
-27.13
-12.51
1.56
13.90
23.72
30.64
34.67
36.21
35.88
34.44
32.58
30.83
29.54
28.85
28.74
29.12
29.78
30.51
31.08
31.23
30.79
29.60
27.59
24.84
21.50
17.84
14.11
10.48
6.96
3.49
-0.03
-3.58
-7.06
-10.31
-13.20
-15.77
-18.12
-20.48
-23.03
-25.88
-29.15
-32.95
-37.43
-42.57
-48.04
-53.01
-56.31
-56.64
-53.14
-45.71
-35.09
-22.67
-9.98
1.69
11.54
19.23
24.74
28.10
29.40
28.82
26.76
23.83
20.79
18.38
17.07
17.04
18.10
19.79
21.61
23.06
23.85
23.85
23.08
21.65
19.63
16.99
13.69
9.70
5.15
0.36
-4.19
-7.99
-10.72
-12.30
-12.96
-13.10
-13.18
-13.59
-14.66
-16.55
-19.23
-22.41
-25.45
-27.44
-27.31
-24.28
-18.02
-8.94
2.02
13.55
24.40
33.58
40.48
44.88
46.80
46.44
44.12
40.32
35.64
30.76
26.29
22.69
20.10
18.35
17.09
15.91
14.55
12.94
11.19
9.43
7.70
5.85
3.61
0.74
-2.82
-6.90
-11.09
-14.93
-18.13
-20.61
-22.58
-24.44
-26.60
-29.36
-32.87
-37.05
-41.57
-45.88
-49.18
-50.56
-49.23
-44.73
-37.14
-27.05
-15.49
-3.64
7.43
16.90
24.29
29.41
32.28
33.11
32.29
30.31
27.75
25.18
23.06
21.66
21.03
21.06
21.52
22.20
22.90
23.42
23.54
23.00
21.58
19.20
15.93
12.01
7.74
3.39
-0.82
-4.80
-8.50
-11.99
-15.46
-19.21
-23.55
-28.56
-33.95
-38.96
-42.55
-43.72
-41.89
-37.07
-29.87
-21.25
-12.21
-3.62
3.88
9.88
14.09
16.39
16.78
15.50
12.96
9.73
6.39
3.44
1.19
-0.26
-1.00
-1.20
-1.09
-0.87
-0.68
-0.63
-0.76
-1.06
-1.55
-2.27
-3.29
-4.72
-6.69
-9.31
-12.70
-16.95
-22.07
-27.89
-33.90
-39.35
-43.26
-44.76
-43.31
-38.86
-31.89
-23.17
-13.62
-4.10
4.62
11.89
17.17
20.14
20.75
19.27
16.29
12.49
8.57
5.01
2.17
0.28
-0.49
-0.01
1.70
4.30
7.19
9.52
10.49
9.62
6.89
2.68
-2.37
-7.74
-13.15
-18.63
-24.33
-30.35
-36.54
-42.41
-47.21
-50.12
-50.43
-47.80
-42.38
-34.77
-25.88
-16.66
-7.88
-0.07
6.51
11.63
15.09
16.71
16.42
14.46
11.40
8.01
5.11
3.24
2.56
2.87
3.72
4.66
5.35
5.65
5.58
5.26
4.72
3.95
2.82
1.10
-1.44
-4.94
-9.36
-14.40
-19.51
-23.94
-26.88
-27.63
-25.71
-21.01
-13.84
-4.86
5.07
14.98
24.00
31.44
36.82
39.89
40.64
39.27
36.21
32.05
27.48
23.11
19.40
16.50
14.32
12.61
11.06
9.42
7.56
5.43
3.02
0.31
-2.74
-6.18
-10.04
-14.40
-19.36
-25.00
-31.27
-37.84
-43.95
-48.57
-50.56
-49.13
-44.09
-35.91
-25.65
-14.48
-3.47
6.68
15.48
22.63
27.78
30.68
31.27
29.81
26.94
23.51
20.36
18.04
16.75
16.35
16.55
17.01
17.45
17.70
17.59
16.96
15.69
13.70
11.03
7.80
4.14
0.13
-4.30
-9.27
-14.90
-21.10
-27.39
-32.88
-36.45
-37.02
-34.01
-27.50
-18.29
-7.62
3.19
13.14
21.65
28.51
33.65
37.02
38.52
38.18
36.28
33.36
30.11
27.10
24.65
22.83
21.60
20.96
20.96
21.60
22.72
23.84
24.42
24.16
23.17
22.03
21.46
21.92
23.35
25.09
26.23
25.96
23.83
19.84
14.28
7.67
0.63
-6.08
-11.54
-14.81
-15.21
-12.52
-7.20
-0.31
6.84
12.93
17.13
19.16
19.29
18.12
16.29
14.29
12.34
10.44
8.49
6.55
4.92
4.11
4.64
6.78
10.33
14.56
18.49
21.19
22.10
21.18
18.85
15.73
12.50
9.65
7.44
5.92
4.95
4.27
3.51
2.31
0.38
-2.37
-5.77
-9.32
-12.32
-13.92
-13.32
-9.94
-3.51
5.80
17.37
30.21
43.11
54.72
63.80
69.29
70.56
67.41
60.20
49.65
36.76
22.57
8.10
-5.77
-18.28
-28.86
-37.21
-43.33
-47.62
-50.71
-53.30
-55.87
-58.58
-61.26
-63.63
-65.48
-66.81
-67.81
-68.72
-69.76
-70.95
-72.18
-73.17
-73.45
-72.48
-69.65
-64.53
-57.00
-47.39
-36.44
-25.15
-14.57
-5.56
1.32
5.84
8.14
8.62
7.87
6.49
4.97
3.61
2.53
1.75
1.30
1.29
1.75
2.61
3.55
4.06
3.59
1.77
-1.37
-5.46
-9.85
-13.87
-17.03
-19.18
-20.49
-21.37
-22.35
-23.92
-26.42
-29.88
-33.91
-37.76
-40.36
-40.73
-38.22
-32.79
-25.09
-16.20
-7.35
0.41
6.46
10.60
12.96
13.92
13.96
13.59
13.26
13.30
13.81
14.66
15.63
16.48
17.07
17.37
17.39
17.09
16.38
15.13
13.26
10.79
7.86
4.61
1.18
-2.36
-5.95
-9.51
-12.90
-16.05
-18.96
-21.77
-24.58
-27.31
-29.55
-30.57
-29.53
-25.82
-19.29
-10.45
-0.30
9.99
19.39
27.19
33.05
36.92
38.86
39.05
37.69
35.16
31.89
28.42
25.26
22.74
20.99
19.88
19.11
18.31
17.18
15.61
13.68
11.62
9.62
7.76
5.94
4.01
1.84
-0.58
-3.12
-5.60
-7.91
-10.12
-12.48
-15.45
-19.45
-24.66
-30.83
-37.17
-42.50
-45.53
-45.33
-41.61
-34.85
-26.13
-16.73
-7.76
0.01
6.21
10.65
13.25
14.02
13.10
10.89
8.08
5.47
3.76
3.29
4.04
5.71
7.92
10.35
12.76
14.92
16.48
17.01
16.10
13.60
9.70
4.90
-0.11
-4.71
-8.44
-11.14
-12.85
-13.75
-14.11
-14.30
-14.80
-16.12
-18.67
-22.57
-27.49
-32.54
-36.56
-38.35
-37.09
-32.63
-25.54
-17.00
-8.32
-0.57
5.65
10.25
13.40
15.31
16.10
15.81
14.61
12.86
11.07
9.71
8.97
8.71
8.60
8.35
7.98
7.80
8.28
9.79
12.42
15.93
19.93
23.97
27.66
30.68
32.78
33.72
33.22
31.09
27.19
21.64
14.78
7.31
0.20
-5.55
-9.06
-9.81
-7.68
-2.89
4.09
12.55
21.46
29.46
34.81
35.91
31.67
22.07
8.29
-7.57
-23.14
-36.46
-46.45
-52.90
-56.14
-56.61
-54.65
-50.51
-44.54
-37.31
-29.58
-22.02
-15.06
-8.75
-3.06
1.90
5.74
7.91
7.98
6.03
2.63
-1.35
-5.12
-8.22
-10.50
-11.85
-12.05
-10.61
-7.06
-1.26
6.33
14.83
23.12
30.30
35.92
39.92
42.45
43.65
43.52
41.99
39.10
35.14
30.68
26.41
22.93
20.55
19.13
18.24
17.31
15.95
14.08
11.93
9.91
8.31
7.19
6.28
5.15
3.37
0.71
-2.86
-7.23
-12.13
-17.26
-22.13
-26.15
-28.61
-28.86
-26.53
-21.70
-14.93
-7.16
0.59
7.46
12.92
16.81
19.16
20.09
19.71
18.13
15.56
12.36
9.04
6.07
3.78
2.21
1.18
0.40
-0.32
-1.01
-1.54
-1.76
-1.61
-1.28
-1.13
-1.61
-3.13
-5.96
-10.10
-15.30
-20.99
-26.42
-30.75
-33.16
-33.13
-30.46
-25.41
-18.55
-10.67
-2.59
4.98
11.45
16.39
19.55
20.84
20.33
18.30
15.21
11.61
8.03
4.91
2.54
1.03
0.35
0.38
0.90
1.68
2.45
2.98
3.12
2.82
2.08
0.92
-0.68
-2.84
-5.73
-9.47
-13.95
-18.72
-23.01
-25.88
-26.50
-24.43
-19.76
-13.07
-5.23
2.85
10.39
16.78
21.60
24.56
25.49
24.45
21.74
17.96
13.75
9.72
6.32
3.76
2.08
1.20
1.01
1.35
2.01
2.73
3.28
3.49
3.32
2.81
2.00
0.81
-1.07
-4.04
-8.41
-14.07
-20.40
-26.21
-30.15
-31.11
-28.71
-23.33
-15.97
-7.76
0.43
8.10
15.03
20.99
25.50
27.99
27.99
25.56
21.36
16.49
12.06
8.86
7.03
6.24
5.95
5.70
5.28
4.72
4.15
3.67
3.24
2.70
1.77
0.22
-2.24
-5.77
-10.41
-15.92
-21.81
-27.31
-31.47
-33.39
-32.40
-28.20
-21.00
-11.42
-0.42
10.87
21.39
30.32
37.15
41.64
43.81
43.80
41.86
38.35
33.85
29.05
24.67
21.25
18.95
17.55
16.51
15.24
13.37
10.82
7.76
4.43
1.00
-2.54
-6.31
-10.52
-15.37
-20.98
-27.34
-34.24
-41.15
-47.22
-51.41
-52.78
-50.81
-45.62
-37.89
-28.74
-19.28
-10.41
-2.70
3.52
8.09
10.92
12.07
11.77
10.45
8.66
6.86
5.39
4.35
3.73
3.47
3.51
3.80
4.30
4.91
5.47
5.82
5.78
5.23
4.10
2.37
0.10
-2.67
-5.91
-9.69
-14.09
-19.04
-24.23
-28.94
-32.16
-32.82
-30.19
-24.13
-15.22
-4.59
6.38
16.49
24.91
31.27
35.58
38.05
39.05
39.11
38.91
39.25
40.86
44.19
49.26
55.62
62.49
69.08
74.79
79.35
82.69
84.83
85.69
85.11
82.89
78.99
73.58
67.06
59.91
52.49
44.99
37.33
29.32
20.81
11.86
2.82
-5.71
-12.97
-18.23
-20.98
-20.99
-18.38
-13.56
-7.17
0.08
7.45
14.24
19.86
23.86
25.98
26.20
24.75
22.12
18.94
15.84
13.30
11.48
10.26
9.35
8.44
7.38
6.21
5.00
3.83
2.57
1.00
-1.14
-3.94
-7.27
-10.85
-14.33
-17.43
-20.10
-22.41
-24.59
-26.89
-29.59
-32.87
-36.76
-41.04
-45.20
-48.53
-50.19
-49.54
-46.24
-40.53
-33.09
-24.93
-17.13
-10.53
-5.66
-2.62
-1.24
-1.21
-2.20
-3.95
-6.19
-8.62
-10.86
-12.54
-13.35
-13.22
-12.32
-10.95
-9.41
-7.86
-6.34
-4.75
-3.11
-1.54
-0.34
0.14
-0.35
-1.82
-4.10
-6.88
-9.94
-13.20
-16.76
-20.80
-25.36
-30.21
-34.80
-38.36
-40.19
-39.83
-37.26
-32.79
-26.98
-20.38
-13.52
-6.89
-1.03
3.53
6.39
7.46
7.03
5.73
4.27
3.19
2.63
2.41
2.20
1.74
0.92
-0.20
-1.52
-2.97
-4.60
-6.48
-8.64
-11.00
-13.41
-15.69
-17.73
-19.57
-21.43
-23.68
-26.62
-30.32
-34.48
-38.37
-41.07
-41.71
-39.86
-35.57
-29.39
-22.04
-14.25
-6.51
0.81
7.39
12.78
16.46
18.05
17.48
15.13
11.71
8.03
4.72
2.06
0.06
-1.45
-2.63
-3.53
-4.16
-4.55
-4.79
-5.03
-5.45
-6.22
-7.46
-9.22
-11.56
-14.56
-18.26
-22.66
-27.64
-32.83
-37.63
-41.25
-42.86
-41.84
-37.94
-31.45
-23.06
-13.80
-4.71
3.34
9.80
14.38
17.13
18.21
17.90
16.51
14.36
11.83
9.31
7.11
5.43
4.30
3.58
3.02
2.38
1.48
0.23
-1.31
-3.09
-5.07
-7.26
-9.73
-12.58
-15.89
-19.72
-24.08
-28.82
-33.63
-37.93
-40.95
-41.87
-40.08
-35.34
-27.97
-18.72
-8.59
1.42
10.52
18.16
24.01
27.92
29.87
30.00
28.61
26.13
23.05
19.87
17.00
14.73
13.23
12.48
12.28
12.26
12.01
11.21
9.66
7.39
4.57
1.42
-1.89
-5.30
-8.84
-12.67
-16.95
-21.83
-27.24
-32.79
-37.78
-41.24
-42.28
-40.31
-35.29
-27.73
-18.53
-8.72
0.77
9.23
16.19
21.38
24.67
26.05
25.62
23.68
20.68
17.23
14.00
11.60
10.39
10.41
11.34
12.65
13.80
14.39
14.23
13.36
11.94
10.15
8.15
6.05
3.87
1.47
-1.44
-5.17
-9.92
-15.50
-21.34
-26.47
-29.82
-30.52
-28.19
-22.98
-15.46
-6.44
3.31
13.09
22.26
30.28
36.63
40.91
43.01
43.14
41.85
39.86
37.82
36.19
35.17
34.78
34.94
35.60
36.61
37.67
38.31
37.98
36.29
33.21
29.12
24.67
20.52
17.04
14.17
11.59
8.84
5.62
1.86
-2.26
-6.44
-10.27
-13.42
-15.53
-16.24
-15.30
-12.60
-8.28
-2.78
3.19
8.72
12.94
15.25
15.45
13.76
10.76
7.17
3.64
0.59
-1.77
-3.42
-4.38
-4.71
-4.50
-3.89
-3.11
-2.50
-2.39
-3.05
-4.59
-6.92
-9.75
-12.70
-15.37
-17.54
-19.30
-21.00
-23.12
-26.03
-29.77
-33.94
-37.70
-40.07
-40.20
-37.64
-32.48
-25.27
-16.87
-8.20
-0.10
6.79
11.99
15.20
16.30
15.39
12.88
9.38
5.69
2.50
0.34
-0.61
-0.43
0.52
1.80
2.95
3.59
3.46
2.50
0.78
-1.52
-4.20
-7.06
-9.99
-12.92
-15.85
-18.84
-22.09
-25.83
-30.19
-35.04
-39.77
-43.42
-44.90
-43.39
-38.66
-31.21
-22.02
-12.27
-2.98
5.17
11.86
16.90
20.14
21.45
20.73
18.14
14.15
9.57
5.35
2.35
1.04
1.37
2.84
4.68
6.21
7.04
7.14
6.75
6.10
5.33
4.33
2.91
0.83
-2.11
-6.07
-11.12
-17.25
-24.17
-31.28
-37.55
-41.75
-42.73
-39.79
-33.02
-23.23
-11.76
-0.13
10.44
19.17
25.83
30.50
33.45
34.94
35.21
34.49
33.06
31.26
29.51
28.14
27.30
26.90
26.60
25.91
24.42
21.89
18.39
14.14
9.49
4.74
0.08
-4.38
-8.52
-12.23
-15.42
-18.14
-20.66
-23.43
-26.86
-31.07
-35.60
-39.52
-41.54
-40.53
-35.86
-27.69
-16.92
-4.89
6.95
17.42
25.75
31.59
34.95
36.04
35.23
32.98
29.87
26.48
23.41
21.09
19.72
19.26
19.38
19.67
19.76
19.40
18.56
17.35
15.87
14.16
12.13
9.62
6.53
2.85
-1.27
-5.62
-10.02
-14.46
-19.01
-23.81
-28.88
-33.98
-38.55
-41.78
-42.80
-40.96
-36.06
-28.39
-18.72
-8.06
2.58
12.31
20.45
26.59
30.47
32.06
31.59
29.57
26.68
23.63
20.92
18.78
17.13
15.77
14.53
13.40
12.53
12.06
12.04
12.27
12.37
11.89
10.46
7.95
4.52
0.50
-3.71
-7.74
-11.40
-14.65
-17.63
-20.57
-23.75
-27.38
-31.45
-35.63
-39.21
-41.24
-40.76
-37.10
-30.14
-20.39
-8.88
3.12
14.39
24.08
31.72
37.17
40.39
41.34
40.03
36.60
31.63
26.21
21.75
19.58
20.42
24.15
29.86
36.25
42.16
46.92
50.36
52.58
53.61
53.24
51.21
47.39
42.05
35.87
29.69
24.13
19.36
15.08
10.70
5.76
0.02
-6.43
-13.32
-20.41
-27.51
-34.40
-40.57
-45.25
-47.47
-46.40
-41.77
-33.93
-23.90
-13.02
-2.51
6.73
14.26
19.93
23.74
25.72
25.90
24.39
21.53
17.86
14.06
10.72
8.25
6.80
6.27
6.44
7.06
7.90
8.74
9.32
9.39
8.69
7.07
4.49
1.13
-2.76
-6.85
-10.83
-14.52
-17.93
-21.19
-24.57
-28.34
-32.69
-37.58
-42.64
-47.21
-50.43
-51.51
-49.95
-45.75
-39.41
-31.74
-23.62
-15.79
-8.71
-2.68
2.17
5.70
7.79
8.41
7.69
5.90
3.40
0.60
-2.19
-4.74
-6.95
-8.75
-10.10
-10.90
-11.12
-10.89
-10.47
-10.25
-10.61
-11.76
-13.67
-16.05
-18.49
-20.66
-22.41
-23.78
-25.01
-26.39
-28.19
-30.50
-33.15
-35.67
-37.33
-37.39
-35.30
-30.89
-24.42
-16.54
-8.03
0.36
7.98
14.33
19.03
21.81
22.51
21.24
18.33
14.41
10.23
6.54
3.89
2.54
2.34
2.85
3.48
3.68
3.12
1.74
-0.35
-2.92
-5.80
-8.87
-12.03
-15.20
-18.31
-21.34
-24.38
-27.62
-31.17
-34.95
-38.50
-41.09
-41.85
-40.11
-35.62
-28.66
-19.94
-10.39
-0.90
7.90
15.59
21.95
26.81
29.95
31.19
30.48
28.11
24.68
21.02
17.90
15.83
14.90
14.87
15.34
15.96
16.46
16.67
16.46
15.69
14.33
12.45
10.24
7.84
5.18
1.99
-2.18
-7.62
-14.29
-21.61
-28.62
-34.17
-37.29
-37.44
-34.56
-29.06
-21.70
-13.43
-5.21
2.03
7.54
10.85
11.88
10.88
8.42
5.20
1.87
-1.01
-3.24
-4.75
-5.57
-5.81
-5.52
-4.77
-3.79
-2.95
-2.77
-3.75
-6.10
-9.59
-13.52
-16.97
-19.12
-19.62
-18.78
-17.37
-16.30
-16.14
-16.81
-17.66
-17.70
-16.02
-12.20
-6.39
0.79
8.51
16.03
22.84
28.65
33.28
36.49
38.01
37.60
35.21
31.11
25.93
20.55
15.88
12.56
10.85
10.52
11.02
11.69
12.04
11.89
11.43
11.08
11.33
12.58
15.02
18.57
22.82
27.04
30.33
31.66
30.22
25.55
17.68
7.16
-5.04
-17.64
-29.19
-38.29
-43.76
-44.89
-41.68
-34.77
-25.35
-14.78
-4.25
5.41
13.69
20.31
25.04
27.71
28.24
26.85
24.03
20.52
17.10
14.41
12.83
12.39
12.91
13.99
15.24
16.20
16.52
15.95
14.42
12.02
8.99
5.63
2.23
-1.01
-3.93
-6.38
-8.33
-9.76
-10.86
-11.88
-13.14
-14.92
-17.38
-20.55
-24.36
-28.62
-32.93
-36.71
-39.11
-39.26
-36.54
-30.82
-22.66
-13.13
-3.47
5.22
12.27
17.41
20.69
22.26
22.33
21.21
19.32
17.25
15.66
15.02
15.54
17.10
19.36
21.91
24.42
26.69
28.58
29.97
30.72
30.74
30.07
28.90
27.51
26.22
25.17
24.36
23.62
22.77
21.68
20.29
18.66
16.93
15.25
13.73
12.44
11.35
10.32
9.21
7.86
6.19
4.25
2.31
0.80
0.33
1.47
4.63
9.93
17.08
25.49
34.35
42.84
50.20
55.80
59.22
60.20
58.80
55.35
50.47
44.89
39.32
34.27
29.97
26.47
23.64
21.36
19.49
17.90
16.41
14.84
13.00
10.75
8.01
4.76
1.01
-3.24
-8.03
-13.36
-19.14
-25.22
-31.26
-36.88
-41.68
-45.39
-47.92
-49.37
-50.04
-50.25
-50.42
-50.90
-52.02
-53.97
-56.69
-59.75
-62.30
-63.23
-61.42
-56.14
-47.33
-35.67
-22.45
-9.16
2.90
12.89
20.50
25.86
29.30
31.17
31.74
31.29
30.14
28.71
27.45
26.75
26.79
27.56
28.87
30.44
32.01
33.33
34.22
34.52
34.13
32.99
31.08
28.41
25.00
20.93
16.34
11.46
6.61
2.07
-1.96
-5.43
-8.49
-11.33
-14.23
-17.45
-21.28
-25.87
-31.21
-36.96
-42.38
-46.46
-48.14
-46.67
-41.78
-33.78
-23.42
-11.69
0.46
12.26
23.09
32.45
39.96
45.28
48.26
48.95
47.70
45.07
41.80
38.54
35.82
33.98
33.11
33.17
33.92
35.04
36.01
36.25
35.19
32.54
28.36
23.05
17.23
11.44
6.02
1.02
-3.72
-8.38
-13.01
-17.58
-22.00
-26.26
-30.45
-34.79
-39.51
-44.67
-50.06
-55.10
-58.95
-60.71
-59.61
-55.37
-48.21
-38.78
-27.99
-16.73
-5.77
4.30
12.97
19.75
24.23
26.20
25.80
23.55
20.23
16.65
13.40
10.75
8.66
6.91
5.29
3.64
1.96
0.27
-1.42
-3.15
-5.02
-7.16
-9.66
-12.54
-15.67
-18.82
-21.67
-23.90
-25.37
-26.17
-26.67
-27.45
-29.08
-31.90
-35.82
-40.31
-44.47
-47.25
-47.78
-45.55
-40.52
-33.11
-24.05
-14.17
-4.34
4.70
12.36
18.28
22.26
24.35
24.75
23.84
22.08
19.96
17.89
16.15
14.89
14.08
13.61
13.36
13.19
12.98
12.55
11.75
10.41
8.46
5.97
3.10
0.03
-3.12
-6.36
-9.86
-13.83
-18.51
-23.90
-29.73
-35.36
-39.90
-42.39
-42.08
-38.68
-32.44
-24.10
-14.66
-5.16
3.53
10.80
16.29
19.86
21.57
21.67
20.49
18.41
15.81
13.01
10.38
8.34
7.39
7.97
10.37
14.51
19.92
25.80
31.23
35.37
37.68
38.01
36.46
33.32
28.87
23.32
16.81
9.47
1.50
-6.82
-15.05
-22.60
-28.71
-32.54
-33.34
-30.67
-24.59
-15.72
-5.14
5.82
15.98
24.42
30.63
34.44
35.96
35.43
33.26
29.89
25.84
21.62
17.68
14.36
11.80
10.04
8.91
8.11
7.30
6.15
4.41
2.00
-0.99
-4.29
-7.68
-10.96
-14.05
-16.94
-19.67
-22.31
-25.01
-27.94
-31.32
-35.24
-39.41
-43.08
-45.11
-44.31
-39.92
-31.97
-21.32
-9.41
2.31
12.76
21.45
28.34
33.57
37.19
39.12
39.27
37.82
35.30
32.50
30.20
28.87
28.52
28.73
28.88
28.53
27.52
26.08
24.55
23.18
21.95
20.52
18.48
15.52
11.69
7.38
3.15
-0.49
-3.33
-5.51
-7.47
-9.73
-12.80
-16.89
-21.91
-27.33
-32.28
-35.62
-36.30
-33.61
-27.49
-18.57
-7.98
3.03
13.42
22.62
30.49
37.13
42.63
47.00
50.20
52.26
53.37
53.92
54.33
54.95
55.87
56.93
57.86
58.36
58.28
57.58
56.24
54.20
51.31
47.42
42.57
37.04
31.29
25.74
20.57
15.58
10.30
4.32
-2.48
-9.82
-17.09
-23.73
-29.48
-34.47
-39.09
-43.71
-48.51
-53.41
-58.25
-62.96
-67.64
-72.40
-77.10
-81.17
-83.61
-83.26
-79.31
-71.58
-60.75
-48.01
-34.76
-22.08
-10.60
-0.45
8.48
16.27
22.89
28.20
32.10
34.69
36.28
37.29
38.13
39.03
40.05
41.12
42.10
42.91
43.46
43.69
43.47
42.65
41.14
38.88
35.91
32.32
28.22
23.69
18.87
13.86
8.79
3.74
-1.29
-6.35
-11.47
-16.60
-21.60
-26.22
-30.32
-33.85
-36.97
-39.91
-42.90
-46.06
-49.28
-52.27
-54.44
-55.09
-53.47
-49.02
-41.60
-31.61
-19.92
-7.65
4.08
14.45
22.89
29.10
32.90
34.24
33.19
30.11
25.59
20.36
15.11
10.34
6.35
3.19
0.84
-0.83
-2.05
-3.11
-4.33
-5.99
-8.20
-10.87
-13.74
-16.56
-19.22
-21.75
-24.34
-27.18
-30.32
-33.64
-36.90
-39.88
-42.47
-44.82
-47.24
-50.12
-53.74
-58.08
-62.71
-66.76
-69.08
-68.55
-64.42
-56.55
-45.49
-32.38
-18.60
-5.42
6.21
15.73
22.92
27.73
30.20
30.50
28.99
26.18
22.77
19.48
16.89
15.36
14.99
15.64
17.02
18.78
20.59
22.25
23.64
24.80
25.76
26.49
26.85
26.57
25.38
23.16
20.07
16.47
12.85
9.58
6.79
4.34
1.87
-1.06
-4.84
-9.74
-15.83
-22.87
-30.29
-37.17
-42.49
-45.40
-45.50
-43.06
-38.85
-33.85
-28.92
-24.57
-21.00
-18.25
-16.32
-15.18
-14.64
-14.30
-13.53
-11.83
-9.00
-5.37
-1.66
1.38
3.27
4.05
4.09
3.98
4.11
4.62
5.34
5.93
6.02
5.31
3.58
0.84
-2.69
-6.57
-10.31
-13.50
-16.08
-18.30
-20.68
-23.77
-27.92
-33.10
-38.77
-43.98
-47.50
-48.22
-45.41
-39.00
-29.62
-18.36
-6.53
4.76
14.74
22.99
29.33
33.71
36.14
36.73
35.70
33.46
30.51
27.44
24.72
22.71
21.50
20.97
20.84
20.79
20.54
19.88
18.68
16.88
14.58
12.04
9.57
7.44
5.65
3.83
1.35
-2.39
-7.66
-14.22
-21.34
-28.11
-33.72
-37.78
-40.41
-42.23
-44.17
-47.13
-51.56
-57.18
-62.81
-66.75
-67.32
-63.50
-55.39
-44.22
-31.83
-20.10
-10.40
-3.44
0.58
1.63
-0.31
-5.13
-12.36
-20.91
-29.15
-35.27
-37.93
-36.67
-32.00
-25.19
-17.65
-10.58
-4.67
-0.15
3.00
4.84
5.45
4.89
3.26
0.82
-2.18
-5.45
-8.77
-12.00
-14.99
-17.64
-19.80
-21.32
-22.01
-21.69
-20.29
-17.86
-14.71
-11.38
-8.63
-7.23
-7.67
-9.96
-13.48
-17.11
-19.56
-19.85
-17.57
-12.96
-6.71
0.36
7.58
14.50
20.86
26.42
30.89
33.96
35.47
35.48
34.42
32.90
31.65
31.21
31.83
33.42
35.57
37.75
39.41
40.13
39.65
37.90
34.98
31.13
26.73
22.19
17.84
13.84
10.12
6.47
2.66
-1.40
-5.62
-9.78
-13.75
-17.46
-21.08
-24.77
-28.60
-32.37
-35.53
-37.33
-36.91
-33.68
-27.48
-18.71
-8.30
2.51
12.53
20.96
27.42
31.98
34.90
36.48
36.98
36.67
35.89
35.02
34.33
33.82
33.13
31.73
29.17
25.40
20.86
16.28
12.30
9.21
6.87
4.83
2.73
0.54
-1.48
-2.93
-3.71
-4.10
-4.73
-6.29
-9.21
-13.44
-18.49
-23.61
-28.02
-31.03
-32.12
-30.83
-26.86
-20.19
-11.23
-0.84
9.73
19.19
26.58
31.44
33.95
34.65
34.20
33.14
31.75
30.14
28.33
26.39
24.48
22.79
21.42
20.45
19.83
19.39
18.95
18.23
17.01
15.08
12.40
9.08
5.35
1.50
-2.28
-5.97
-9.75
-13.88
-18.61
-23.97
-29.72
-35.33
-40.06
-43.11
-43.78
-41.64
-36.62
-29.04
-19.63
-9.41
0.56
9.31
16.16
20.81
23.28
23.85
22.93
20.96
18.36
15.50
12.70
10.26
8.47
7.50
7.42
8.06
9.11
10.14
10.73
10.58
9.58
7.83
5.46
2.62
-0.58
-4.12
-7.93
-11.96
-16.11
-20.35
-24.72
-29.24
-33.80
-37.99
-41.08
-42.16
-40.41
-35.41
-27.36
-17.06
-5.68
5.54
15.56
23.71
29.67
33.41
35.12
35.11
33.76
31.47
28.66
25.71
22.94
20.65
19.05
18.18
17.91
17.93
17.84
17.27
16.01
14.05
11.57
8.79
5.88
2.86
-0.37
-3.93
-7.88
-12.24
-17.01
-22.19
-27.78
-33.64
-39.32
-44.06
-46.88
-46.86
-43.48
-36.88
-27.77
-17.29
-6.63
3.24
11.71
18.49
23.45
26.50
27.61
26.88
24.61
21.39
17.96
14.99
12.91
11.78
11.31
11.11
10.82
10.29
9.50
8.53
7.41
6.09
4.44
2.35
-0.20
-3.12
-6.24
-9.34
-12.28
-15.09
-17.98
-21.22
-25.04
-29.35
-33.64
-36.99
-38.34
-36.83
-32.17
-24.72
-15.40
-5.37
4.30
12.87
19.96
25.42
29.23
31.35
31.85
30.87
28.78
26.09
23.41
21.21
19.79
19.09
18.90
18.84
18.61
18.05
17.17
16.08
14.86
13.51
11.95
10.03
7.67
4.93
1.85
-1.50
-5.15
-9.24
-13.86
-18.91
-23.96
-28.28
-31.03
-31.48
-29.25
-24.44
-17.57
-9.39
-0.72
7.73
15.42
21.93
26.97
30.33
31.91
31.82
30.38
28.10
25.56
23.29
21.64
20.72
20.38
20.36
20.35
20.14
19.60
18.70
17.44
15.84
13.86
11.47
8.64
5.37
1.65
-2.54
-7.33
-12.77
-18.80
-25.04
-30.73
-34.86
-36.39
-34.64
-29.51
-21.56
-11.80
-1.41
8.62
17.61
25.23
31.34
35.87
38.78
40.13
40.06
38.88
36.95
34.57
31.92
29.00
25.74
22.04
17.86
13.22
8.13
2.62
-3.23
-9.22
-15.05
-20.31
-24.68
-28.00
-30.41
-32.29
-34.11
-36.30
-39.05
-42.25
-45.49
-48.18
-49.65
-49.34
-46.87
-42.12
-35.27
-26.76
-17.30
-7.77
0.88
7.86
12.70
15.34
16.16
15.78
14.82
13.80
13.02
12.60
12.58
12.93
13.60
14.38
14.97
15.04
14.31
12.70
10.30
7.39
4.27
1.15
-1.83
-4.63
-7.26
-9.74
-12.21
-14.85
-17.96
-21.78
-26.35
-31.24
-35.65
-38.46
-38.66
-35.65
-29.48
-20.79
-10.65
-0.25
9.45
17.72
24.19
28.66
31.15
31.78
30.86
28.86
26.38
24.02
22.28
21.46
21.54
22.28
23.30
24.22
24.79
24.95
24.67
23.94
22.63
20.53
17.51
13.54
8.80
3.61
-1.65
-6.73
-11.49
-15.93
-20.16
-24.37
-28.79
-33.58
-38.79
-44.07
-48.76
-51.92
-52.58
-50.11
-44.37
-35.88
-25.59
-14.68
-4.26
4.82
12.00
17.03
19.84
20.55
19.38
16.72
13.10
9.17
5.55
2.84
1.34
1.06
1.70
2.69
3.51
3.73
3.21
2.12
0.72
-0.64
-1.78
-2.62
-3.28
-3.93
-4.72
-5.73
-6.94
-8.27
-9.68
-11.21
-12.95
-15.06
-17.64
-20.74
-24.31
-28.21
-32.22
-35.96
-38.87
-40.25
-39.35
-35.63
-28.97
-19.80
-9.02
2.21
12.73
21.64
28.39
32.85
35.17
35.70
34.86
33.16
31.15
29.34
28.19
27.92
28.45
29.40
30.25
30.54
30.08
29.01
27.68
26.37
25.12
23.69
21.65
18.71
14.85
10.43
5.97
1.98
-1.28
-3.84
-5.88
-7.59
-9.11
-10.51
-11.93
-13.63
-16.01
-19.32
-23.38
-27.51
-30.61
-31.54
-29.55
-24.62
-17.50
-9.39
-1.53
5.16
10.28
13.83
16.07
17.29
17.65
17.26
16.24
14.78
13.12
11.50
10.10
9.00
8.08
7.20
6.27
5.32
4.52
4.08
4.17
4.80
5.79
6.82
7.59
7.92
7.77
7.20
6.34
5.27
3.93
2.18
-0.24
-3.53
-7.67
-12.30
-16.68
-19.78
-20.62
-18.59
-13.69
-6.46
2.15
11.15
19.67
27.10
33.02
37.10
39.14
39.06
37.02
33.43
28.92
24.18
19.84
16.32
13.78
12.17
11.31
11.00
11.06
11.34
11.65
11.73
11.28
10.03
7.84
4.77
1.04
-3.04
-7.16
-11.16
-15.04
-19.01
-23.31
-28.10
-33.28
-38.33
-42.38
-44.37
-43.47
-39.30
-32.17
-22.91
-12.64
-2.42
6.99
15.12
21.76
26.76
30.03
31.46
31.11
29.28
26.46
23.22
20.10
17.44
15.33
13.79
12.77
12.29
12.37
12.95
13.77
14.39
14.28
13.03
10.47
6.79
2.37
-2.34
-7.00
-11.49
-15.83
-20.19
-24.73
-29.59
-34.80
-40.24
-45.52
-49.99
-52.71
-52.75
-49.41
-42.52
-32.56
-20.53
-7.73
4.60
15.54
24.55
31.42
36.13
38.73
39.28
37.98
35.24
31.69
28.11
25.16
23.21
22.18
21.67
21.17
20.34
19.17
17.94
16.96
16.37
16.02
15.51
14.45
12.62
10.15
7.37
4.72
2.50
0.76
-0.63
-1.97
-3.57
-5.75
-8.77
-12.70
-17.29
-21.87
-25.42
-26.78
-25.05
-19.92
-11.83
-1.78
9.02
19.45
28.75
36.43
42.16
45.69
46.87
45.71
42.50
37.84
32.45
27.03
22.12
18.01
14.80
12.37
10.50
8.93
7.39
5.72
3.88
1.88
-0.14
-2.16
-4.22
-6.52
-9.29
-12.71
-16.72
-20.98
-24.93
-27.89
-29.32
-28.98
-27.06
-24.10
-20.90
-18.33
-17.11
-17.67
-19.99
-23.51
-27.21
-29.83
-30.19
-27.60
-22.06
-14.23
-5.16
4.00
12.38
19.50
25.27
29.77
33.10
35.32
36.42
36.49
35.70
34.33
32.68
30.97
29.29
27.65
26.02
24.45
23.00
21.68
20.42
18.99
17.11
14.62
11.47
7.77
3.65
-0.79
-5.47
-10.28
-14.98
-19.21
-22.62
-25.07
-26.70
-27.97
-29.52
-32.02
-35.97
-41.63
-48.98
-57.58
-66.63
-74.99
-81.34
-84.46
-83.53
-78.43
-69.74
-58.59
-46.32
-34.17
-22.97
-13.12
-4.72
2.34
8.11
12.62
15.92
18.17
19.67
20.77
21.75
22.65
23.24
23.14
22.05
19.87
16.87
13.57
10.51
8.09
6.35
5.10
4.02
2.87
1.49
-0.16
-2.15
-4.59
-7.56
-11.04
-14.79
-18.43
-21.57
-24.00
-25.81
-27.32
-29.02
-31.30
-34.33
-37.89
-41.40
-43.98
-44.71
-42.80
-37.93
-30.35
-20.80
-10.36
-0.09
9.12
16.77
22.70
26.98
29.78
31.30
31.77
31.48
30.80
30.20
30.13
30.88
32.49
34.69
36.99
38.82
39.67
39.33
37.87
35.66
33.15
30.75
28.58
26.53
24.34
21.73
18.62
15.14
11.56
8.14
4.96
1.94
-1.06
-4.22
-7.65
-11.41
-15.48
-19.72
-23.82
-27.22
-29.19
-29.04
-26.29
-20.91
-13.36
-4.55
4.31
11.95
17.34
19.85
19.39
16.38
11.53
5.67
-0.41
-6.08
-10.80
-14.10
-15.66
-15.35
-13.36
-10.16
-6.33
-2.45
1.07
4.04
6.37
7.99
8.76
8.54
7.24
4.90
1.76
-1.79
-5.27
-8.25
-10.39
-11.62
-12.08
-12.16
-12.43
-13.44
-15.55
-18.72
-22.52
-26.11
-28.54
-29.00
-27.05
-22.74
-16.48
-8.94
-0.84
7.11
14.26
20.06
24.10
26.19
26.40
25.09
22.81
20.19
17.76
15.90
14.77
14.40
14.67
15.39
16.32
17.15
17.56
17.29
16.21
14.37
11.91
8.99
5.74
2.21
-1.52
-5.35
-9.16
-12.89
-16.65
-20.67
-25.10
-29.83
-34.38
-37.94
-39.64
-38.89
-35.53
-29.98
-22.96
-15.34
-7.87
-1.08
4.71
9.30
12.57
14.38
14.64
13.44
11.10
8.19
5.36
3.19
1.95
1.55
1.66
1.86
1.89
1.66
1.26
0.77
0.21
-0.57
-1.81
-3.64
-6.12
-9.08
-12.31
-15.70
-19.25
-23.16
-27.55
-32.28
-36.76
-40.08
-41.24
-39.50
-34.68
-27.22
-18.02
-8.09
1.64
10.58
18.33
24.67
29.39
32.32
33.36
32.58
30.33
27.14
23.61
20.30
17.53
15.40
13.75
12.30
10.76
8.88
6.53
3.73
0.59
-2.70
-5.98
-9.16
-12.26
-15.37
-18.61
-22.06
-25.76
-29.63
-33.52
-37.16
-40.09
-41.73
-41.47
-38.83
-33.68
-26.31
-17.41
-7.88
1.40
9.72
16.60
21.82
25.30
27.11
27.42
26.51
24.72
22.42
19.99
17.73
15.89
14.62
13.99
13.93
14.24
14.61
14.69
14.17
12.98
11.18
8.95
6.46
3.74
0.69
-2.82
-6.88
-11.47
-16.45
-21.66
-26.85
-31.68
-35.58
-37.87
-37.84
-35.06
-29.57
-21.90
-13.01
-3.95
4.32
11.14
16.10
19.06
20.09
19.46
17.57
14.91
11.98
9.22
7.01
5.62
5.19
5.69
6.90
8.39
9.67
10.33
10.10
8.97
7.04
4.48
1.43
-1.97
-5.61
-9.33
-13.01
-16.56
-20.02
-23.51
-27.16
-30.91
-34.43
-37.10
-38.11
-36.73
-32.58
-25.81
-17.08
-7.38
2.25
10.95
18.19
23.70
27.40
29.28
29.42
28.05
25.60
22.66
19.84
17.63
16.27
15.71
15.72
16.02
16.31
16.35
15.96
14.99
13.35
11.00
8.02
4.55
0.79
-3.07
-6.89
-10.62
-14.29
-18.01
-21.91
-26.10
-30.52
-34.82
-38.39
-40.38
-39.96
-36.63
-30.33
-21.59
-11.33
-0.70
9.25
17.70
24.14
28.31
30.23
30.10
28.37
25.62
22.54
19.75
17.71
16.58
16.26
16.45
16.77
16.92
16.75
16.32
15.81
15.42
15.21
15.06
14.70
13.85
12.31
10.07
7.26
4.03
0.41
-3.73
-8.64
-14.53
-21.32
-28.48
-35.02
-39.75
-41.58
-39.96
-35.00
-27.46
-18.39
-8.87
0.32
8.61
15.65
21.02
24.32
25.29
24.04
21.14
17.49
14.09
11.72
10.79
11.43
13.62
17.34
22.54
28.96
36.04
42.88
48.36
51.47
51.53
48.32
42.02
33.05
22.00
9.48
-3.77
-17.04
-29.66
-41.19
-51.51
-60.71
-68.96
-76.20
-82.03
-85.77
-86.70
-84.38
-78.97
-71.23
-62.29
-53.32
-45.19
-38.29
-32.60
-27.91
-24.08
-21.13
-19.16
-18.19
-18.04
-18.23
-18.20
-17.49
-15.99
-13.84
-11.34
-8.78
-6.26
-3.86
-1.65
0.10
1.00
0.67
-1.01
-3.81
-7.26
-10.76
-13.97
-16.81
-19.59
-22.72
-26.42
-30.51
-34.24
-36.53
-36.21
-32.47
-25.13
-14.71
-2.29
10.85
23.57
35.03
44.72
52.34
57.65
60.50
60.86
58.93
55.22
50.38
45.17
40.23
36.07
32.99
31.14
30.51
30.89
31.95
33.21
34.16
34.38
33.57
31.60
28.51
24.41
19.50
14.00
8.13
2.11
-3.92
-9.89
-15.82
-21.62
-27.00
-31.28
-33.54
-32.82
-28.55
-20.83
-10.49
1.13
12.60
22.77
30.96
36.96
40.80
42.62
42.57
40.86
37.88
34.19
30.47
27.34
25.19
24.03
23.55
23.21
22.51
21.12
18.98
16.26
13.25
10.17
7.10
3.99
0.69
-2.92
-6.88
-11.22
-15.96
-21.14
-26.78
-32.68
-38.30
-42.72
-44.84
-43.72
-38.90
-30.63
-19.79
-7.61
4.63
15.91
25.54
33.12
38.43
41.44
42.30
41.35
39.09
36.12
33.01
30.15
27.78
25.96
24.60
23.50
22.39
20.98
19.05
16.44
13.09
9.00
4.25
-1.06
-6.73
-12.47
-17.94
-22.90
-27.28
-31.34
-35.53
-40.38
-46.13
-52.53
-58.77
-63.62
-65.78
-64.34
-58.99
-50.16
-38.78
-26.03
-13.01
-0.61
10.50
19.77
26.77
31.21
33.07
32.71
30.83
28.29
25.91
24.23
23.44
23.42
23.91
24.57
25.12
25.27
24.87
23.84
22.23
20.20
17.88
15.34
12.48
9.06
4.89
-0.04
-5.44
-10.87
-15.85
-20.14
-23.79
-27.22
-30.97
-35.49
-40.91
-46.86
-52.54
-56.84
-58.59
-56.96
-51.58
-42.69
-31.03
-17.63
-3.66
9.74
21.54
30.84
37.03
39.79
39.30
36.25
31.69
26.85
22.86
20.45
19.90
21.03
23.35
26.26
29.19
31.68
33.46
34.35
34.27
33.19
31.10
28.07
24.16
19.52
14.37
8.96
3.53
-1.70
-6.60
-11.11
-15.21
-18.90
-22.14
-24.97
-27.48
-29.87
-32.41
-35.29
-38.36
-40.95
-41.91
-39.85
-33.60
-22.74
-7.85
9.59
27.51
43.85
56.99
65.92
70.26
70.03
65.61
57.62
46.92
34.65
22.05
10.35
0.50
-6.97
-12.02
-15.00
-16.53
-17.27
-17.78
-18.44
-19.41
-20.66
-22.03
-23.34
-24.46
-25.37
-26.17
-26.97
-27.88
-28.86
-29.77
-30.33
-30.38
-29.88
-29.00
-28.05
-27.43
-27.58
-28.86
-31.54
-35.66
-40.84
-46.21
-50.56
-52.51
-51.01
-45.62
-36.68
-25.18
-12.37
0.50
12.49
22.89
31.19
36.89
39.59
39.17
35.97
30.83
24.95
19.55
15.49
13.07
12.02
11.71
11.46
10.75
9.35
7.30
4.79
2.09
-0.58
-3.02
-5.13
-6.86
-8.16
-9.04
-9.49
-9.62
-9.60
-9.67
-10.15
-11.32
-13.39
-16.49
-20.58
-25.39
-30.36
-34.55
-36.79
-35.97
-31.37
-22.99
-11.59
1.48
14.76
26.95
37.20
45.05
50.25
52.63
52.08
48.66
42.83
35.43
27.61
20.49
14.88
11.05
8.76
7.51
6.74
6.08
5.31
4.39
3.31
2.05
0.54
-1.30
-3.48
-5.95
-8.57
-11.12
-13.41
-15.39
-17.19
-19.18
-21.84
-25.50
-30.11
-34.98
-38.92
-40.49
-38.47
-32.30
-22.27
-9.45
4.68
18.67
31.42
42.25
50.77
56.74
59.94
60.26
57.89
53.48
48.00
42.55
38.01
34.83
32.95
31.97
31.42
30.89
30.14
29.04
27.49
25.36
22.48
18.77
14.27
9.14
3.63
-2.01
-7.67
-13.38
-19.25
-25.36
-31.61
-37.64
-42.82
-46.40
-47.68
-46.15
-41.67
-34.43
-24.99
-14.18
-2.95
7.73
17.09
24.65
30.24
33.97
36.05
36.74
36.29
34.93
32.94
30.62
28.27
26.07
24.11
22.39
20.83
19.33
17.78
16.01
13.80
10.95
7.33
2.95
-2.02
-7.32
-12.68
-17.89
-22.86
-27.59
-32.14
-36.72
-41.58
-47.01
-53.20
-59.95
-66.57
-71.81
-74.23
-72.64
-66.51
-56.16
-42.68
-27.56
-12.26
2.01
14.38
24.17
30.93
34.47
35.00
33.21
30.09
26.73
23.92
21.99
20.87
20.22
19.76
19.32
18.92
18.55
18.12
17.31
15.78
13.23
9.59
5.06
0.04
-5.05
-9.89
-14.36
-18.54
-22.57
-26.63
-30.91
-35.63
-40.94
-46.75
-52.57
-57.46
-60.11
-59.30
-54.27
-45.06
-32.54
-18.11
-3.32
10.47
22.28
31.46
37.63
40.69
40.89
38.84
35.44
31.69
28.46
26.22
25.06
24.74
24.89
25.19
25.41
25.42
25.11
24.27
22.70
20.19
16.75
12.54
7.98
3.52
-0.43
-3.66
-6.24
-8.48
-10.91
-14.03
-18.17
-23.28
-28.85
-33.90
-37.18
-37.52
-34.16
-26.96
-16.45
-3.68
10.01
23.29
35.00
44.24
50.47
53.45
53.29
50.43
45.58
39.63
33.50
27.97
23.59
20.56
18.80
18.01
17.78
17.73
17.49
16.71
15.12
12.50
8.75
3.95
-1.67
-7.78
-14.07
-20.25
-26.17
-31.84
-37.38
-43.09
-49.27
-56.02
-62.94
-69.06
-72.93
-73.05
-68.39
-58.79
-45.11
-28.87
-11.88
4.26
18.36
29.70
37.90
42.85
44.70
43.93
41.31
37.82
34.43
31.90
30.57
30.41
31.06
32.06
32.98
33.53
33.53
32.91
31.55
29.30
25.99
21.53
15.97
9.59
2.83
-3.81
-10.00
-15.63
-20.95
-26.43
-32.65
-39.91
-48.03
-56.16
-62.96
-66.87
-66.59
-61.49
-51.74
-38.28
-22.49
-5.95
9.89
23.83
35.02
42.94
47.46
48.81
47.51
44.33
40.07
35.46
31.00
26.93
23.33
20.15
17.35
14.91
12.82
11.05
9.46
7.86
6.02
3.70
0.72
-2.97
-7.40
-12.46
-17.93
-23.49
-28.80
-33.59
-37.86
-41.84
-46.08
-51.11
-57.17
-63.95
-70.47
-75.29
-76.94
-74.41
-67.53
-56.97
-44.02
-30.10
-16.42
-3.84
7.10
16.00
22.52
26.40
27.59
26.41
23.51
19.79
16.15
13.32
11.62
11.00
11.08
11.35
11.38
10.99
10.25
9.41
8.74
8.31
7.99
7.42
6.28
4.36
1.71
-1.44
-4.80
-8.17
-11.50
-14.87
-18.38
-22.12
-26.19
-30.66
-35.53
-40.56
-45.18
-48.45
-49.25
-46.61
-40.12
-30.03
-17.27
-3.12
11.13
24.42
36.03
45.53
52.66
57.29
59.46
59.47
57.86
55.38
52.83
50.77
49.49
48.90
48.76
48.82
48.97
49.25
49.75
50.36
50.74
50.33
48.50
44.83
39.21
31.90
23.45
14.51
5.70
-2.52
-9.92
-16.52
-22.56
-28.43
-34.45
-40.72
-46.89
-52.10
-55.20
-55.01
-50.78
-42.44
-30.71
-16.87
-2.51
10.91
22.33
31.20
37.39
41.11
42.67
42.46
40.82
38.15
34.94
31.75
29.22
27.93
28.24
30.24
33.59
37.68
41.72
44.90
46.68
46.94
46.00
44.51
43.17
42.46
42.47
42.83
43.00
42.46
40.89
38.47
35.94
34.92
37.73
46.90
64.01
88.56
117.31
144.84
165.13
173.56
168.39
150.99
124.90
94.19
62.24
31.20
2.26
-23.66
-45.55
-62.31
-73.20
-78.26
-78.55
-75.79
-71.94
-68.50
-66.17
-64.81
-63.84
-62.87
-62.09
-62.36
-64.75
-69.99
-78.00
-87.82
-98.08
-107.49
-115.30
-121.35
-125.92
-129.38
-131.99
-133.79
-134.78
-135.13
-135.15
-135.31
-135.91
-136.80
-137.21
-135.82
-131.19
-122.20
-108.59
-91.07
-71.16
-50.74
-31.47
-14.50
-0.42
10.62
18.67
23.86
26.53
27.26
26.94
26.60
27.14
29.02
32.16
36.03
39.88
43.07
45.22
46.34
46.67
46.50
46.01
45.13
43.59
41.10
37.47
32.81
27.54
22.22
17.42
13.46
10.37
7.87
5.48
2.66
-1.12
-6.25
-12.79
-20.36
-28.07
-34.65
-38.73
-39.24
-35.76
-28.64
-18.86
-7.75
3.36
13.34
21.40
27.04
30.08
30.59
28.88
25.50
21.09
16.34
11.84
7.97
4.96
2.83
1.47
0.68
0.23
-0.15
-0.70
-1.62
-3.09
-5.19
-7.95
-11.31
-15.10
-19.07
-22.94
-26.41
-29.22
-31.22
-32.48
-33.30
-34.19
-35.77
-38.41
-42.07
-46.04
-49.06
-49.66
-46.68
-39.65
-29.11
-16.33
-2.93
9.63
20.43
29.09
35.58
39.95
42.10
41.95
39.57
35.42
30.32
25.30
21.20
18.54
17.37
17.46
18.42
19.86
21.38
22.59
23.10
22.62
20.97
18.25
14.70
10.65
6.43
2.25
-1.82
-5.84
-10.05
-14.74
-20.15
-26.19
-32.31
-37.48
-40.46
-40.15
-36.08
-28.61
-18.82
-8.24
1.68
9.87
15.76
19.23
20.42
19.55
16.91
12.95
8.32
3.79
0.20
-1.79
-1.85
-0.10
2.93
6.41
9.49
11.50
12.12
11.34
9.39
6.62
3.30
-0.39
-4.40
-8.78
-13.68
-19.23
-25.40
-31.88
-37.94
-42.55
-44.52
-42.88
-37.15
-27.51
-14.75
-0.06
15.19
29.71
42.43
52.57
59.73
63.79
64.93
63.56
60.25
55.69
50.62
45.73
41.55
38.35
36.08
34.37
32.70
30.52
27.44
23.30
18.17
12.26
5.81
-0.97
-7.94
-14.99
-22.04
-28.95
-35.50
-41.38
-46.06
-48.82
-48.83
-45.36
-38.01
-26.97
-13.07
2.41
17.97
32.22
44.09
52.90
58.36
60.46
59.49
55.98
50.72
44.57
38.41
32.88
28.29
24.65
21.70
19.11
16.55
13.82
10.80
7.44
3.75
-0.28
-4.67
-9.48
-14.82
-20.81
-27.55
-35.07
-43.19
-51.47
-59.12
-65.13
-68.44
-68.13
-63.77
-55.48
-43.99
-30.47
-16.30
-2.79
8.97
18.24
24.68
28.27
29.33
28.41
26.20
23.42
20.63
18.24
16.48
15.41
14.99
15.07
15.37
15.55
15.22
14.12
12.17
9.52
6.49
3.40
0.48
-2.26
-5.04
-8.25
-12.28
-17.41
-23.64
-30.53
-37.23
-42.50
-45.14
-44.19
-39.20
-30.38
-18.49
-4.73
9.51
22.86
34.08
42.22
46.78
47.78
45.74
41.61
36.46
31.34
26.94
23.57
21.26
19.84
19.13
18.99
19.31
19.90
20.49
20.66
20.01
18.19
15.07
10.75
5.55
0.02
-5.31
-9.95
-13.69
-16.58
-19.02
-21.61
-24.94
-29.47
-35.25
-41.85
-48.28
-53.22
-55.26
-53.31
-47.02
-36.80
-23.84
-9.73
3.94
15.90
25.31
31.77
35.22
35.85
34.07
30.61
26.40
22.42
19.50
18.04
17.97
18.84
20.01
20.91
21.22
20.90
20.01
18.63
16.72
14.15
10.79
6.66
1.95
-2.99
-7.77
-12.17
-16.15
-19.84
-23.49
-27.34
-31.64
-36.56
-42.12
-48.07
-53.73
-57.99
-59.56
-57.36
-50.95
-40.75
-27.95
-14.09
-0.63
11.35
21.23
28.71
33.66
36.07
36.05
34.02
30.64
26.82
23.44
21.12
20.09
20.09
20.61
21.06
20.99
20.25
18.93
17.21
15.26
13.05
10.46
7.28
3.45
-0.86
-5.32
-9.50
-13.07
-15.96
-18.37
-20.66
-23.26
-26.48
-30.47
-35.10
-39.96
-44.32
-47.19
-47.54
-44.54
-37.86
-27.85
-15.51
-2.24
10.54
21.66
30.38
36.33
39.47
39.96
38.17
34.70
30.31
25.81
21.84
18.78
16.74
15.55
14.98
14.80
14.81
14.83
14.71
14.22
13.14
11.25
8.35
4.41
-0.47
-5.93
-11.44
-16.43
-20.47
-23.44
-25.65
-27.72
-30.33
-33.95
-38.49
-43.15
-46.57
-47.22
-43.89
-36.15
-24.55
-10.44
4.45
18.48
30.45
39.62
45.68
48.50
48.17
44.93
39.42
32.57
25.54
19.44
14.97
12.32
11.15
10.77
10.49
9.88
8.92
7.81
6.80
5.92
4.90
3.33
0.86
-2.59
-6.77
-11.23
-15.49
-19.19
-22.16
-24.49
-26.51
-28.72
-31.62
-35.52
-40.25
-45.04
-48.66
-49.77
-47.34
-41.04
-31.26
-19.06
-5.78
7.23
18.82
28.16
34.72
38.36
39.21
37.73
34.57
30.50
26.30
22.62
19.88
18.25
17.61
17.70
18.21
18.86
19.45
19.86
19.93
19.48
18.25
16.01
12.65
8.21
2.96
-2.66
-8.14
-13.11
-17.46
-21.46
-25.59
-30.39
-36.05
-42.29
-48.29
-52.87
-54.88
-53.49
-48.42
-39.99
-28.99
-16.51
-3.72
8.32
18.67
26.65
31.91
34.40
34.42
32.57
29.61
26.28
23.10
20.32
17.96
15.98
14.37
13.22
12.63
12.56
12.77
12.81
12.26
10.80
8.38
5.10
1.15
-3.32
-8.18
-13.27
-18.32
-22.99
-27.06
-30.54
-33.80
-37.35
-41.60
-46.44
-51.16
-54.49
-55.11
-52.02
-44.98
-34.54
-21.92
-8.55
4.20
15.26
23.95
29.88
32.94
33.29
31.36
27.81
23.44
19.01
15.10
12.05
9.93
8.62
7.95
7.69
7.62
7.49
7.07
6.12
4.52
2.23
-0.66
-3.94
-7.45
-10.99
-14.54
-18.08
-21.70
-25.56
-29.82
-34.64
-40.01
-45.68
-50.99
-55.00
-56.63
-54.99
-49.66
-40.90
-29.60
-17.04
-4.57
6.65
15.88
22.78
27.32
29.67
30.09
28.95
26.71
23.89
21.11
18.90
17.70
17.65
18.62
20.26
22.08
23.61
24.50
24.62
24.03
22.91
21.50
19.96
18.37
16.70
14.79
12.45
9.47
5.70
1.12
-4.07
-9.37
-13.95
-16.77
-16.78
-13.20
-5.79
4.98
18.05
31.94
45.22
56.74
65.78
72.11
75.71
76.74
75.43
72.17
67.50
62.14
56.85
52.31
48.94
46.83
45.80
45.42
45.15
44.37
42.57
39.34
34.48
28.06
20.32
11.71
2.78
-5.92
-13.86
-20.73
-26.52
-31.57
-36.39
-41.43
-46.70
-51.72
-55.48
-56.87
-55.01
-49.65
-41.18
-30.54
-18.94
-7.58
2.51
10.53
15.98
18.63
18.51
15.98
11.64
6.26
0.65
-4.59
-9.11
-12.76
-15.56
-17.49
-18.46
-18.38
-17.30
-15.54
-13.63
-12.08
-11.19
-10.84
-10.60
-10.02
-8.98
-7.85
-7.37
-8.36
-11.29
-16.01
-21.76
-27.31
-31.37
-32.96
-31.56
-27.19
-20.30
-11.57
-1.87
7.83
16.47
22.92
26.15
25.51
20.94
13.09
3.19
-7.24
-16.72
-24.18
-29.09
-31.47
-31.75
-30.62
-28.88
-27.31
-26.49
-26.85
-28.54
-31.49
-35.52
-40.30
-45.49
-50.72
-55.69
-60.17
-64.08
-67.47
-70.43
-72.89
-74.52
-74.60
-72.17
-66.33
-56.64
-43.39
-27.65
-11.06
4.56
17.66
27.29
33.15
35.48
34.89
32.09
27.88
23.08
18.56
15.20
13.66
14.19
16.55
19.96
23.42
26.00
27.12
26.64
24.80
21.97
18.50
14.59
10.33
5.74
0.84
-4.38
-10.03
-16.30
-23.20
-30.48
-37.36
-42.66
-45.03
-43.43
-37.52
-27.80
-15.54
-2.35
10.30
21.32
30.15
36.59
40.65
42.32
41.67
38.91
34.57
29.54
24.83
21.31
19.40
18.97
19.39
19.87
19.71
18.55
16.39
13.52
10.23
6.73
3.13
-0.64
-4.64
-8.97
-13.72
-19.02
-24.92
-31.34
-37.91
-43.93
-48.38
-50.21
-48.60
-43.26
-34.62
-23.70
-11.83
-0.38
9.59
17.36
22.55
24.97
24.60
21.59
16.41
9.82
2.88
-3.37
-8.15
-11.23
-12.98
-14.13
-15.51
-17.62
-20.48
-23.72
-26.79
-29.27
-31.07
-32.36
-33.47
-34.70
-36.17
-37.92
-39.97
-42.34
-44.92
-47.30
-48.69
-47.99
-44.10
-36.43
-25.10
-11.05
4.24
19.17
32.46
43.30
51.37
56.64
59.21
59.23
56.97
52.89
47.66
42.10
36.99
32.88
30.01
28.25
27.24
26.48
25.52
24.08
22.05
19.51
16.65
13.64
10.56
7.39
3.92
-0.14
-5.06
-10.93
-17.59
-24.39
-30.27
-33.93
-34.17
-30.27
-22.24
-10.89
2.40
16.11
28.91
39.84
48.34
54.08
56.88
56.76
54.00
49.21
43.35
37.49
32.55
29.04
26.97
25.94
25.36
24.67
23.47
21.60
18.98
15.66
11.72
7.29
2.54
-2.34
-7.26
-12.28
-17.66
-23.72
-30.57
-37.91
-44.86
-50.16
-52.49
-50.92
-45.21
-35.86
-23.96
-10.84
2.22
14.16
24.25
32.04
37.32
40.13
40.78
39.74
37.63
35.10
32.71
30.89
29.84
29.50
29.64
29.95
30.09
29.79
28.93
27.43
25.24
22.31
18.59
14.14
9.11
3.69
-1.94
-7.69
-13.66
-19.95
-26.53
-33.08
-38.90
-43.05
-44.55
-42.67
-37.17
-28.40
-17.25
-4.95
7.12
17.72
25.94
31.38
34.10
34.59
33.48
31.41
28.86
26.10
23.28
20.54
18.07
16.08
14.78
14.17
14.07
14.02
13.47
11.97
9.27
5.47
0.98
-3.70
-8.10
-11.97
-15.33
-18.42
-21.61
-25.36
-30.02
-35.73
-42.15
-48.47
-53.40
-55.53
-53.78
-47.69
-37.71
-24.95
-10.90
2.97
15.49
25.81
33.35
37.82
39.16
37.68
34.04
29.16
24.00
19.36
15.69
13.12
11.54
10.78
10.65
10.99
11.58
12.12
12.27
11.66
10.05
7.40
3.87
-0.20
-4.43
-8.53
-12.38
-16.13
-20.14
-24.85
-30.58
-37.32
-44.56
-51.29
-56.21
-58.01
-55.78
-49.29
-39.01
-26.04
-11.76
2.43
15.37
26.21
34.46
39.88
42.53
42.76
41.15
38.49
35.52
32.85
30.74
29.17
27.87
26.51
24.87
22.89
20.63
18.12
15.33
12.14
8.42
4.25
-0.15
-4.40
-8.14
-11.21
-13.70
-15.85
-18.02
-20.56
-23.74
-27.76
-32.56
-37.73
-42.42
-45.42
-45.46
-41.66
-33.85
-22.68
-9.44
4.27
16.97
27.58
35.51
40.56
42.86
42.70
40.54
36.98
32.75
28.59
25.14
22.74
21.35
20.59
19.97
19.13
18.04
16.94
16.15
15.82
15.74
15.38
14.17
11.71
8.01
3.42
-1.46
-6.15
-10.36
-14.15
-17.79
-21.72
-26.33
-31.92
-38.58
-46.06
-53.70
-60.40
-64.77
-65.46
-61.56
-52.92
-40.31
-25.27
-9.65
4.82
16.93
26.07
32.17
35.48
36.40
35.33
32.74
29.22
25.49
22.29
20.20
19.44
19.81
20.77
21.70
22.19
22.25
22.25
22.71
23.86
25.45
26.64
26.42
24.00
19.20
12.59
5.18
-2.03
-8.36
-13.79
-18.65
-23.43
-28.45
-33.85
-39.63
-45.76
-52.13
-58.40
-63.84
-67.29
-67.44
-63.24
-54.39
-41.55
-26.09
-9.81
5.71
19.38
30.64
39.30
45.24
48.30
48.41
45.78
41.03
35.21
29.48
24.82
21.77
20.36
20.27
21.02
22.13
23.18
23.82
23.71
22.57
20.22
16.67
12.10
6.85
1.31
-4.16
-9.27
-13.83
-17.77
-21.02
-23.59
-25.58
-27.20
-28.80
-30.89
-33.92
-38.11
-43.22
-48.43
-52.46
-53.97
-51.95
-46.07
-36.78
-25.10
-12.32
0.43
12.22
22.38
30.36
35.69
38.09
37.63
34.83
30.58
25.92
21.73
18.50
16.32
14.98
14.19
13.74
13.54
13.52
13.56
13.45
12.88
11.57
9.29
5.99
1.80
-3.05
-8.19
-13.21
-17.78
-21.64
-24.72
-27.08
-28.96
-30.75
-32.90
-35.81
-39.66
-44.22
-48.70
-51.90
-52.51
-49.55
-42.76
-32.73
-20.70
-8.17
3.51
13.41
21.01
26.16
28.89
29.42
28.11
25.45
21.99
18.23
14.57
11.27
8.45
6.16
4.41
3.17
2.30
1.63
0.94
-0.02
-1.46
-3.56
-6.43
-10.04
-14.21
-18.66
-22.98
-26.88
-30.22
-33.13
