1552676862.00
64.000000
-0.00
-0.00
-0.00
-0.00
-0.00
-0.00
-0.00
-0.00
-0.00
-0.00
0.00
0.01
0.01
-0.00
-0.03
-0.05
-0.05
0.00
0.13
0.36
0.66
1.01
1.37
1.72
2.06
2.40
2.79
3.24
3.80
4.42
5.06
5.66
6.20
6.68
7.15
7.68
8.31
9.14
10.09
11.04
11.88
12.56
13.14
13.76
14.65
15.96
17.91
20.32
22.90
25.38
27.58
29.57
31.68
34.32
37.81
42.54
48.15
54.10
59.83
64.97
69.58
74.14
79.34
85.71
93.76
103.00
112.62
121.73
129.77
136.75
143.30
150.75
157.77
166.64
177.95
191.79
206.97
220.57
228.25
225.36
208.53
176.87
132.76
80.05
23.07
-34.94
-92.44
-149.16
-205.23
-260.37
-313.74
-363.87
-409.83
-450.91
-486.50
-515.74
-537.23
-549.22
-549.96
-538.37
-514.21
-478.67
-433.88
-382.45
-327.02
-269.84
-212.63
-156.66
-102.95
-52.37
-5.90
35.58
71.43
101.35
125.50
144.38
158.69
169.15
176.37
180.75
182.57
182.07
179.51
175.23
169.65
163.18
156.15
148.81
141.30
133.69
126.02
118.33
110.69
103.16
95.80
88.68
81.83
75.25
68.95
62.95
57.25
51.86
46.78
42.03
37.59
33.45
29.61
26.07
22.81
19.83
17.11
14.67
12.48
10.54
8.83
7.35
6.07
4.97
4.05
3.27
2.62
2.09
1.65
1.30
1.01
0.79
0.61
0.47
0.37
0.29
0.23
0.18
0.16
0.14
0.14
0.14
0.15
0.17
0.20
0.23
0.27
0.31
0.35
0.39
0.44
0.49
0.53
0.58
0.64
0.69
0.75
0.81
0.88
0.96
1.04
1.14
1.24
1.36
1.49
1.63
1.79
1.98
2.18
2.41
2.65
2.93
3.23
3.56
3.93
4.33
4.76
5.23
5.74
6.28
6.87
7.49
8.16
8.87
9.63
10.44
11.29
12.18
13.12
14.12
15.18
16.29
17.48
18.71
20.00
21.28
22.50
23.58
24.42
24.91
24.89
24.30
23.01
21.01
18.28
14.91
10.97
6.65
2.14
-2.35
-6.61
-10.43
-13.67
-16.21
-18.00
-19.06
-19.43
-19.25
-18.63
-17.70
-16.54
-15.22
-13.78
-12.26
-10.69
-9.06
-7.46
-5.91
-4.41
-2.97
-1.52
-0.01
1.60
3.33
5.23
7.15
9.02
10.83
12.63
14.51
16.60
18.94
21.59
24.56
27.49
30.18
32.57
34.73
36.87
39.20
41.91
44.99
48.43
51.59
54.09
55.81
56.85
57.57
58.35
59.42
60.80
62.38
63.18
62.47
59.83
55.12
48.28
39.19
27.30
11.21
-6.44
-25.29
-45.71
-68.54
-94.67
-124.20
-155.78
-186.29
-211.49
-227.13
-231.21
-223.95
-207.73
-186.14
-162.70
-140.01
-119.50
-101.78
-86.89
-75.17
-66.37
-59.71
-54.07
-48.49
-42.59
-36.71
-31.61
-27.77
-25.41
-23.80
-21.67
-17.72
-11.41
-3.05
6.32
15.48
23.51
29.97
34.98
38.85
41.70
43.39
43.75
42.89
41.33
39.88
39.19
39.54
40.67
41.96
42.83
42.99
42.56
41.88
41.26
40.83
40.43
39.84
38.89
37.55
35.91
34.15
32.32
30.39
28.34
26.20
24.06
22.00
20.02
18.00
15.79
13.35
10.73
8.16
5.78
3.61
1.49
-0.76
-3.26
-5.88
-8.47
-10.96
-13.54
-16.59
-20.47
-25.11
-29.88
-33.68
-35.35
-34.14
-30.01
-23.64
-16.23
-8.92
-2.53
2.67
6.81
10.22
13.08
15.36
16.85
17.39
17.09
16.43
16.06
16.48
17.84
19.78
21.68
23.02
23.61
23.70
23.78
24.24
25.16
26.23
26.98
27.00
26.18
24.72
22.98
21.23
19.49
17.61
15.29
12.36
8.86
5.15
1.74
-0.96
-2.80
-3.97
-4.93
-6.12
-7.80
-9.87
-12.04
-13.98
-15.59
-17.04
-18.74
-21.14
-24.49
-28.68
-33.27
-37.58
-40.83
-42.39
-41.81
-38.91
-33.81
-26.81
-18.37
-9.01
0.78
10.59
20.18
29.43
38.23
46.48
54.00
60.49
65.68
69.23
70.86
70.34
67.65
62.99
56.88
50.09
43.43
37.49
32.56
28.55
25.23
22.39
19.99
18.03
16.46
14.96
13.12
10.55
7.21
3.44
-0.18
-3.14
-5.28
-6.80
-8.15
-9.65
-11.37
-13.01
-14.24
-14.91
-15.23
-15.69
-16.75
-18.63
-21.12
-23.69
-25.76
-27.10
-27.90
-28.79
-30.48
-33.44
-37.62
-42.35
-46.54
-49.06
-49.17
-46.70
-42.08
-36.16
-29.82
-23.69
-18.03
-12.85
-8.07
-3.75
-0.14
2.51
4.05
4.69
4.90
5.25
6.12
7.53
9.22
10.79
12.05
13.12
14.36
16.09
18.32
20.68
22.54
23.35
22.92
21.55
19.76
18.09
16.71
15.43
13.93
12.00
9.80
7.74
6.26
5.49
5.14
4.65
3.56
1.68
-0.79
-3.44
-5.97
-8.26
-10.44
-12.67
-15.00
-17.37
-19.72
-22.15
-24.88
-28.16
-31.98
-35.96
-39.36
-41.29
-40.98
-38.10
-32.79
-25.67
-17.68
-9.84
-2.93
2.57
6.60
9.34
11.14
12.31
13.08
13.60
14.07
14.66
15.50
16.64
17.92
19.15
20.18
20.93
21.56
22.16
22.78
23.25
23.40
23.09
22.36
21.38
20.39
19.48
18.62
17.56
16.06
14.00
11.53
8.91
6.54
4.65
3.33
2.41
1.59
0.63
-0.61
-2.17
-3.93
-5.79
-7.64
-9.46
-11.28
-13.31
-15.79
-19.06
-23.22
-28.04
-32.82
-36.54
-38.20
-37.21
-33.69
-28.41
-22.44
-16.66
-11.51
-6.85
-2.34
2.17
6.46
9.92
11.98
12.46
11.76
10.71
10.19
10.68
12.08
13.87
15.47
16.57
17.26
17.87
18.69
19.72
20.68
21.16
20.84
19.71
18.00
16.10
14.36
12.92
11.66
10.33
8.68
6.57
4.06
1.40
-1.18
-3.54
-5.73
-7.98
-10.42
-13.00
-15.46
-17.42
-18.71
-19.52
-20.46
-22.44
-26.20
-31.99
-39.30
-46.88
-53.14
-56.63
-56.54
-52.92
-46.58
-38.74
-30.54
-22.80
-15.92
-10.04
-5.21
-1.51
0.97
2.24
2.50
2.16
1.71
1.68
2.54
4.53
7.73
11.93
16.79
21.80
26.45
30.16
32.47
33.00
31.69
28.85
25.22
21.82
19.55
18.86
19.56
20.96
22.23
22.72
22.29
21.10
19.36
17.17
14.43
11.05
7.23
3.49
0.56
-1.02
-1.23
-0.67
-0.35
-1.33
-4.22
-8.96
-14.83
-20.76
-25.74
-29.12
-30.68
-30.56
-28.98
-26.07
-21.67
-15.75
-8.46
-0.47
7.18
13.36
17.39
19.28
19.73
19.39
18.74
17.78
16.30
14.44
12.92
12.73
14.58
18.03
21.67
23.79
23.41
20.94
18.07
16.69
17.74
20.35
22.53
22.28
18.87
13.37
8.00
4.81
4.62
6.17
7.34
6.21
2.33
-3.00
-7.58
-9.61
-8.69
-6.48
-5.37
-7.22
-12.25
-18.84
-24.51
-27.45
-27.46
-26.32
-26.43
-29.30
-34.45
-39.60
-41.78
-39.08
-31.53
-21.29
-11.29
-3.84
0.36
2.17
3.18
4.64
6.96
9.52
11.47
12.30
12.18
11.81
11.93
12.91
14.72
16.84
18.72
20.04
20.77
21.13
21.35
21.51
21.56
21.25
20.33
18.63
16.17
13.12
9.82
6.63
3.85
1.64
-0.09
-1.59
-3.25
-5.33
-7.87
-10.63
-13.21
-15.27
-16.81
-18.18
-20.04
-22.92
-26.95
-31.54
-35.56
-37.72
-37.09
-33.53
-27.69
-20.77
-13.96
-8.06
-3.24
0.76
4.31
7.53
10.22
12.00
12.60
12.17
11.23
10.52
10.54
11.41
12.76
14.05
14.89
15.28
15.56
16.11
17.11
18.30
19.15
19.07
17.79
15.46
12.61
9.85
7.58
5.87
4.39
2.78
0.70
-1.84
-4.62
-7.26
-9.50
-11.29
-12.87
-14.54
-16.62
-19.29
-22.56
-26.38
-30.66
-35.25
-39.86
-44.09
-47.35
-49.08
-48.77
-46.21
-41.56
-35.35
-28.40
-21.63
-15.85
-11.58
-8.96
-7.87
-7.98
-8.90
-10.20
-11.38
-11.89
-11.19
-8.96
-5.31
-0.88
3.25
5.86
6.19
4.32
1.29
-1.13
-1.11
2.57
10.07
20.52
32.40
44.19
54.79
63.72
70.85
76.10
79.21
79.74
77.39
72.35
65.40
57.75
50.51
44.31
39.07
34.13
28.72
22.36
14.99
6.84
-1.83
-10.93
-20.46
-30.19
-39.50
-47.31
-52.45
-54.07
-52.05
-47.06
-40.26
-32.94
-26.08
-20.19
-15.32
-11.19
-7.53
-4.20
-1.31
0.90
2.24
2.77
2.87
3.14
4.13
6.07
8.79
11.82
14.55
16.59
17.85
18.50
18.84
19.02
18.98
18.51
17.42
15.71
13.58
11.44
9.62
8.21
7.06
5.79
4.04
1.67
-1.13
-3.97
-6.40
-8.16
-9.25
-9.96
-10.74
-12.09
-14.35
-17.63
-21.82
-26.54
-31.21
-35.15
-37.67
-38.16
-36.29
-32.07
-25.91
-18.57
-10.94
-3.89
1.97
6.36
9.36
11.30
12.51
13.31
13.81
14.01
13.89
13.48
13.02
12.89
13.48
14.93
17.04
19.30
21.13
22.14
22.33
21.97
21.40
20.75
19.84
18.37
16.23
13.62
11.08
9.14
8.04
7.56
7.14
6.20
4.47
2.05
-0.68
-3.28
-5.50
-7.34
-8.96
-10.69
-12.76
-15.43
-18.79
-22.81
-27.23
-31.52
-34.96
-36.81
-36.44
-33.65
-28.63
-22.08
-14.91
-8.02
-2.07
2.65
6.24
8.94
11.03
12.59
13.56
13.84
13.45
12.60
11.72
11.20
11.28
11.90
12.81
13.72
14.50
15.11
15.61
15.97
16.07
15.71
14.72
13.12
11.11
8.98
7.02
5.34
3.97
2.78
1.64
0.40
-1.03
-2.78
-4.82
-7.07
-9.39
-11.60
-13.69
-15.83
-18.37
-21.70
-25.99
-30.94
-35.74
-39.28
-40.49
-38.82
-34.38
-27.94
-20.60
-13.33
-6.75
-1.01
3.96
8.20
11.56
13.76
14.63
14.27
13.22
12.20
11.85
12.44
13.78
15.35
16.60
17.22
17.29
17.23
17.46
18.18
19.23
20.10
20.22
19.20
17.08
14.28
11.41
9.01
7.21
5.79
4.28
2.29
-0.25
-3.00
-5.47
-7.25
-8.25
-8.80
-9.43
-10.67
-12.77
-15.74
-19.37
-23.36
-27.43
-31.24
-34.30
-35.98
-35.66
-32.94
-27.87
-21.08
-13.57
-6.46
-0.59
3.71
6.54
8.33
9.52
10.40
10.98
11.18
10.95
10.42
9.96
9.95
10.65
12.03
13.80
15.51
16.83
17.63
18.02
18.19
18.21
18.00
17.39
16.18
14.40
12.25
10.11
8.26
6.82
5.56
4.03
1.77
-1.49
-5.59
-9.94
-13.84
-16.67
-18.20
-18.77
-19.03
-19.68
-21.21
-23.69
-26.98
-30.76
-34.61
-37.97
-40.21
-40.60
-38.58
-33.94
-26.95
-18.43
-9.45
-1.14
5.57
10.18
12.65
13.52
13.41
13.05
12.76
12.47
11.86
10.66
8.96
7.30
6.06
5.51
5.53
5.79
6.16
6.75
7.71
8.87
9.38
8.14
4.44
-1.37
-7.82
-12.86
-15.02
-14.20
-11.98
-10.54
-11.53
-15.06
-19.60
-22.96
-23.64
-21.57
-18.55
-16.93
-18.39
-23.02
-29.22
-34.64
-37.36
-36.69
-33.51
-29.29
-25.20
-21.42
-17.20
-11.51
-3.85
5.39
14.81
22.81
28.27
30.96
31.47
30.80
29.88
29.33
29.25
29.48
29.80
30.08
30.32
30.66
31.24
32.26
33.67
35.20
36.43
36.81
35.98
33.94
31.08
28.07
25.44
23.44
21.82
20.05
17.61
14.28
10.29
6.27
2.86
0.43
-1.16
-2.48
-4.24
-6.92
-10.62
-15.02
-19.64
-24.08
-28.04
-31.34
-33.67
-34.57
-33.50
-30.13
-24.55
-17.38
-9.61
-2.29
3.79
8.26
11.13
12.70
13.29
13.20
12.65
11.83
10.92
10.18
9.87
10.25
11.38
13.13
15.13
16.90
18.04
18.34
17.88
16.95
15.83
14.62
13.21
11.30
8.65
5.28
1.47
-2.25
-5.42
-7.84
-9.70
-11.52
-13.87
-17.11
-21.21
-25.73
-30.06
-33.72
-36.57
-38.92
-41.37
-44.57
-48.96
-54.45
-60.41
-65.82
-69.56
-70.75
-69.01
-64.53
-57.86
-49.62
-40.36
-30.47
-20.37
-10.65
-2.09
4.53
8.89
11.33
12.74
14.04
15.56
16.73
16.46
13.98
9.53
4.52
0.76
-0.73
-0.47
-0.54
-3.34
-10.28
-20.84
-32.83
-43.58
-51.37
-56.09
-58.87
-60.93
-62.47
-62.26
-58.08
-47.91
-30.95
-7.96
19.00
47.61
76.15
104.06
131.79
160.09
189.42
219.54
249.70
278.96
306.47
331.32
352.15
366.98
373.47
369.68
354.93
330.28
298.31
262.21
224.92
188.33
153.17
119.33
86.54
54.93
25.24
-1.36
-23.71
-41.19
-54.08
-63.20
-69.19
-71.87
-70.37
-64.08
-54.21
-44.45
-40.18
-46.27
-64.51
-92.11
-122.52
-148.00
-162.91
-165.83
-159.58
-149.15
-138.98
-130.99
-124.42
-117.17
-107.54
-95.44
-82.54
-71.74
-66.37
-69.72
-84.49
-112.04
-151.26
-197.69
-243.56
-279.70
-298.50
-297.01
-278.18
-249.68
-220.80
-198.87
-187.00
-184.00
-185.98
-188.54
-188.47
-184.44
-176.72
-166.43
-154.68
-141.90
-127.38
-109.24
-84.82
-51.58
-8.14
44.69
103.21
161.03
209.98
242.08
251.96
239.00
208.32
169.66
134.66
113.05
109.76
123.94
150.06
180.47
207.87
226.86
234.25
228.73
210.58
181.78
146.04
108.56
74.82
49.12
33.33
26.50
25.51
26.52
26.24
22.75
15.66
5.59
-6.48
-19.60
-33.06
-46.24
-58.43
-68.74
-76.04
-79.18
-77.18
-69.44
-56.14
-38.30
-17.86
2.79
21.17
35.45
44.71
48.97
48.84
45.24
39.08
31.30
23.01
15.36
9.34
5.42
3.38
2.50
1.78
0.52
-1.55
-4.17
-6.85
-9.00
-10.12
-9.77
-7.71
-3.89
1.57
8.36
16.25
25.06
34.70
44.85
54.82
63.56
69.83
72.61
71.43
66.53
58.73
49.26
39.38
30.17
22.41
16.56
12.84
11.20
11.34
12.72
14.45
15.38
14.39
10.66
4.09
-4.60
-14.06
-22.82
-29.82
-34.80
-38.26
-41.25
-44.89
-49.94
-56.59
-64.42
-72.57
-79.99
-85.75
-89.29
-90.55
-90.04
-88.72
-87.89
-88.76
-92.18
-98.22
-106.14
-114.55
-121.90
-127.07
-129.66
-129.95
-128.61
-126.17
-122.85
-118.46
-112.65
-105.08
-95.56
-84.07
-70.76
-55.87
-39.77
-22.93
-5.74
11.31
27.64
42.34
54.21
62.03
65.08
63.58
58.78
52.55
46.61
41.97
38.74
36.50
34.85
33.64
33.01
32.89
32.90
32.36
30.77
28.26
25.55
23.77
23.68
25.29
27.77
29.88
30.56
29.36
26.54
22.77
18.79
15.06
11.89
9.47
8.12
8.21
9.97
13.32
17.73
22.41
26.61
29.93
32.46
34.57
36.54
38.29
39.35
39.11
37.39
34.68
32.19
31.08
32.01
34.57
37.33
38.61
37.33
33.55
28.51
23.85
20.98
20.59
22.73
27.13
33.65
42.14
52.13
62.33
70.78
75.49
75.26
70.31
62.28
53.57
46.45
42.21
41.01
42.20
44.90
48.44
52.00
55.02
57.45
59.24
60.59
61.14
60.55
58.90
56.51
53.46
49.91
45.98
41.79
37.53
32.88
27.76
22.64
18.33
14.60
11.17
8.29
6.63
7.44
10.41
14.79
19.42
22.67
19.40
6.11
-16.86
-45.52
-73.02
-96.40
-114.18
-125.69
-131.76
-140.57
-158.18
-184.88
-215.77
-241.56
-261.39
-276.31
-287.31
-296.09
-314.52
-350.21
-401.25
-457.76
-503.73
-537.47
-561.55
-578.87
-593.82
-623.86
-680.53
-762.30
-856.11
-939.58
-1008.10
-1062.27
-1103.55
-1046.68
-854.21
-558.14
-238.74
-11.31
136.56
229.75
285.68
327.31
361.93
379.70
374.73
352.36
326.85
318.61
327.67
347.33
370.39
389.33
389.90
365.67
322.17
273.73
239.59
222.36
218.25
222.17
228.25
226.70
212.41
187.29
158.39
135.91
120.58
110.43
103.89
99.39
93.36
83.89
71.79
59.92
52.68
50.04
50.82
54.07
58.80
63.35
66.79
69.30
72.08
77.01
84.42
94.10
105.66
118.43
131.91
145.72
159.76
174.15
189.17
205.27
223.07
243.38
266.99
293.89
322.68
350.25
372.31
384.92
385.92
375.84
357.54
334.73
310.41
285.88
261.05
235.56
209.78
185.10
163.27
145.26
130.71
118.12
105.86
93.22
80.76
69.88
61.87
56.88
53.76
50.53
45.40
37.63
27.65
16.65
5.78
-4.37
-13.85
-22.87
-31.39
-38.87
-44.65
-48.39
-50.32
-51.26
-52.02
-53.04
-54.12
-54.57
-53.75
-51.48
-48.19
-44.72
-41.81
-39.73
-38.14
-36.15
-33.04
-28.55
-23.08
-17.61
-13.11
-10.10
-8.45
-7.52
-6.64
-5.63
-4.91
-5.30
-7.43
-11.29
-16.06
-20.30
-22.67
-22.46
-20.04
-16.66
-13.94
-13.12
-14.50
-17.34
-20.25
-21.94
-21.79
-20.11
-17.81
-15.82
-14.58
-13.75
-12.67
-10.82
-8.19
-5.36
-3.08
-1.75
-1.11
-0.22
1.90
5.77
11.14
16.97
22.05
25.51
27.35
28.36
29.62
31.93
35.31
39.02
41.97
43.36
43.17
42.29
42.02
43.62
47.70
54.05
61.81
69.99
77.94
85.61
93.37
101.44
109.53
116.66
121.58
123.40
122.02
118.30
113.51
108.66
104.08
99.33
93.76
86.99
79.24
71.34
64.27
58.62
54.34
50.72
46.61
40.78
32.20
20.20
4.44
-15.21
-38.49
-64.74
-92.53
-119.78
-144.11
-163.50
-177.15
-185.64
-190.67
-194.16
-197.39
-200.45
-202.56
-202.81
-201.04
-198.25
-196.14
-196.28
-199.16
-203.99
-209.08
-212.81
-214.46
-214.53
-214.36
-215.40
-218.23
-222.40
-226.62
-229.53
-230.40
-229.46
-227.63
-225.94
-224.80
-223.66
-221.19
-215.76
-206.22
-192.48
-175.62
-157.60
-140.51
-126.01
-114.84
-106.83
-100.92
-95.57
-89.03
-79.71
-66.35
-48.40
-26.23
-1.43
23.42
45.39
62.18
73.06
79.53
84.80
92.61
105.61
124.03
145.42
165.29
178.69
181.99
174.02
156.30
132.38
106.48
82.35
62.33
46.96
35.38
25.85
16.82
7.63
-1.21
-8.35
-12.54
-13.63
-12.92
-12.65
-14.71
-19.49
-25.49
-30.22
-31.75
-30.16
-27.49
-26.53
-28.98
-34.21
-39.57
-41.84
-39.10
-31.68
-21.58
-11.06
-1.17
8.92
21.04
36.76
56.13
77.36
97.68
114.65
127.24
136.23
143.28
149.89
156.39
161.84
164.65
163.58
158.53
150.55
141.32
132.25
124.05
116.65
109.64
102.80
96.38
90.94
86.84
83.85
81.15
77.57
72.21
64.95
56.50
48.27
41.64
37.39
35.43
34.87
34.53
33.57
31.87
30.03
28.89
29.01
30.29
32.11
33.69
34.60
35.17
36.32
39.02
43.75
50.10
56.83
62.47
65.90
66.83
65.71
63.27
59.96
55.60
49.64
41.58
31.57
20.65
10.45
2.46
-2.71
-5.68
-8.13
-11.97
-18.48
-27.80
-39.00
-50.68
-61.62
-71.08
-78.52
-83.15
-83.60
-78.09
-65.25
-44.99
-18.97
9.53
36.42
57.74
70.49
73.03
65.14
47.82
23.04
-6.56
-37.84
-67.40
-91.80
-107.77
-113.20
-107.61
-92.82
-72.81
-52.55
-36.52
-27.14
-24.26
-26.02
-29.84
-33.68
-36.38
-37.28
-35.78
-31.23
-23.42
-13.37
-3.14
4.95
9.42
10.52
10.02
10.06
11.83
14.75
17.07
16.96
13.80
8.48
2.93
-1.18
-3.09
-3.88
-5.28
-8.82
-14.90
-22.44
-29.37
-33.71
-34.31
-31.79
-27.72
-23.87
-21.23
-19.59
-17.93
-15.37
-11.81
-8.71
-7.98
-11.03
-17.66
-25.81
-32.41
-34.83
-32.07
-25.69
-18.61
-13.73
-12.42
-13.91
-16.01
-16.51
-14.46
-10.87
-7.85
-7.11
-8.90
-11.80
-13.61
-12.72
-8.91
-3.59
1.25
4.21
5.06
4.67
4.25
4.55
5.72
7.13
8.14
8.42
8.06
7.44
6.97
6.84
7.21
7.83
8.45
8.71
8.32
7.19
5.53
3.84
2.87
3.28
5.36
8.83
12.93
16.69
19.38
20.97
22.10
23.78
26.81
31.36
37.01
43.25
50.14
58.89
71.65
90.60
116.71
148.71
182.91
214.01
236.74
247.47
245.48
232.76
213.00
189.96
166.06
141.92
116.64
88.74
57.02
20.94
-19.19
-62.26
-106.17
-147.79
-183.37
-209.37
-223.58
-226.00
-218.86
-205.70
-190.08
-174.36
-159.38
-144.73
-129.74
-114.28
-99.09
-85.55
-74.99
-68.01
-64.24
-62.44
-60.98
-58.68
-55.10
-50.41
-44.77
-37.76
-28.24
-15.07
1.87
20.92
38.79
51.65
56.68
53.23
43.01
29.35
15.85
5.15
-1.72
-5.01
-5.57
-4.20
-1.20
3.36
9.36
16.00
21.83
24.93
23.46
16.65
5.04
-9.44
-23.92
-35.69
-42.97
-45.29
-43.47
-39.04
-33.67
-28.73
-25.08
-23.20
-23.38
-25.84
-30.75
-37.97
-46.89
-56.21
-64.12
-68.86
-69.16
-64.90
-57.12
-47.38
-36.83
-25.42
-11.77
5.85
28.09
53.25
76.90
93.06
96.25
83.78
57.14
21.61
-15.35
-46.51
-66.92
-74.81
-71.31
-59.36
-42.32
-23.23
-4.43
12.50
26.54
37.33
45.26
51.51
57.86
65.83
75.87
86.57
94.42
94.83
84.01
61.00
28.87
-6.09
-36.73
-57.83
-68.12
-70.02
-67.88
-65.54
-64.63
-64.71
-64.40
-62.74
-59.78
-56.17
-52.47
-48.69
-44.68
-40.52
-36.81
-34.26
-33.02
-32.45
-31.34
-28.64
-24.16
-18.75
-13.96
-11.29
-11.78
-15.70
-22.77
-32.43
-43.84
-55.91
-67.19
-76.05
-81.09
-81.64
-77.95
-71.19
-63.06
-55.19
-48.74
-44.23
-41.63
-40.78
-41.58
-44.07
-48.30
-54.02
-60.55
-66.89
-71.98
-74.91
-75.17
-72.57
-67.11
-59.01
-48.75
-37.08
-25.08
-13.87
-4.29
3.39
9.49
14.62
19.37
23.94
28.11
31.30
32.76
31.81
28.01
21.27
12.01
1.17
-9.87
-19.62
-26.82
-30.73
-31.21
-28.63
-23.56
-16.67
-8.60
0.07
8.63
16.38
22.73
27.42
30.53
32.55
34.07
35.70
37.76
40.25
42.83
44.95
46.08
45.95
44.58
42.45
40.17
38.35
37.29
36.91
36.76
36.29
34.91
32.34
28.54
23.74
18.28
12.53
6.82
1.37
-3.67
-8.20
-12.30
-16.16
-20.13
-24.45
-29.11
-33.55
-36.81
-37.70
-35.33
-29.44
-20.60
-9.97
1.06
11.33
20.01
26.73
31.35
33.92
34.74
34.27
33.13
31.96
31.13
30.73
30.61
30.62
30.74
31.13
31.99
33.31
34.79
35.90
36.11
35.14
33.09
30.31
27.18
23.89
20.39
16.48
11.98
6.90
1.42
-4.34
-10.38
-16.94
-24.20
-31.97
-39.42
-45.08
-47.30
-44.87
-37.56
-26.35
-13.05
0.32
12.25
22.02
29.71
35.72
40.31
43.52
45.15
45.14
43.84
42.00
40.56
40.20
41.07
42.75
44.51
45.69
46.03
45.70
45.13
44.65
44.26
43.53
41.83
38.68
33.99
28.22
22.18
16.70
12.18
8.44
4.80
0.37
-5.50
-12.97
-21.58
-30.39
-38.19
-43.81
-46.25
-44.97
-39.94
-31.70
-21.22
-9.76
1.48
11.56
19.96
26.55
31.39
34.72
36.78
37.84
38.25
38.46
38.91
39.97
41.84
44.42
47.38
50.24
52.57
54.11
54.83
54.89
54.44
53.55
52.07
49.77
46.39
41.83
36.23
29.96
23.54
17.54
12.32
7.92
3.97
-0.23
-5.51
-12.54
-21.53
-31.85
-42.27
-51.09
-56.70
-58.07
-54.92
-47.73
-37.45
-25.23
-12.46
-0.41
9.82
17.61
23.01
26.75
29.84
33.08
36.48
39.44
41.23
41.62
41.25
41.40
43.19
46.92
51.60
55.58
57.39
56.56
53.84
50.77
48.65
47.96
47.75
46.53
43.05
37.10
29.74
22.72
17.45
14.30
12.16
9.36
4.54
-2.44
-10.47
-17.91
-23.69
-27.92
-32.05
-37.70
-45.48
-54.26
-61.42
-64.03
-60.27
-50.23
-36.04
-20.72
-6.86
4.21
12.64
19.36
25.24
30.62
35.05
37.93
39.02
38.71
37.97
37.80
38.80
40.93
43.62
46.11
47.85
48.68
48.83
48.59
48.17
47.54
46.47
44.71
42.10
38.68
34.67
30.35
26.02
21.93
18.17
14.66
11.21
7.54
3.46
-1.01
-5.69
-10.25
-14.49
-18.44
-22.51
-27.37
-33.62
-41.42
-50.21
-58.66
-64.97
-67.44
-65.10
-58.03
-47.31
-34.64
-21.66
-9.56
1.11
10.24
17.83
23.74
27.75
29.70
29.81
28.71
27.30
26.42
26.58
27.78
29.62
31.54
33.09
34.15
34.82
35.28
35.55
35.45
34.66
32.89
30.14
26.69
23.01
19.50
16.34
13.38
10.31
6.82
2.84
-1.44
-5.67
-9.53
-12.92
-16.05
-19.37
-23.40
-28.57
-35.00
-42.37
-49.91
-56.52
-60.95
-62.07
-59.18
-52.21
-41.77
-29.06
-15.55
-2.65
8.53
17.34
23.52
27.14
28.54
28.27
27.02
25.53
24.42
24.05
24.53
25.73
27.51
29.66
32.02
34.35
36.28
37.42
37.40
36.09
33.64
30.42
26.82
23.14
19.47
15.71
11.68
7.29
2.61
-2.16
-6.76
-11.03
-14.96
-18.71
-22.53
-26.63
-31.20
-36.44
-42.46
-49.31
-56.75
-64.09
-70.16
-73.55
-72.93
-67.62
-57.83
-44.73
-30.08
-15.72
-3.10
7.08
14.75
20.31
24.22
26.82
28.28
28.71
28.37
27.69
27.26
27.57
28.79
30.70
32.77
34.37
35.11
34.89
33.96
32.58
30.91
28.89
26.25
22.85
18.76
14.37
10.26
6.88
4.35
2.35
0.30
-2.36
-5.93
-10.25
-14.77
-18.90
-22.28
-25.00
-27.60
-30.87
-35.52
-41.87
-49.58
-57.70
-64.84
-69.52
-70.54
-67.33
-60.07
-49.59
-37.09
-23.90
-11.18
0.19
9.63
16.83
21.70
24.43
25.44
25.40
25.04
25.03
25.81
27.44
29.72
32.25
34.70
36.85
38.62
40.02
40.99
41.38
41.00
39.69
37.44
34.42
30.87
27.02
23.00
18.88
14.71
10.57
6.51
2.55
-1.43
-5.57
-9.98
-14.57
-19.04
-23.04
-26.36
-29.09
-31.67
-34.72
-38.86
-44.40
-51.19
-58.59
-65.52
-70.65
-72.69
-70.76
-64.64
-54.79
-42.33
-28.70
-15.32
-3.31
6.65
14.31
19.78
23.36
25.42
26.39
26.61
26.45
26.27
26.46
27.29
28.92
31.21
33.74
35.92
37.24
37.52
36.96
36.02
35.13
34.41
33.64
32.30
30.00
26.65
22.62
18.50
14.84
11.81
9.22
6.58
3.42
-0.47
-4.99
-9.80
-14.50
-18.85
-22.74
-26.26
-29.63
-33.15
-37.23
-42.28
-48.51
-55.66
-62.84
-68.61
-71.38
-69.93
-63.88
-53.83
-41.15
-27.49
-14.33
-2.68
6.97
14.45
19.75
22.95
24.23
23.98
22.84
21.59
20.98
21.43
22.94
25.08
27.24
28.94
30.03
30.75
31.46
32.40
33.39
33.93
33.40
31.42
28.07
23.94
19.78
16.19
13.43
11.27
9.19
6.70
3.50
-0.36
-4.56
-8.71
-12.50
-15.90
-19.10
-22.37
-26.00
-30.15
-34.90
-40.27
-46.18
-52.32
-57.98
-62.06
-63.23
-60.46
-53.43
-42.79
-29.99
-16.87
-4.97
4.76
12.12
17.41
21.09
23.45
24.60
24.56
23.51
21.87
20.31
19.47
19.76
21.15
23.24
25.44
27.26
28.47
29.09
29.25
28.98
28.11
26.42
23.71
20.09
15.94
11.79
8.10
5.02
2.39
-0.23
-3.28
-7.00
-11.28
-15.73
-19.87
-23.32
-26.10
-28.58
-31.40
-35.26
-40.58
-47.29
-54.88
-62.26
-68.16
-71.32
-70.77
-66.10
-57.53
-45.97
-32.79
-19.57
-7.66
2.07
9.36
14.49
18.02
20.56
22.54
24.18
25.53
26.56
27.36
28.09
29.01
30.34
32.03
33.82
35.32
36.13
36.12
35.45
34.39
33.16
31.39
28.51
24.05
18.03
11.29
5.13
0.74
-1.52
-2.43
-3.45
-5.90
-10.24
-15.77
-21.03
-24.73
-26.44
-27.09
-28.27
-31.48
-37.29
-44.99
-53.01
-59.71
-63.93
-65.55
-64.86
-62.19
-57.41
-50.03
-39.71
-26.78
-12.44
1.33
12.60
20.19
24.06
25.19
25.01
24.73
24.98
25.68
26.44
26.96
27.26
27.66
28.48
29.78
31.41
32.89
33.78
33.81
32.96
31.38
29.34
27.06
24.76
22.51
20.34
18.18
15.88
13.26
10.18
6.62
2.72
-1.29
-5.19
-8.84
-12.28
-15.62
-19.04
-22.65
-26.50
-30.65
-35.20
-40.30
-46.01
-52.05
-57.68
-61.67
-62.65
-59.58
-52.27
-41.50
-28.85
-16.14
-4.89
4.10
10.77
15.47
18.68
20.69
21.58
21.39
20.35
18.92
17.68
17.21
17.75
19.23
21.25
23.36
25.12
26.30
26.84
26.73
26.06
24.84
23.07
20.78
18.07
15.11
12.10
9.23
6.54
3.93
1.20
-1.82
-5.18
-8.73
-12.19
-15.28
-17.96
-20.44
-23.26
-26.99
-32.03
-38.28
-44.96
-50.79
-54.30
-54.33
-50.41
-42.91
-32.91
-21.81
-10.88
-1.04
7.23
13.76
18.47
21.37
22.52
22.14
20.72
18.88
17.26
16.30
16.20
16.80
17.78
18.76
19.50
19.89
19.95
19.78
19.35
18.60
17.40
15.66
13.37
10.57
7.43
4.08
0.66
-2.70
-5.92
-8.94
-11.73
-14.35
-16.99
-19.99
-23.75
-28.57
-34.40
-40.68
-46.29
-49.85
-50.16
-46.63
-39.52
-29.82
-18.90
-8.07
1.78
10.16
16.88
21.83
24.91
26.07
25.50
23.69
21.36
19.29
17.99
17.66
18.09
18.87
19.55
19.82
19.59
18.93
18.04
17.09
16.09
14.91
13.29
10.98
7.89
4.09
-0.16
-4.54
-8.85
-12.95
-16.86
-20.60
-24.19
-27.73
-31.39
-35.52
-40.41
-46.10
-52.14
-57.52
-60.82
-60.73
-56.48
-48.19
-36.92
-24.28
-11.93
-1.11
7.65
14.37
19.37
22.93
25.13
25.94
25.43
23.99
22.32
21.21
21.17
22.24
23.93
25.46
26.11
25.56
23.97
21.79
19.55
17.52
15.64
13.59
11.01
7.71
3.82
-0.34
-4.34
-7.89
-10.91
-13.52
-15.96
-18.40
-20.99
-23.85
-27.17
-31.23
-36.22
-42.09
-48.20
-53.41
-56.22
-55.34
-50.17
-41.14
-29.60
-17.35
-6.06
3.23
10.24
15.29
18.80
21.07
22.17
22.12
21.13
19.72
18.56
18.18
18.79
20.23
22.10
24.05
25.86
27.47
28.83
29.77
29.99
29.23
27.39
24.62
21.29
17.81
14.47
11.34
8.30
5.17
1.80
-1.82
-5.60
-9.37
-13.05
-16.63
-20.20
-23.94
-28.05
-32.71
-38.02
-43.82
-49.61
-54.47
-57.25
-56.79
-52.44
-44.24
-33.10
-20.44
-7.86
3.39
12.61
19.65
24.69
28.05
29.99
30.75
30.60
29.99
29.38
29.23
29.76
30.91
32.39
33.82
34.93
35.62
35.93
35.88
35.39
34.25
32.25
29.30
25.62
21.63
17.79
14.37
11.36
8.49
5.45
2.02
-1.76
-5.66
-9.40
-12.77
-15.76
-18.52
-21.27
-24.29
-27.80
-32.06
-37.19
-43.14
-49.53
-55.54
-59.97
-61.52
-59.19
-52.64
-42.44
-29.91
-16.76
-4.56
5.64
13.48
19.11
22.91
25.22
26.25
26.16
25.21
23.85
22.67
22.20
22.74
24.19
26.13
27.99
29.30
29.84
29.68
29.03
28.12
26.99
25.55
23.65
21.21
18.31
15.22
12.18
9.35
6.71
4.06
1.17
-2.11
-5.77
-9.56
-13.10
-16.06
-18.34
-20.20
-22.19
-25.06
-29.33
-35.11
-41.88
-48.59
-53.84
-56.38
-55.33
-50.50
-42.32
-31.74
-19.96
-8.22
2.44
11.24
17.75
21.91
23.97
24.40
23.81
22.77
21.79
21.18
21.08
21.51
22.41
23.65
25.10
26.61
27.97
28.94
29.26
28.71
27.19
24.84
21.92
18.81
15.80
13.02
10.39
7.72
4.85
1.68
-1.90
-5.94
-10.42
-15.20
-19.90
-24.01
-27.11
-29.07
-30.43
-32.10
-35.06
-39.79
-45.89
-52.00
-56.29
-57.12
-53.72
-46.46
-36.61
-25.79
-15.31
-5.89
2.34
9.59
15.74
20.50
23.39
24.17
23.11
21.03
18.98
17.82
17.71
18.27
18.87
19.09
19.05
19.27
20.27
22.15
24.11
25.00
23.86
20.57
16.02
11.64
8.60
7.09
6.16
4.37
0.66
-4.97
-11.41
-17.13
-21.05
-23.04
-24.13
-25.80
-29.23
-34.71
-41.53
-48.33
-53.62
-56.22
-55.57
-51.68
-44.97
-36.09
-25.87
-15.16
-4.78
4.67
12.61
18.68
22.69
24.65
24.82
23.68
21.96
20.41
19.64
19.85
20.88
22.28
23.54
24.35
24.70
24.77
24.76
24.69
24.32
23.30
21.34
18.44
14.89
11.15
7.62
4.46
1.53
-1.45
-4.70
-8.28
-11.97
-15.46
-18.46
-20.96
-23.21
-25.71
-29.02
-33.54
-39.30
-45.81
-52.11
-56.94
-59.08
-57.71
-52.63
-44.35
-33.92
-22.58
-11.52
-1.60
6.64
12.96
17.30
19.79
20.70
20.50
19.74
18.97
18.53
18.53
18.85
19.27
19.64
19.93
20.24
20.66
21.16
21.52
21.40
20.48
18.59
15.86
12.68
9.51
6.73
4.45
2.54
0.69
-1.36
-3.72
-6.35
-9.10
-11.89
-14.68
-17.48
-20.31
-23.10
-25.84
-28.66
-31.86
-35.81
-40.64
-46.06
-51.14
-54.60
-55.06
-51.68
-44.45
-34.25
-22.53
-10.83
-0.33
8.41
15.30
20.50
24.17
26.38
27.16
26.69
25.38
23.80
22.49
21.83
21.91
22.56
23.51
24.53
25.48
26.29
26.93
27.32
27.28
26.62
25.18
22.96
20.13
17.01
13.95
11.15
8.57
5.95
2.91
-0.82
-5.23
-10.00
-14.63
-18.64
-21.86
-24.48
-27.02
-30.19
-34.56
-40.37
-47.28
-54.35
-60.22
-63.44
-62.88
-58.08
-49.45
-38.10
-25.54
-13.23
-2.30
6.62
13.31
17.82
20.37
21.32
21.17
20.51
19.90
19.72
20.10
20.88
21.82
22.74
23.63
24.65
25.90
27.36
28.69
29.45
29.23
27.88
25.58
22.71
19.70
16.76
13.91
10.98
7.75
4.15
0.23
-3.82
-7.81
-11.60
-15.17
-18.52
-21.74
-24.94
-28.35
-32.24
-36.98
-42.69
-49.12
-55.47
-60.46
-62.65
-60.88
-54.75
-44.79
-32.41
-19.38
-7.37
2.57
10.07
15.40
19.08
21.61
23.29
24.25
24.62
24.65
24.75
25.32
26.59
28.47
30.65
32.68
34.15
34.87
34.82
34.06
32.66
30.66
28.11
25.02
21.50
17.63
13.51
9.25
4.97
0.78
-3.19
-6.89
-10.34
-13.69
-17.11
-20.82
-25.01
-29.87
-35.51
-41.84
-48.36
-54.07
-57.58
-57.57
-53.26
-44.80
-33.27
-20.34
-7.66
3.57
12.82
20.06
25.50
29.30
31.54
32.32
31.93
30.87
29.80
29.27
29.58
30.72
32.43
34.29
35.93
37.02
37.41
37.00
35.73
33.64
30.81
27.40
23.61
19.57
15.32
10.78
5.89
0.69
-4.56
-9.53
-13.90
-17.54
-20.62
-23.62
-27.17
-31.80
-37.80
-44.97
-52.53
-59.25
-63.58
-64.14
-60.12
-51.57
-39.50
-25.60
-11.72
0.64
10.62
18.12
23.47
27.15
29.52
30.71
30.84
30.16
29.16
28.51
28.78
30.15
32.40
34.94
37.15
38.60
39.24
39.28
38.94
38.28
37.12
35.13
32.08
28.08
23.57
19.22
15.56
12.78
10.57
8.37
5.60
2.04
-2.12
-6.39
-10.27
-13.59
-16.59
-19.75
-23.63
-28.61
-34.76
-41.83
-49.23
-56.02
-60.98
-62.82
-60.47
-53.54
-42.54
-28.82
-14.20
-0.41
11.32
20.44
27.01
31.38
33.90
34.92
34.73
33.74
32.45
31.43
31.11
31.69
33.07
34.90
36.73
38.16
38.95
39.07
38.65
37.83
36.71
35.25
33.29
30.68
27.33
23.37
19.10
14.90
11.11
7.85
4.98
2.16
-1.01
-4.80
-9.23
-14.03
-18.74
-22.90
-26.26
-28.89
-31.22
-33.95
-37.72
-42.95
-49.47
-56.57
-63.06
-67.52
-68.67
-65.74
-58.63
-47.97
-34.87
-20.69
-6.73
5.90
16.33
24.01
28.72
30.66
30.57
29.39
28.16
27.56
27.80
28.63
29.66
30.59
31.40
32.03
32.45
32.47
31.95
30.97
29.87
29.13
28.91
28.82
28.02
25.68
21.53
16.14
10.74
6.56
4.13
2.87
1.53
-1.09
-5.38
-10.63
-15.41
-18.41
-19.10
-18.29
-17.46
-18.11
-20.94
-25.56
-30.79
-35.23
-37.78
-38.05
-35.91
-31.27
-23.82
-13.20
0.60
16.80
33.73
48.98
60.22
66.03
66.32
62.34
56.06
49.37
43.45
38.40
33.74
28.94
23.94
19.33
15.98
14.60
15.39
17.73
20.56
22.78
23.59
22.71
20.35
17.07
13.65
10.77
8.94
8.29
8.56
9.03
8.72
6.68
2.38
-4.02
-11.59
-18.81
-24.12
-26.28
-24.83
-20.05
-12.71
-3.79
5.96
16.10
26.64
37.93
50.48
64.64
80.25
96.39
111.43
123.46
130.94
133.32
131.23
126.13
119.75
113.33
107.40
101.79
96.02
89.63
82.30
73.75
63.66
51.58
37.17
20.35
1.54
-18.30
-37.96
-56.27
-72.44
-86.33
-98.22
-108.62
-117.83
-125.71
-131.78
-135.55
-136.82
-135.98
-133.95
-131.84
-130.54
-130.37
-131.12
-132.18
-132.96
-133.14
-132.81
-132.31
-132.07
-132.23
-132.54
-132.32
-130.61
-126.58
-119.80
-110.47
-99.36
-87.48
-75.72
-64.38
-53.15
-41.38
-28.50
-14.50
-0.06
13.72
25.70
35.24
42.44
47.98
52.88
57.95
63.66
69.96
76.42
82.39
87.21
90.35
91.45
90.49
87.74
83.77
79.31
75.01
71.30
68.09
64.89
60.94
55.64
49.04
42.08
36.62
34.98
39.13
49.84
65.97
84.58
101.59
112.98
115.91
109.35
93.98
71.67
44.93
16.44
-10.99
-34.57
-51.88
-61.39
-62.96
-58.05
-49.28
-39.66
-31.67
-26.85
-25.71
-28.09
-33.57
-41.74
-52.05
-63.72
-75.68
-86.59
-95.27
-100.93
-103.46
-103.24
-100.95
-97.23
-92.43
-86.72
-80.30
-73.53
-67.03
-61.40
-57.04
-54.03
-52.04
-50.63
-49.38
-48.04
-46.61
-45.26
-44.27
-43.89
-44.21
-45.07
-46.06
-46.58
-45.98
-43.78
-39.74
-33.91
-26.60
-18.25
-9.37
-0.44
7.99
15.39
21.27
25.28
27.39
27.88
27.38
26.69
26.52
27.30
29.04
31.37
33.70
35.55
36.62
36.94
36.68
36.01
34.98
33.49
31.44
28.81
25.80
22.73
19.90
17.44
15.23
13.00
10.48
7.60
4.51
1.54
-1.09
-3.39
-5.68
-8.52
-12.31
-17.08
-22.26
-26.84
-29.66
-29.86
-27.26
-22.35
-16.08
-9.49
-3.33
2.01
6.44
9.96
12.46
13.79
13.88
12.87
11.21
9.46
8.09
7.36
7.28
7.76
8.75
10.23
12.19
14.43
16.61
18.29
19.11
18.95
17.95
16.40
14.60
12.68
10.66
8.45
6.03
3.42
0.77
-1.79
-4.18
-6.51
-8.96
-11.73
-14.91
-18.44
-22.10
-25.66
-28.88
-31.65
-33.79
-34.98
-34.74
-32.52
-27.94
-21.11
-12.70
-3.82
4.31
10.77
15.23
17.87
19.22
19.76
19.80
19.36
18.39
16.98
15.46
14.24
13.73
14.01
14.94
16.11
17.14
17.75
17.92
17.69
17.19
16.48
15.49
14.09
12.12
9.49
6.29
2.70
-0.97
-4.43
-7.44
-9.91
-11.91
-13.67
-15.54
-17.92
-21.12
-25.16
-29.65
-33.76
-36.48
-36.96
-34.82
-30.27
-24.01
-16.86
-9.57
-2.62
3.67
8.97
12.94
15.20
15.63
14.47
12.36
10.15
8.65
8.34
9.24
11.03
13.19
15.26
16.95
18.23
19.13
19.63
19.56
18.62
16.51
13.14
8.76
3.90
-0.82
-4.93
-8.27
-11.05
-13.63
-16.38
-19.50
-22.96
-26.50
-29.73
-32.22
-33.53
-33.33
-31.42
-27.78
-22.59
-16.28
-9.52
-3.03
2.50
6.57
9.03
10.04
10.04
9.55
8.99
8.61
8.42
8.36
8.34
8.44
8.78
9.44
10.36
11.24
11.67
11.29
9.94
7.78
5.14
2.37
-0.30
-2.81
-5.24
-7.63
-9.97
-12.19
-14.29
-16.49
-19.16
-22.71
-27.23
-32.31
-36.94
-39.75
-39.54
-35.71
-28.62
-19.45
-9.74
-0.86
6.44
12.01
16.03
18.68
19.92
19.65
17.96
15.31
12.60
10.83
10.74
12.44
15.35
18.42
20.65
21.51
21.13
20.29
19.76
20.03
20.87
21.51
21.00
18.84
15.18
10.79
6.32
2.16
-1.85
-6.08
-10.67
-15.35
-19.62
-23.18
-26.40
-29.99
-34.46
-39.45
-43.53
-44.65
-41.27
-33.18
-21.98
-10.24
-0.40
6.31
10.25
12.83
15.46
18.76
21.97
23.85
23.44
20.90
17.59
15.44
15.88
19.12
23.75
27.67
29.15
27.73
24.43
21.08
19.28
19.52
20.88
21.69
20.55
17.03
11.91
6.60
2.37
-0.25
-1.70
-2.93
-4.80
-7.66
-11.28
-15.16
-18.88
-22.35
-25.94
-30.07
-34.95
-40.19
-44.84
-47.57
-47.16
-42.89
-34.99
-24.50
-13.02
-2.18
6.85
13.56
18.10
21.01
22.81
23.84
24.20
23.92
23.13
22.17
21.49
21.57
22.56
24.25
26.15
27.66
28.36
28.19
27.37
26.30
25.25
24.23
23.00
21.23
18.69
15.53
12.13
9.10
6.84
5.41
4.45
3.34
1.49
-1.37
-5.06
-9.06
-12.75
-15.77
-18.18
-20.45
-23.22
-27.04
-32.08
-38.02
-44.10
-49.32
-52.60
-53.08
-50.25
-44.12
-35.13
-24.13
-12.24
-0.62
9.74
18.10
24.12
27.82
29.54
29.87
29.42
28.79
28.37
28.31
28.59
29.03
29.46
29.79
30.01
30.20
30.40
30.53
30.42
29.85
28.61
26.71
24.32
21.62
18.86
16.15
13.55
11.04
8.58
6.17
3.78
1.33
-1.30
-4.20
-7.43
-10.88
-14.36
-17.65
-20.65
-23.48
-26.48
-30.17
-34.86
-40.42
-46.15
-50.72
-52.66
-50.82
-44.87
-35.52
-24.27
-12.89
-2.86
5.09
10.94
15.08
17.94
19.72
20.42
20.12
19.17
18.25
18.12
19.21
21.47
24.28
26.80
28.39
28.81
28.34
27.45
26.51
25.58
24.36
22.50
19.77
16.33
12.66
9.35
6.81
5.10
3.85
2.48
0.45
-2.44
-6.00
-9.68
-12.93
-15.37
-17.07
-18.49
-20.30
-23.11
-27.17
-32.24
-37.74
-42.84
-46.63
-48.26
-47.02
-42.49
-34.66
-24.10
-11.99
0.16
10.81
18.92
24.12
26.77
27.65
27.60
27.24
26.86
26.54
26.30
26.23
26.47
27.14
28.15
29.26
30.08
30.27
29.68
28.44
26.82
25.11
23.49
21.85
19.93
17.44
14.28
10.62
6.89
3.63
1.17
-0.48
-1.72
-3.15
-5.31
-8.33
-11.89
-15.33
-18.04
-19.80
-20.87
-21.92
-23.72
-26.75
-31.04
-36.09
-41.15
-45.31
-47.76
-47.90
-45.37
-40.06
-32.12
-22.14
-11.04
0.01
9.77
17.33
22.34
25.02
25.98
25.81
24.95
23.63
22.01
20.38
19.29
19.20
20.28
22.20
24.24
25.62
25.92
25.23
24.01
22.77
21.80
20.97
19.92
18.34
16.13
13.56
11.04
8.96
7.51
6.49
5.51
4.21
2.42
0.21
-2.08
-4.16
-5.86
-7.45
-9.28
-11.66
-14.64
-17.98
-21.31
-24.43
-27.51
-30.99
-35.15
-39.81
-44.07
-46.52
-45.80
-41.23
-33.14
-22.80
-11.97
-2.25
5.44
10.89
14.46
16.66
17.87
18.27
17.91
16.96
15.77
14.82
14.55
15.17
16.68
18.74
20.95
22.94
24.41
25.22
25.39
24.99
24.17
23.01
21.55
19.69
17.31
14.33
10.83
7.13
3.65
0.78
-1.33
-2.83
-4.13
-5.68
-7.74
-10.27
-12.98
-15.44
-17.36
-18.76
-20.04
-21.83
-24.72
-28.88
-33.86
-38.62
-41.87
-42.55
-40.19
-35.06
-28.01
-20.10
-12.22
-4.91
1.55
7.01
11.33
14.30
15.77
15.79
14.71
13.08
11.53
10.58
10.42
10.97
11.88
12.86
13.71
14.46
15.24
16.10
16.94
17.39
17.10
15.88
13.88
11.58
9.54
8.13
7.27
6.53
5.28
3.08
-0.07
-3.69
-7.12
-9.80
-11.59
-12.77
-13.85
-15.23
-17.02
-19.11
-21.35
-23.78
-26.68
-30.25
-34.39
-38.40
-41.11
-41.25
-38.04
-31.55
-22.71
-13.04
-4.03
3.31
8.69
12.34
14.75
16.27
16.99
16.86
15.94
14.55
13.32
12.91
13.71
15.61
18.02
20.17
21.47
21.79
21.53
21.19
21.20
21.53
21.78
21.42
20.17
18.14
15.75
13.36
11.08
8.73
6.01
2.82
-0.64
-3.88
-6.39
-7.93
-8.66
-9.08
-9.84
-11.42
-14.01
-17.47
-21.42
-25.70
-30.15
-34.62
-38.82
-41.96
-42.97
-40.84
-35.14
-26.62
-16.86
-7.76
-0.61
4.35
7.92
11.11
14.48
17.51
19.04
18.06
14.46
9.39
4.78
2.33
2.74
5.18
8.00
9.62
9.46
8.26
7.52
8.44
11.22
14.57
16.60
15.93
12.45
7.52
3.20
1.09
1.57
3.47
4.95
4.44
1.51
-3.02
-7.63
-10.97
-12.44
-12.52
-12.31
-12.96
-15.15
-18.88
-23.66
-28.70
-33.15
-36.36
-37.83
-37.20
-34.32
-29.31
-22.53
-14.65
-6.35
1.57
8.44
13.76
17.19
18.70
18.51
17.10
15.12
13.17
11.72
10.98
10.94
11.46
12.36
13.52
14.90
16.48
18.18
19.85
21.22
21.93
21.71
20.42
18.23
15.50
12.63
9.92
7.40
4.86
2.03
-1.27
-4.87
-8.38
-11.37
-13.54
-14.90
-15.74
-16.44
-17.37
-18.72
-20.49
-22.65
-25.13
-27.86
-30.56
-32.73
-33.62
-32.39
-28.49
-21.95
-13.49
-4.36
4.09
10.79
15.33
17.86
18.93
19.05
18.51
17.39
15.70
13.58
11.48
9.97
9.55
10.38
12.23
14.53
16.69
18.29
19.23
19.62
19.65
19.39
18.75
17.47
15.37
12.42
8.82
4.94
1.17
-2.20
-5.09
-7.62
-9.96
-12.27
-14.54
-16.65
-18.48
-20.10
-21.86
-24.26
-27.76
-32.43
-37.74
-42.55
-45.50
-45.42
-41.86
-35.23
-26.65
-17.54
-9.11
-2.00
3.66
8.03
11.33
13.54
14.57
14.37
13.17
11.55
10.24
9.86
10.63
12.37
14.55
16.66
18.43
19.88
21.20
22.46
23.44
23.67
22.71
20.42
17.13
13.51
10.24
7.69
5.79
4.11
2.21
-0.15
-2.85
-5.53
-7.85
-9.68
-11.20
-12.80
-14.92
-17.84
-21.62
-25.97
-30.36
-34.06
-36.35
-36.60
-34.45
-29.88
-23.27
-15.22
-6.57
1.83
9.19
14.91
18.61
20.21
19.96
18.36
16.08
13.76
11.89
10.72
10.36
10.79
11.99
13.95
16.56
19.62
22.77
25.56
27.51
28.32
27.87
26.31
23.97
21.21
18.30
15.32
12.21
8.85
5.23
1.58
-1.77
-4.50
-6.56
-8.17
-9.72
-11.56
-13.84
-16.47
-19.36
-22.54
-26.15
-30.30
-34.70
-38.59
-40.84
-40.35
-36.55
-29.68
-20.78
-11.24
-2.35
5.10
10.86
15.11
18.11
20.02
20.82
20.48
19.09
17.04
14.94
13.49
13.16
14.03
15.73
17.63
19.07
19.69
19.49
18.78
17.94
17.14
16.27
15.04
13.21
10.76
7.93
4.99
2.10
-0.74
-3.67
-6.74
-9.75
-12.35
-14.18
-15.22
-15.84
-16.73
-18.62
-21.92
-26.51
-31.72
-36.59
-40.07
-41.34
-39.90
-35.64
-28.88
-20.26
-10.70
-1.21
7.15
13.63
17.86
19.98
20.53
20.26
19.77
19.46
19.31
19.20
19.06
19.03
19.41
20.53
22.41
24.76
26.97
28.36
28.44
27.17
24.79
21.79
18.60
15.44
12.34
9.15
5.77
2.19
-1.47
-4.98
-8.10
-10.69
-12.78
-14.53
-16.32
-18.58
-21.72
-25.94
-31.01
-36.24
-40.55
-42.81
-42.17
-38.37
-31.86
-23.61
-14.74
-6.20
1.44
7.90
13.09
16.90
19.19
20.02
19.67
18.75
18.00
18.01
18.94
20.52
22.19
23.42
23.95
23.91
23.62
23.36
23.18
22.84
21.94
20.15
17.42
14.04
10.51
7.35
4.83
2.93
1.28
-0.57
-2.96
-5.90
-9.11
-12.13
-14.62
-16.54
-18.25
-20.32
-23.33
-27.61
-33.11
-39.36
-45.67
-51.13
-54.77
-55.75
-53.46
-47.72
-38.89
-27.88
-15.96
-4.47
5.46
13.18
18.51
21.77
23.51
24.35
24.80
25.23
25.76
26.46
27.36
28.51
29.91
31.49
33.01
34.12
34.48
33.95
32.69
31.09
29.57
28.32
27.18
25.71
23.45
20.27
16.48
12.80
9.91
8.15
7.30
6.64
5.31
2.79
-0.90
-5.16
-9.18
-12.37
-14.66
-16.50
-18.64
-21.78
-26.29
-31.96
-38.37
-44.78
-50.42
-54.53
-56.33
-55.08
-50.27
-41.98
-31.16
-19.42
-8.56
0.09
6.15
10.28
13.61
17.06
20.76
24.11
26.30
26.91
26.33
25.56
25.67
27.26
30.03
33.17
35.70
37.02
37.09
36.37
35.43
34.69
33.88
32.44
29.75
25.62
20.56
15.62
11.89
9.98
9.37
8.91
7.31
4.00
-0.60
-5.21
-8.60
-10.24
-10.78
-11.57
-13.79
-17.79
-22.80
-27.48
-30.85
-32.87
-34.72
-37.94
-43.40
-50.45
-56.96
-60.20
-58.12
-50.29
-38.27
-24.69
-12.13
-2.07
5.43
11.18
16.13
20.73
24.60
27.04
27.61
26.51
24.64
23.15
22.94
24.31
26.75
29.36
31.23
31.84
31.22
29.78
28.07
26.52
25.21
23.92
22.32
20.11
17.27
14.01
10.81
8.16
6.38
5.44
4.91
4.18
2.75
0.37
-2.73
-6.03
-8.97
-11.29
-13.12
-14.99
-17.57
-21.39
-26.58
-32.78
-39.24
-44.95
-48.91
-50.34
-48.79
-44.20
-36.89
-27.52
-16.98
-6.30
3.51
11.65
17.65
21.47
23.40
23.98
23.79
23.33
22.93
22.70
22.67
22.78
22.99
23.33
23.83
24.50
25.22
25.78
25.93
25.43
24.24
22.47
20.35
18.10
15.89
13.73
11.63
9.58
7.68
6.04
4.63
3.31
1.70
-0.59
-3.74
-7.62
-11.76
-15.60
-18.71
-21.08
-23.20
-25.81
-29.58
-34.80
-41.04
-47.30
-52.25
-54.63
-53.61
-49.09
-41.59
-32.11
-21.84
-11.81
-2.77
4.89
11.08
15.82
19.24
21.45
22.65
23.16
23.43
23.93
25.03
26.74
28.80
30.72
32.06
32.67
32.67
32.37
31.99
31.51
30.69
29.23
27.02
24.23
21.30
18.64
16.43
14.56
12.72
10.59
8.05
5.24
2.39
-0.32
-2.90
-5.55
-8.47
-11.75
-15.24
-18.62
-21.58
-24.08
-26.40
-29.10
-32.73
-37.50
-43.06
-48.44
-52.33
-53.46
-51.02
-44.95
-35.88
-24.98
-13.52
-2.61
7.00
14.89
20.88
24.91
27.02
27.38
26.40
24.73
23.09
22.09
22.04
22.81
24.03
25.21
26.07
26.57
26.89
27.20
27.56
27.79
27.61
26.75
25.10
22.79
20.09
17.36
14.85
12.70
10.90
9.33
7.88
6.44
4.94
3.30
1.43
-0.79
-3.42
-6.41
-9.54
-12.47
-14.90
-16.77
-18.37
-20.30
-23.22
-27.49
-32.95
-38.74
-43.61
-46.29
-45.95
-42.53
-36.63
-29.28
-21.48
-13.88
-6.76
-0.19
5.70
10.64
14.25
16.32
17.03
16.92
16.74
17.03
17.94
19.17
20.32
21.06
21.42
21.67
22.08
22.73
23.37
23.56
22.96
21.41
19.08
16.39
13.66
11.09
8.57
5.78
2.45
-1.57
-6.08
-10.69
-14.87
-18.28
-20.81
-22.63
-24.01
-25.22
-26.42
-27.81
-29.64
-32.20
-35.60
-39.56
-43.25
-45.54
-45.36
-42.21
-36.35
-28.67
-20.26
-12.07
-4.54
2.15
7.92
12.52
15.65
17.11
17.11
16.22
15.27
14.94
15.51
16.71
18.03
19.04
19.64
20.09
20.84
22.17
23.98
25.76
26.83
26.69
25.17
22.52
19.18
15.62
12.13
8.80
5.57
2.36
-0.87
-4.11
-7.31
-10.39
-13.20
-15.61
-17.54
-19.05
-20.42
-22.14
-24.66
-28.25
-32.71
-37.37
-41.23
-43.28
-42.77
-39.50
-33.77
-26.30
-17.88
-9.27
-1.04
6.37
12.64
17.46
20.66
22.29
22.64
22.24
21.63
21.21
21.10
21.17
21.17
20.96
20.56
20.15
19.96
20.04
20.26
20.23
19.58
18.05
15.61
12.56
9.29
6.18
3.37
0.71
-2.07
-5.26
-8.95
-13.01
-17.15
-21.09
-24.65
-27.78
-30.52
-32.82
-34.49
-35.35
-35.33
-34.68
-33.99
-33.97
-35.11
-37.36
-39.99
-41.81
-41.61
-38.60
-32.80
-24.93
-16.17
-7.65
-0.12
6.18
11.36
15.62
19.07
21.56
22.85
22.80
21.60
19.75
17.96
16.79
16.43
16.63
16.88
16.72
16.05
15.13
14.46
14.39
14.94
15.74
16.29
16.24
15.57
14.59
13.60
12.79
12.05
11.16
9.97
8.56
7.29
6.49
6.35
6.62
6.85
6.48
5.26
3.32
1.21
-0.44
-1.25
-1.29
-1.16
-1.67
-3.43
-6.48
-10.05
-12.91
-13.67
-11.46
-6.24
1.24
9.84
18.37
25.89
31.64
35.08
35.82
33.87
29.80
24.80
20.29
17.43
16.40
16.56
16.75
15.98
14.00
11.34
8.85
7.13
6.03
4.91
3.08
0.41
-2.55
-4.80
-5.59
-4.80
-3.41
-2.72
-3.70
-6.38
-9.77
-12.39
-13.17
-11.94
-9.93
-8.78
-9.74
-12.89
-17.04
-20.35
-21.48
-20.15
-17.70
-16.03
-16.65
-19.70
-23.89
-27.08
-27.48
-24.41
-18.74
-12.17
-6.36
-2.14
0.69
2.93
5.33
8.17
10.90
12.68
12.82
11.18
8.30
5.16
2.72
1.69
2.09
3.51
5.27
6.75
7.69
8.22
8.69
9.50
10.71
12.03
12.91
12.81
11.48
9.13
6.26
3.54
1.40
-0.10
-1.19
-2.27
-3.64
-5.33
-7.12
-8.57
-9.34
-9.31
-8.74
-8.23
-8.53
-10.27
-13.65
-18.25
-23.11
-27.00
-28.87
-28.26
-25.37
-20.90
-15.66
-10.23
-4.82
0.54
5.77
10.55
14.33
16.60
17.13
16.17
14.32
12.21
10.29
8.68
7.26
5.97
4.87
4.28
4.52
5.71
7.62
9.72
11.37
12.11
11.82
10.77
9.37
7.97
6.73
5.60
4.38
2.96
1.36
-0.30
-1.84
-3.12
-4.15
-5.06
-6.02
-7.23
-8.81
-10.76
-12.99
-15.41
-17.99
-20.75
-23.68
-26.55
-28.83
-29.72
-28.48
-24.80
-19.00
-11.99
-4.90
1.27
6.04
9.43
11.75
13.34
14.35
14.72
14.37
13.31
11.74
10.10
8.85
8.30
8.51
9.27
10.20
10.99
11.51
11.90
12.36
13.03
13.74
14.05
13.48
11.69
8.73
5.08
1.34
-1.94
-4.58
-6.73
-8.73
-10.83
-13.03
-15.01
-16.44
-17.14
-17.29
-17.42
-18.12
-19.74
-22.12
-24.62
-26.31
-26.38
-24.44
-20.67
-15.66
-10.18
-4.86
-0.02
4.23
7.88
10.85
12.87
13.66
13.05
11.14
8.36
5.36
2.79
1.03
0.15
-0.09
0.01
0.23
0.58
1.19
2.14
3.34
4.49
5.19
5.15
4.37
3.09
1.65
0.29
-0.96
-2.25
-3.79
-5.66
-7.73
-9.69
-11.24
-12.30
-13.08
-14.05
-15.71
-18.26
-21.43
-24.47
-26.43
-26.47
-24.27
-20.10
-14.69
-8.91
-3.45
1.33
5.38
8.73
11.31
12.92
13.33
12.47
10.55
8.13
5.88
4.36
3.81
4.14
4.94
5.80
6.48
6.97
7.45
8.13
9.06
10.03
10.68
10.64
9.73
8.11
6.07
3.97
1.99
0.08
-1.93
-4.18
-6.64
-9.21
-11.78
-14.43
-17.41
-20.96
-25.01
-29.12
-32.53
-34.45
-34.37
-32.20
-28.22
-22.94
-16.83
-10.33
-3.77
2.45
7.96
12.35
15.32
16.79
16.90
16.01
14.57
12.99
11.53
10.35
9.57
9.28
9.62
10.63
12.24
14.02
15.50
16.25
16.14
15.36
14.36
13.41
12.50
11.22
9.09
5.89
1.82
-2.46
-6.22
-8.99
-10.80
-12.21
-13.96
-16.63
-20.35
-24.82
-29.35
-33.23
-35.79
-36.60
-35.42
-32.23
-27.20
-20.71
-13.35
-5.89
0.97
6.62
10.74
13.29
14.44
14.46
13.66
12.35
10.92
9.78
9.32
9.74
11.03
12.86
14.80
16.41
17.42
17.81
17.68
17.16
16.29
14.98
13.13
10.73
7.91
4.92
2.04
-0.52
-2.75
-4.86
-7.04
-9.46
-12.08
-14.75
-17.33
-19.86
-22.65
-26.14
-30.61
-35.86
-41.09
-44.98
-46.19
-43.86
-37.98
-29.43
-19.59
-9.92
-1.43
5.46
10.82
14.86
17.64
19.11
19.14
17.87
15.82
13.83
12.73
13.06
14.81
17.47
20.33
22.74
24.40
25.36
25.84
26.02
25.87
25.14
23.56
20.96
17.48
13.51
9.59
6.12
3.28
0.90
-1.36
-3.89
-6.94
-10.53
-14.63
-19.18
-24.28
-29.99
-36.21
-42.40
-47.55
-50.40
-49.89
-45.62
-38.09
-28.55
-18.57
-9.52
-2.12
3.64
8.17
12.01
15.38
18.23
20.29
21.42
21.87
22.15
22.89
24.43
26.71
29.22
31.33
32.53
32.72
32.08
30.86
29.20
27.00
24.10
20.47
16.40
12.36
8.81
5.85
3.18
0.20
-3.62
-8.39
-13.72
-18.81
-22.97
-25.87
-27.85
-29.76
-32.59
-37.10
-43.38
-50.80
-58.24
-64.19
-67.25
-66.39
-61.14
-51.67
-38.84
-24.09
-9.30
3.69
13.60
20.02
23.61
25.60
27.25
29.18
31.09
32.24
32.03
30.59
28.91
28.33
29.77
33.17
37.31
40.68
42.17
41.77
40.49
39.74
40.42
42.37
44.21
44.25
41.39
35.80
28.94
22.80
18.80
17.15
16.48
14.84
10.69
3.77
-4.75
-12.96
-19.19
-22.83
-24.67
-26.22
-28.93
-33.46
-39.56
-46.40
-53.17
-59.22
-64.29
-67.94
-69.41
-67.69
-61.90
-51.92
-38.59
-23.50
-8.66
4.33
14.60
22.14
27.46
31.26
34.09
36.30
38.02
39.29
40.17
40.80
41.30
41.79
42.31
42.87
43.38
43.72
43.74
43.27
42.21
40.53
38.27
35.60
32.67
29.60
26.42
23.17
19.93
16.88
14.25
12.19
10.66
9.34
7.73
5.36
2.01
-2.25
-7.02
-11.76
-16.05
-19.73
-22.97
-26.24
-30.12
-35.17
-41.66
-49.41
-57.76
-65.57
-71.33
-73.57
-71.21
-63.93
-52.35
-37.91
-22.46
-7.85
4.61
14.26
21.15
25.72
28.59
30.36
31.51
32.42
33.39
34.58
36.09
37.80
39.52
41.06
42.23
42.95
43.24
43.13
42.71
42.03
41.05
39.78
38.12
35.99
33.30
30.01
26.25
22.27
18.41
15.02
12.21
9.80
7.38
4.40
0.56
-4.08
-9.10
-13.92
-18.08
-21.54
-24.76
-28.55
-33.70
-40.61
-49.02
-57.95
-65.93
-71.38
-73.04
-70.31
-63.30
-52.82
-40.11
-26.51
-13.21
-1.13
9.16
17.34
23.40
27.49
29.99
31.46
32.49
33.60
35.09
36.95
38.96
40.85
42.40
43.52
44.29
44.80
45.05
44.98
44.39
43.16
41.30
39.00
36.51
34.04
31.57
28.79
25.27
20.65
14.88
8.36
1.77
-4.21
-9.20
-13.26
-16.79
-20.25
-23.89
-27.58
-30.98
-33.76
-35.89
-37.69
-39.80
-42.90
-47.50
-53.71
-61.22
-69.32
-76.98
-82.92
-85.78
-84.43
-78.19
-67.19
-52.47
-35.81
-19.25
-4.49
7.50
16.68
23.65
29.20
33.94
38.00
41.22
43.43
44.65
45.18
45.56
46.24
47.44
49.00
50.54
51.60
51.87
51.34
50.26
49.07
48.03
47.18
46.17
44.52
41.88
38.19
33.72
28.96
24.34
20.05
16.02
12.10
8.12
4.03
-0.16
-4.43
-8.81
-13.35
-18.11
-23.06
-28.09
-33.02
-37.67
-41.90
-45.84
-49.85
-54.49
-60.22
-67.06
-74.23
-80.17
-82.98
-81.05
-73.76
-61.79
-46.85
-31.10
-16.39
-3.83
6.20
13.87
19.51
23.41
25.89
27.38
28.45
29.66
31.39
33.72
36.42
39.17
41.68
43.84
45.63
47.09
48.13
48.64
48.51
47.71
46.29
44.34
41.86
38.84
35.11
30.65
25.58
20.28
15.27
11.04
7.75
5.14
2.52
-0.87
-5.46
-11.14
-17.26
-22.94
-27.55
-31.03
-33.94
-37.12
-41.37
-47.05
-54.08
-61.88
-69.52
-75.81
-79.46
-79.32
-74.59
-65.25
-52.10
-36.65
-20.76
-6.03
6.44
16.27
23.57
28.68
31.94
33.61
33.95
33.36
32.36
31.55
31.37
32.00
33.31
34.95
36.55
37.88
38.86
39.59
40.13
40.42
40.28
39.44
37.71
35.03
31.62
27.79
23.90
20.23
16.88
13.87
11.14
8.66
6.41
4.35
2.38
0.25
-2.25
-5.27
-8.76
-12.48
-16.17
-19.61
-22.91
-26.42
-30.75
-36.48
-43.89
-52.70
-61.89
-69.87
-74.83
-75.29
-70.57
-61.08
-48.17
-33.69
-19.44
-6.70
3.87
12.12
18.15
22.08
24.08
24.45
23.74
22.64
21.85
21.80
22.52
23.72
25.03
26.21
27.29
28.41
29.67
30.91
31.68
31.46
29.91
26.97
22.98
18.48
14.04
10.07
6.73
3.93
1.42
-1.13
-4.00
-7.29
-10.93
-14.68
-18.27
-21.53
-24.49
-27.38
-30.59
-34.56
-39.63
-45.81
-52.66
-59.13
-63.73
-64.87
-61.37
-52.98
-40.54
-25.89
-11.22
1.48
10.97
17.01
19.98
20.75
20.17
18.91
17.46
16.16
15.30
15.07
15.47
16.31
17.25
17.92
18.12
17.90
17.44
16.89
16.19
15.07
13.22
10.49
7.07
3.43
0.14
-2.31
-3.80
-4.52
-4.96
-5.69
-7.12
-9.37
-12.14
-14.78
-16.76
-17.85
-18.29
-18.82
-20.28
-23.25
-27.90
-33.99
-41.25
-49.18
-57.02
-63.49
-66.79
-65.10
-57.37
-44.02
-27.30
-10.41
3.69
13.38
18.95
21.99
24.30
26.83
29.13
30.10
28.94
25.93
22.50
20.52
21.20
24.47
28.73
32.02
32.99
31.56
28.97
26.96
26.76
28.48
30.93
32.34
31.33
27.47
21.54
14.96
9.14
4.87
1.95
-0.34
-2.81
-5.82
-9.16
-12.24
-14.54
-15.93
-16.84
-17.94
-19.85
-22.92
-27.15
-32.48
-38.88
-46.34
-54.78
-63.72
-72.05
-78.24
-80.70
-78.31
-70.81
-58.85
-43.82
-27.42
-11.30
3.21
15.23
24.35
30.56
34.24
35.97
36.42
36.16
35.62
35.11
34.92
35.35
36.68
38.95
41.92
45.01
47.51
48.84
48.80
47.53
45.49
43.17
40.80
38.34
35.49
31.97
27.65
22.80
17.93
13.64
10.33
7.98
6.20
4.39
2.02
-1.07
-4.64
-8.26
-11.59
-14.60
-17.64
-21.15
-25.51
-30.82
-36.96
-43.72
-50.91
-58.28
-65.35
-71.16
-74.45
-73.90
-68.64
-58.66
-44.97
-29.26
-13.44
0.86
12.64
21.58
27.89
32.01
34.41
35.45
35.40
34.56
33.26
31.97
31.20
31.35
32.55
34.68
37.26
39.73
41.58
42.57
42.72
42.23
41.32
40.04
38.22
35.64
32.14
27.82
23.09
18.52
14.65
11.74
9.61
7.82
5.80
3.17
-0.11
-3.70
-7.12
-10.02
-12.30
-14.15
-15.90
-17.90
-20.38
-23.52
-27.55
-32.69
-38.98
-45.98
-52.61
-57.23
-58.14
-54.22
-45.51
-33.22
-19.41
-6.24
4.75
12.93
18.54
22.17
24.34
25.26
24.88
23.19
20.57
17.74
15.63
14.94
15.88
18.09
20.84
23.35
25.13
26.07
26.37
26.28
25.89
25.02
23.31
20.48
16.54
11.90
7.29
3.44
0.72
-1.02
-2.40
-4.21
-6.96
-10.62
-14.59
-18.06
-20.47
-21.82
-22.70
-24.04
-26.68
-31.06
-37.07
-44.15
-51.43
-57.85
-62.30
-63.74
-61.41
-55.09
-45.21
-32.91
-19.72
-7.25
3.32
11.37
16.91
20.37
22.32
23.22
23.41
23.06
22.38
21.63
21.17
21.34
22.31
24.01
26.11
28.11
29.54
30.11
29.75
28.60
26.91
24.91
22.68
20.16
17.25
13.85
9.98
5.82
1.60
-2.49
-6.40
-10.21
-14.11
-18.19
-22.49
-26.92
-31.37
-35.90
-40.61
-45.50
-50.30
-54.27
-56.41
-55.60
-51.22
-43.28
-32.61
-20.60
-8.78
1.60
9.83
15.78
19.57
21.48
21.74
20.62
18.51
16.04
13.91
12.70
12.65
13.58
15.06
16.63
18.02
19.24
20.39
21.47
22.19
22.17
21.05
18.80
15.71
12.32
9.02
6.01
3.00
-0.43
-4.58
-9.40
-14.45
-19.05
-22.72
-25.38
-27.51
-29.92
-33.37
-38.26
-44.44
-51.13
-57.13
-61.07
-61.78
-58.58
-51.44
-41.03
-28.53
-15.37
-2.86
8.03
16.72
22.97
26.79
28.35
27.92
26.04
23.40
20.84
19.07
18.52
19.29
21.14
23.61
26.25
28.71
30.80
32.42
33.50
33.87
33.31
31.60
28.66
24.65
19.93
15.00
10.27
5.92
1.85
-2.20
-6.45
-10.95
-15.48
-19.69
-23.31
-26.25
-28.80
-31.54
-35.18
-40.20
-46.69
-54.05
-61.00
-65.94
-67.30
-64.09
-56.28
-44.76
-30.99
-16.61
-2.97
9.05
18.90
26.27
30.93
32.85
32.35
30.14
27.21
24.48
22.58
21.64
21.45
21.70
22.25
23.20
24.74
26.92
29.54
32.05
33.80
34.26
33.21
30.85
27.64
24.14
20.76
17.59
14.48
11.16
7.44
3.34
-0.92
-5.11
-9.08
-12.85
-16.54
-20.28
-24.15
-28.25
-32.79
-38.07
-44.30
-51.22
-57.85
-62.60
-63.70
-59.89
-50.99
-38.05
-23.03
-8.08
5.05
15.49
23.13
28.31
31.46
32.85
32.65
31.09
28.65
26.07
24.23
23.83
25.13
27.85
31.28
34.55
36.94
38.10
38.12
37.26
35.79
33.79
31.09
27.46
22.85
17.45
11.73
6.08
0.78
-4.15
-8.79
-13.12
-16.94
-20.01
-22.25
-24.07
-26.33
-29.96
-35.58
-43.01
-51.12
-58.08
-61.89
-61.17
-55.49
-45.55
-32.85
-19.15
-5.86
6.13
16.43
24.62
30.22
32.81
32.33
29.45
25.60
22.40
21.08
21.65
23.20
24.45
24.53
23.58
22.54
22.52
24.01
26.33
28.02
27.69
24.73
19.75
14.16
9.39
6.12
3.82
1.30
-2.48
-7.78
-13.87
-19.61
-24.20
-27.75
-31.31
-36.08
-42.44
-49.48
-55.09
-56.90
-53.38
-44.39
-31.49
-17.07
-3.45
7.86
16.38
22.43
26.54
29.15
30.28
29.82
27.81
24.61
20.98
17.81
15.86
15.50
16.58
18.53
20.57
21.97
22.24
21.25
19.15
16.22
12.80
9.05
5.05
0.77
-3.85
-8.81
-14.12
-19.77
-25.85
-32.41
-39.36
-46.26
-52.19
-55.91
-56.14
-52.08
-43.71
-31.95
-18.42
-5.04
6.59
15.49
21.44
24.87
26.46
26.85
26.43
25.41
23.94
22.30
20.90
20.19
20.47
21.65
23.35
25.00
26.12
26.41
25.79
24.32
22.06
18.99
15.17
10.66
5.74
0.77
-3.92
-8.11
-11.89
-15.70
-20.17
-25.93
-33.16
-41.38
-49.31
-55.12
-56.98
-53.78
-45.51
-33.36
-19.30
-5.41
6.78
16.54
23.93
29.38
33.29
35.84
37.03
36.86
35.62
33.89
32.48
32.01
32.77
34.51
36.62
38.37
39.19
38.91
37.68
35.81
33.53
30.89
27.78
24.07
19.74
15.01
10.16
5.46
1.00
-3.29
-7.58
-11.92
-16.27
-20.42
-24.20
-27.67
-31.22
-35.53
-41.31
-48.88
-57.85
-66.91
-74.12
-77.40
-75.30
-67.52
-55.00
-39.61
-23.50
-8.41
4.60
15.19
23.41
29.42
33.34
35.38
35.93
35.68
35.44
35.91
37.44
39.86
42.63
45.06
46.62
47.17
46.93
46.29
45.62
44.97
44.11
42.64
40.21
36.76
32.52
27.95
23.46
19.35
15.64
12.19
8.81
5.35
1.68
-2.31
-6.66
-11.37
-16.32
-21.27
-25.92
-30.05
-33.67
-37.15
-41.14
-46.42
-53.52
-62.34
-71.82
-80.08
-84.83
-84.17
-77.33
-65.05
-49.35
-32.76
-17.50
-4.81
5.14
12.77
18.65
23.04
25.94
27.33
27.53
27.27
27.50
28.94
31.77
35.55
39.44
42.64
44.68
45.60
45.78
45.63
45.32
44.69
43.37
41.00
37.53
33.22
28.52
23.92
19.76
16.11
12.88
9.85
6.80
3.53
-0.09
-4.19
-8.76
-13.68
-18.67
-23.38
-27.51
-30.99
-34.06
-37.30
-41.41
-46.96
-54.07
-62.17
-69.91
-75.51
-77.24
-73.93
-65.51
-52.97
-38.06
-22.77
-8.70
3.14
12.42
19.23
23.85
26.55
27.63
27.46
26.57
25.49
24.81
24.93
26.01
27.94
30.43
33.06
35.42
37.12
37.96
37.93
37.13
35.77
34.03
31.93
29.41
26.31
22.55
18.28
13.94
10.07
7.12
5.18
3.90
2.56
0.45
-2.83
-7.08
-11.67
-15.82
-19.05
-21.45
-23.77
-27.08
-32.37
-40.02
-49.64
-59.96
-69.17
-75.23
-76.52
-72.24
-62.66
-49.09
-33.50
-17.98
-4.14
7.16
15.75
21.90
25.96
28.14
28.52
27.35
25.19
23.01
21.80
22.24
24.37
27.52
30.65
32.83
33.65
33.32
32.44
31.61
31.02
30.40
29.16
26.83
23.28
18.88
14.36
10.41
7.42
5.35
3.71
1.85
-0.81
-4.52
-9.12
-14.14
-19.06
-23.50
-27.36
-30.87
-34.46
-38.56
-43.52
-49.55
-56.68
-64.65
-72.77
-79.77
-83.96
-83.66
-77.76
-66.35
-50.80
-33.40
-16.64
-2.41
8.46
16.18
21.49
25.18
27.70
29.13
29.48
28.92
27.96
27.33
27.71
29.40
32.15
35.29
37.99
39.62
40.02
39.52
38.69
38.01
37.51
36.77
35.10
32.00
27.44
22.03
16.74
12.47
9.62
7.93
6.62
4.81
1.88
-2.19
-6.95
-11.71
-15.88
-19.22
-21.89
-24.32
-27.01
-30.45
-35.01
-40.97
-48.45
-57.15
-66.19
-74.02
-78.66
-78.27
-71.88
-59.82
-43.71
-25.99
-9.11
5.26
16.44
24.68
30.62
34.83
37.49
38.51
37.83
35.76
33.06
30.85
30.05
31.11
33.71
36.89
39.59
41.13
41.43
40.94
40.04
38.85
37.07
34.32
30.55
26.27
22.30
19.29
17.17
15.24
12.63
8.87
4.26
-0.27
-3.81
-6.05
-7.60
-9.46
-12.50
-16.80
-21.66
-25.98
-29.00
-30.71
-32.24
-35.08
-40.45
-48.66
-58.76
-68.76
-76.36
-79.63
-77.89
-71.47
-61.47
-49.16
-35.52
-21.17
-6.70
7.10
18.88
27.27
31.42
31.56
29.09
26.05
24.30
24.80
27.23
30.50
33.39
35.22
36.11
36.60
37.30
38.48
39.87
40.89
41.01
39.93
37.66
34.40
30.44
26.10
21.60
17.18
13.04
9.33
6.09
3.25
0.65
-1.90
-4.62
-7.66
-11.05
-14.75
-18.59
-22.36
-25.90
-29.15
-32.29
-35.76
-40.22
-46.26
-53.97
-62.64
-70.68
-75.98
-76.54
-71.27
-60.44
-45.61
-29.10
-13.19
0.53
11.41
19.58
25.40
29.19
31.10
31.22
29.86
27.70
25.70
24.79
25.49
27.76
30.97
34.31
37.09
39.06
40.39
41.50
42.61
43.62
44.03
43.21
40.72
36.61
31.42
26.02
21.23
17.47
14.66
12.28
9.67
6.37
2.32
-2.16
-6.59
-10.60
-14.07
-17.19
-20.36
-23.94
-28.22
-33.39
-39.53
-46.50
-53.88
-60.67
-65.49
-66.77
-63.32
-54.87
-42.24
-27.20
-11.94
1.67
12.48
20.21
25.21
28.07
29.28
29.10
27.68
25.31
22.48
19.87
18.16
17.79
18.75
20.66
22.88
24.72
25.71
25.72
24.93
23.64
22.14
20.51
18.56
15.97
12.48
8.07
3.04
-2.10
-6.82
-10.76
-13.94
-16.62
-19.21
-22.07
-25.40
-29.29
-33.76
-38.76
-44.12
-49.37
-53.67
-55.89
-54.90
-50.03
-41.37
-29.87
-17.13
-4.85
5.66
13.72
19.28
22.67
24.18
24.03
22.37
19.52
16.10
12.93
10.82
10.15
10.79
12.15
13.50
14.25
14.28
13.71
12.86
11.84
10.54
8.60
5.68
1.62
-3.38
-8.83
-14.11
-18.75
-22.67
-26.20
-29.99
-34.73
-40.80
-48.03
-55.55
-62.01
-65.82
-65.66
-60.85
-51.62
-39.00
-24.57
-9.97
3.42
14.72
23.42
29.33
32.36
32.62
30.55
26.95
22.94
19.65
17.84
17.69
18.78
20.46
22.11
23.48
24.60
25.59
26.35
26.51
25.50
22.83
18.41
12.61
6.12
-0.36
-6.37
-11.83
-16.93
-22.00
-27.35
-33.22
-39.80
-47.11
-54.91
-62.43
-68.41
-71.28
-69.65
-62.94
-51.70
-37.55
-22.63
-8.90
2.50
11.33
18.06
23.25
27.29
30.20
31.86
32.37
32.19
32.06
32.67
34.32
36.73
39.23
41.14
41.98
41.77
40.76
39.34
37.78
36.07
34.06
31.47
28.05
23.66
18.29
12.11
5.38
-1.52
-8.18
-14.28
-19.67
-24.36
-28.65
-32.99
-38.05
-44.41
-52.33
-61.43
-70.49
-77.58
-80.61
-78.02
-69.41
-55.78
-39.13
-21.80
-5.72
8.08
19.29
28.04
34.41
38.35
39.84
39.25
37.43
35.59
34.85
35.81
38.32
41.61
44.80
47.26
48.82
49.75
50.42
51.11
51.71
51.86
51.08
49.01
45.50
40.77
35.25
29.58
24.31
19.77
15.98
12.66
9.30
5.45
0.89
-4.24
-9.55
-14.56
-18.96
-22.77
-26.33
-30.13
-34.70
-40.44
-47.54
-55.95
-65.20
-74.35
-81.96
-86.27
-85.65
-79.18
-67.01
-50.49
-31.82
-13.42
2.72
15.48
24.66
30.74
34.45
36.50
37.43
37.58
37.31
36.99
37.10
38.02
39.94
42.77
46.09
49.28
51.71
52.92
52.82
51.62
49.71
47.50
45.17
42.67
39.80
36.37
32.44
28.31
24.44
21.22
18.74
16.73
14.65
11.95
8.32
3.80
-1.23
-6.31
-11.05
-15.32
-19.27
-23.17
-27.24
-31.61
-36.32
-41.46
-47.22
-53.83
-61.30
-69.07
-75.87
-79.90
-79.41
-73.38
-62.00
-46.76
-29.93
-13.81
0.01
10.88
19.02
24.95
29.14
31.76
32.85
32.58
31.44
30.26
29.90
30.89
33.20
36.27
39.24
41.29
42.03
41.60
40.48
39.21
38.10
37.09
35.88
34.18
31.92
29.31
26.65
24.11
21.64
19.00
15.95
12.51
8.89
5.55
2.79
0.64
-1.18
-3.17
-5.78
-9.18
-13.18
-17.26
-21.02
-24.27
-27.34
-30.98
-35.98
-42.76
-51.01
-59.71
-67.48
-72.86
-74.63
-72.08
-65.01
-53.77
-39.32
-23.22
-7.53
5.76
15.31
20.85
23.23
23.97
24.49
25.53
26.86
27.79
27.78
27.01
26.38
27.04
29.58
33.68
37.84
40.39
40.23
37.47
33.34
29.57
27.35
26.87
27.04
26.36
23.78
19.34
14.15
9.79
7.41
7.22
8.21
8.87
7.98
5.16
1.00
-3.46
-7.30
-10.16
-12.44
-14.87
-18.08
-22.26
-27.17
-32.43
-37.81
-43.31
-49.26
-55.81
-62.66
-68.83
-72.86
-73.19
-68.77
-59.46
-46.21
-30.81
-15.38
-1.73
9.02
16.64
21.55
24.51
26.19
27.02
27.19
26.79
26.07
25.43
25.38
26.25
28.04
30.39
32.71
34.40
35.15
34.92
33.94
32.50
30.80
28.86
26.58
23.79
20.44
16.71
12.94
9.62
7.10
5.49
4.62
4.02
3.19
1.77
-0.41
-3.25
-6.51
-9.92
-13.24
-16.42
-19.42
-22.36
-25.36
-28.57
-32.22
-36.56
-41.80
-47.96
-54.56
-60.60
-64.58
-64.90
-60.48
-51.20
-38.16
-23.33
-8.94
3.21
12.28
18.33
21.95
23.81
24.33
23.69
22.00
19.57
17.04
15.23
14.86
16.19
18.98
22.48
25.85
28.50
30.20
31.15
31.67
31.94
31.88
31.12
29.28
26.16
21.92
17.05
12.16
7.79
4.23
1.48
-0.67
-2.54
-4.44
-6.58
-9.04
-11.79
-14.71
-17.69
-20.61
-23.43
-26.15
-28.84
-31.66
-34.87
-38.83
-43.90
-50.11
-57.02
-63.55
-68.10
-69.03
-65.26
-56.69
-44.33
-29.99
-15.68
-3.02
7.16
14.75
20.06
23.50
25.31
25.62
24.62
22.75
20.73
19.41
19.41
20.93
23.57
26.60
29.22
30.90
31.60
31.62
31.38
31.11
30.73
29.90
28.25
25.61
22.17
18.36
14.65
11.32
8.41
5.77
3.17
0.54
-2.08
-4.63
-7.15
-9.79
-12.75
-16.13
-19.77
-23.32
-26.35
-28.70
-30.57
-32.57
-35.50
-39.96
-46.06
-53.20
-60.06
-64.92
-66.16
-62.73
-54.56
-42.59
-28.50
-14.21
-1.26
9.39
17.45
23.05
26.44
27.82
27.44
25.70
23.27
21.00
19.68
19.72
21.11
23.41
25.99
28.37
30.35
31.94
33.25
34.29
34.87
34.68
33.46
31.24
28.32
25.14
22.05
19.20
16.46
13.64
10.67
7.73
5.13
3.06
1.41
-0.31
-2.78
-6.45
-11.33
-16.89
-22.28
-26.76
-30.00
-32.28
-34.29
-36.81
-40.48
-45.57
-51.99
-59.22
-66.35
-72.10
-74.96
-73.49
-66.95
-55.55
-40.73
-24.63
-9.53
2.93
12.11
18.35
22.42
25.06
26.63
27.11
26.46
24.98
23.30
22.34
22.81
24.98
28.38
32.20
35.48
37.67
38.66
38.80
38.54
38.14
37.42
35.95
33.34
29.58
25.12
20.77
17.27
14.98
13.65
12.67
11.40
9.53
7.10
4.48
1.97
-0.32
-2.60
-5.17
-8.25
-11.84
-15.72
-19.69
-23.71
-27.98
-32.96
-39.10
-46.59
-55.13
-63.78
-71.07
-75.37
-75.24
-70.01
-59.98
-46.40
-31.12
-16.15
-3.04
7.37
15.00
20.21
23.52
25.31
25.80
25.14
23.74
22.25
21.51
22.24
24.72
28.61
33.15
37.38
40.58
42.45
43.12
42.96
42.28
41.20
39.62
37.32
34.14
30.09
25.44
20.62
16.09
12.16
8.90
6.13
3.51
0.74
-2.35
-5.66
-8.97
-12.07
-14.89
-17.53
-20.21
-23.18
-26.54
-30.34
-34.62
-39.55
-45.40
-52.34
-60.14
-67.90
-74.04
-76.66
-74.18
-66.01
-52.84
-36.56
-19.57
-4.06
8.63
18.12
24.73
28.97
31.27
31.79
30.70
28.43
25.82
23.89
23.54
25.18
28.52
32.70
36.71
39.77
41.62
42.54
43.02
43.37
43.53
43.02
41.27
37.99
33.36
28.01
22.72
18.10
14.35
11.33
8.72
6.25
3.81
1.38
-1.03
-3.51
-6.22
-9.34
-12.96
-17.02
-21.34
-25.82
-30.55
-35.87
-42.28
-50.02
-58.69
-67.03
-73.16
-75.19
-71.94
-63.41
-50.81
-35.98
-20.78
-6.57
5.89
16.17
23.91
28.79
30.61
29.67
26.83
23.34
20.52
19.25
19.76
21.71
24.49
27.50
30.38
33.01
35.50
37.73
39.54
40.63
40.72
39.75
37.84
35.26
32.24
28.64
24.26
18.96
13.02
7.22
2.62
-0.07
-0.79
-0.63
-1.10
-3.52
-8.23
-14.40
-20.40
-24.80
-27.10
-28.14
-29.56
-32.97
-39.13
-47.58
-56.94
-65.51
-71.79
-75.09
-75.13
-71.90
-65.29
-55.20
-41.83
-25.99
-9.25
6.25
18.54
26.45
30.01
30.32
29.02
27.56
26.89
27.17
28.21
29.71
31.59
33.92
36.74
39.91
43.04
45.53
46.84
46.70
45.16
42.53
39.22
35.61
32.00
28.49
25.12
21.84
18.66
15.60
12.76
10.19
7.90
5.79
3.61
1.06
-2.07
-5.88
-10.19
-14.69
-19.07
-23.12
-26.92
-30.84
-35.43
-41.28
-48.70
-57.51
-66.81
-75.12
-80.61
-81.70
-77.49
-68.18
-54.95
-39.59
-23.97
-9.52
2.85
12.76
20.11
24.95
27.48
28.06
27.36
26.15
25.24
25.19
26.20
28.18
30.80
33.68
36.53
39.20
41.58
43.55
44.94
45.55
45.25
43.99
41.94
39.30
36.25
32.87
29.19
25.26
21.18
17.19
13.54
10.33
7.42
4.53
1.30
-2.46
-6.72
-11.23
-15.60
-19.61
-23.18
-26.49
-30.02
-34.28
-39.82
-46.90
-55.34
-64.32
-72.45
-77.96
-79.23
-75.22
-65.94
-52.44
-36.51
-20.18
-5.13
7.58
17.53
24.76
29.51
32.10
32.94
32.58
31.67
30.86
30.61
31.12
32.31
33.98
35.89
37.81
39.52
40.80
41.37
41.10
39.96
38.15
35.96
33.60
31.14
28.48
25.38
21.75
17.72
13.65
10.03
7.21
5.20
3.63
1.87
-0.63
-4.14
-8.49
-13.17
-17.62
-21.50
-24.81
-27.86
-31.13
-35.12
-40.15
-46.33
-53.46
-60.99
-67.93
-72.95
-74.60
-71.75
-63.95
-51.63
-36.14
-19.36
-3.28
10.57
21.32
28.86
33.58
36.07
36.89
36.45
35.09
33.18
31.26
29.90
29.63
30.66
32.83
35.63
38.35
40.41
41.46
41.48
40.66
39.27
37.48
35.35
32.77
29.64
25.97
21.97
17.98
14.42
11.60
9.60
8.18
6.85
5.02
2.26
-1.54
-6.03
-10.64
-14.80
-18.25
-21.13
-23.93
-27.22
-31.44
-36.84
-43.49
-51.28
-59.83
-68.32
-75.40
-79.38
-78.74
-72.67
-61.57
-46.95
-30.97
-15.75
-2.76
7.45
15.04
20.47
24.15
26.28
26.94
26.31
24.88
23.37
22.61
23.17
25.22
28.32
31.74
34.64
36.47
37.11
36.88
36.27
35.67
35.17
34.44
33.02
30.56
27.02
22.78
18.35
14.24
10.67
7.60
4.82
2.17
-0.46
-3.05
-5.68
-8.49
-11.69
-15.33
-19.31
-23.32
-27.10
-30.65
-34.40
-39.03
-45.09
-52.58
-60.74
-68.09
-72.84
-73.45
-69.20
-60.30
-47.76
-33.07
-17.78
-3.12
9.93
20.70
28.63
33.33
34.73
33.26
29.90
25.96
22.71
21.02
21.12
22.65
24.94
27.39
29.65
31.67
33.54
35.32
36.94
38.14
38.63
38.11
36.36
33.36
29.29
24.62
19.88
15.58
11.97
8.91
5.90
2.43
-1.80
-6.68
-11.77
-16.51
-20.51
-23.75
-26.59
-29.54
-33.09
-37.60
-43.21
-49.87
-57.31
-64.88
-71.51
-75.78
-76.24
-71.93
-62.69
-49.44
-33.84
-17.93
-3.45
8.44
17.30
23.25
26.70
28.10
27.85
26.31
23.90
21.13
18.65
17.17
17.22
19.02
22.32
26.45
30.54
33.83
35.94
36.88
36.89
36.23
34.88
32.69
29.40
24.99
19.77
14.37
9.53
5.75
3.15
1.34
-0.33
-2.54
-5.65
-9.54
-13.72
-17.59
-20.80
-23.43
-25.98
-29.13
-33.47
-39.32
-46.64
-55.04
-63.74
-71.56
-77.01
-78.56
-75.05
-66.18
-52.65
-36.10
-18.67
-2.41
11.21
21.44
28.24
32.01
33.38
32.96
31.34
29.07
26.70
24.78
23.78
24.04
25.60
28.15
31.11
33.84
35.84
36.89
37.15
36.94
36.52
35.92
34.85
32.85
29.60
25.12
19.88
14.73
10.46
7.56
5.93
4.87
3.45
0.94
-2.87
-7.54
-12.40
-16.77
-20.39
-23.49
-26.54
-30.02
-34.23
-39.30
-45.40
-52.53
-60.33
-67.73
-72.90
-73.73
-68.69
-57.61
-42.04
-24.68
-8.39
4.88
14.58
21.34
26.22
29.95
32.48
33.32
32.12
29.17
25.58
22.84
22.18
24.01
27.47
31.09
33.50
34.15
33.56
33.02
33.61
35.60
37.87
38.70
36.65
31.40
24.10
16.74
11.16
8.11
6.80
5.59
2.92
-1.79
-7.81
-13.67
-17.98
-20.15
-20.84
-21.36
-23.04
-26.54
-31.74
-37.99
-44.57
-50.88
-56.57
-61.15
-63.76
-63.35
-59.03
-50.52
-38.45
-24.21
-9.65
3.53
14.20
21.91
26.79
29.27
29.85
29.02
27.18
24.77
22.28
20.17
18.88
18.62
19.41
21.09
23.31
25.71
27.86
29.39
30.01
29.58
28.14
25.94
23.25
20.33
17.32
14.19
10.81
7.09
3.01
-1.25
-5.41
-9.20
-12.51
-15.47
-18.40
-21.74
-25.80
-30.75
-36.51
-42.80
-49.11
-54.77
-58.86
-60.35
-58.35
-52.36
-42.67
-30.31
-16.87
-4.05
6.83
15.09
20.68
23.99
25.53
25.73
24.96
23.50
21.70
19.98
18.80
18.60
19.59
21.73
24.65
27.67
30.06
31.21
30.88
29.25
26.77
23.90
20.90
17.70
14.03
9.68
4.64
-0.75
-5.96
-10.56
-14.33
-17.40
-20.13
-22.91
-26.08
-29.78
-34.17
-39.40
-45.56
-52.48
-59.45
-65.19
-68.07
-66.57
-60.02
-48.84
-34.55
-19.27
-5.04
6.74
15.57
21.70
25.70
28.09
29.19
29.07
27.86
25.86
23.66
21.98
21.48
22.45
24.76
27.85
31.00
33.56
35.14
35.64
35.16
33.81
31.66
28.73
25.09
20.88
16.46
12.22
8.46
5.28
2.45
-0.41
-3.76
-7.80
-12.43
-17.23
-21.67
-25.46
-28.77
-32.22
-36.69
-42.75
-50.27
-58.19
-64.75
-68.07
-66.83
-60.73
-50.54
-37.77
-24.09
-10.89
0.95
11.00
19.07
25.00
28.64
30.00
29.38
27.51
25.38
24.00
24.01
25.51
28.09
31.08
33.92
36.36
38.46
40.32
41.92
42.94
42.88
41.39
38.47
34.50
30.13
26.00
22.40
19.30
16.35
13.13
9.42
5.21
0.74
-3.67
-7.77
-11.46
-14.82
-18.12
-21.69
-25.89
-31.09
-37.54
-45.31
-53.97
-62.52
-69.50
-73.23
-72.33
-66.22
-55.40
-41.29
-25.86
-11.07
1.69
11.77
19.22
24.49
28.05
30.26
31.32
31.40
30.88
30.35
30.42
31.46
33.38
35.59
37.31
37.88
37.11
35.26
32.81
30.15
27.43
24.52
21.22
17.51
13.63
10.02
7.05
4.89
3.28
1.69
-0.50
-3.69
-7.84
-12.49
-16.95
-20.64
-23.34
-25.39
-27.47
-30.35
-34.58
-40.26
-47.03
-54.08
-60.28
-64.26
-64.69
-60.62
-51.86
-39.15
-24.05
-8.58
5.47
16.92
25.39
31.12
34.56
36.13
36.01
34.41
31.69
28.61
26.17
25.33
26.63
29.93
34.31
38.53
41.46
42.52
41.80
39.91
37.54
35.12
32.60
29.66
25.97
21.46
16.38
11.17
6.19
1.56
-2.87
-7.30
-11.79
-16.19
-20.30
-24.10
-27.88
-32.21
-37.70
-44.53
-52.19
-59.45
-64.65
-66.20
-63.11
-55.24
-43.34
-28.90
-13.67
0.64
12.75
21.92
28.02
31.32
32.33
31.61
29.68
27.06
24.30
22.02
20.81
21.06
22.82
25.71
29.01
31.93
33.80
34.38
33.74
32.26
30.28
27.98
25.20
21.61
16.85
10.83
3.75
-3.85
-11.24
-17.77
-23.07
-27.16
-30.42
-33.51
-37.18
-42.07
-48.44
-56.04
-64.04
-71.06
-75.54
-76.06
-71.74
-62.52
-49.22
-33.35
-16.82
-1.46
11.34
20.83
26.95
30.20
31.35
31.25
30.53
29.64
28.84
28.35
28.42
29.31
31.18
34.01
37.43
40.82
43.47
44.77
44.47
42.65
39.74
36.20
32.35
28.23
23.65
18.38
12.33
5.70
-1.09
-7.56
-13.38
-18.48
-23.03
-27.28
-31.45
-35.75
-40.42
-45.84
-52.34
-60.02
-68.26
-75.63
-80.06
-79.49
-72.68
-59.78
-42.40
-23.07
-4.44
11.50
23.85
32.63
38.42
41.83
43.26
42.92
41.09
38.24
35.16
32.82
31.96
32.89
35.31
38.45
41.41
43.46
44.30
44.00
42.60
40.08
36.33
31.30
25.38
19.41
14.33
10.74
8.39
6.28
3.17
-1.79
-8.43
-15.75
-22.37
-27.29
-30.47
-32.70
-35.17
-38.91
-44.33
-51.26
-59.07
-66.82
-73.55
-78.06
-79.03
-75.23
-65.93
-51.30
-32.71
-12.42
6.70
22.21
32.70
38.11
39.59
38.89
37.59
36.57
35.76
34.61
32.73
30.32
28.26
27.59
28.93
32.07
35.86
38.92
40.19
39.41
37.08
34.05
30.96
28.05
25.05
21.59
17.50
12.92
8.14
3.46
-1.02
-5.32
-9.59
-13.87
-18.06
-22.03
-25.70
-29.16
-32.75
-36.91
-42.09
-48.51
-55.98
-63.67
-70.17
-73.69
-72.57
-65.83
-53.62
-37.29
-19.10
-1.50
13.54
24.94
32.60
37.06
39.05
39.17
37.77
35.12
31.58
27.83
24.76
23.21
23.65
25.98
29.51
33.22
36.11
37.54
37.37
35.88
33.56
30.80
27.77
24.37
20.42
15.80
10.54
4.92
-0.75
-6.15
-11.15
-15.76
-20.09
-24.24
-28.27
-32.22
-36.26
-40.72
-46.04
-52.50
-59.81
-66.94
-72.13
-73.43
-69.35
-59.49
-44.79
-27.29
-9.47
6.50
19.28
28.53
34.61
38.10
39.49
39.01
36.86
33.40
29.37
25.77
23.55
23.29
24.98
28.03
31.58
34.74
36.88
37.74
37.27
35.64
33.08
29.75
25.80
21.30
16.28
10.78
4.87
-1.32
-7.61
-13.86
-19.93
-25.68
-30.99
-35.75
-39.95
-43.83
-47.92
-53.02
-59.71
-67.96
-76.76
-84.16
-87.78
-85.60
-76.79
-62.05
-43.38
-23.39
-4.48
11.74
24.59
34.07
40.38
43.75
44.40
42.70
39.40
35.50
32.10
29.97
29.45
30.38
32.22
34.43
36.57
38.44
39.95
41.00
41.40
40.74
38.58
34.74
29.33
22.96
16.42
10.43
5.26
0.70
-3.83
-8.86
-14.60
-20.73
-26.60
-31.56
-35.35
-38.24
-41.00
-44.60
-49.84
-57.08
-66.03
-75.74
-84.67
-90.98
-92.79
-88.73
-78.30
-62.13
-41.92
-20.12
0.70
18.39
31.66
40.22
44.63
45.92
45.19
43.33
40.97
38.53
36.36
34.81
34.20
34.70
36.14
38.13
40.13
41.71
42.59
42.73
42.07
40.55
37.99
34.28
29.54
24.11
18.54
13.34
8.77
4.76
0.96
-3.08
-7.67
-12.85
-18.33
-23.66
-28.41
-32.46
-36.02
-39.73
-44.48
-51.06
-59.82
-70.25
-80.82
-89.20
-92.81
-89.68
-79.16
-62.23
-41.21
-19.05
1.55
18.73
31.73
40.60
45.87
48.16
48.09
46.28
43.41
40.18
37.26
35.15
34.15
34.34
35.61
37.67
40.11
42.46
44.17
44.76
43.87
41.36
37.40
32.35
26.73
20.95
15.22
9.58
3.98
-1.60
-7.03
-12.14
-16.74
-20.84
-24.60
-28.33
-32.31
-36.83
-42.13
-48.50
-56.11
-64.81
-73.83
-81.53
-85.79
-84.52
-76.47
-61.87
-42.50
-21.21
-0.95
16.07
28.84
37.37
42.31
44.24
43.56
40.52
35.61
29.78
24.44
20.97
20.29
22.41
26.50
31.13
34.99
37.23
37.73
36.85
35.16
32.97
30.21
26.52
21.46
14.91
7.17
-1.09
-9.05
-16.00
-21.58
-25.84
-29.19
-32.33
-36.08
-41.33
-48.70
-58.26
-69.15
-79.55
-86.92
-88.82
-83.73
-71.58
-53.95
-33.39
-12.59
6.32
22.18
34.58
43.52
49.01
51.05
49.86
46.09
40.92
35.80
32.12
30.73
31.73
34.48
37.94
40.99
42.81
43.11
41.97
39.74
36.76
33.20
29.01
24.07
18.27
11.64
4.42
-3.06
-10.38
-17.17
-23.24
-28.50
-33.16
-37.59
-42.34
-48.07
-55.28
-64.10
-73.89
-83.13
-89.61
-90.98
-85.59
-73.10
-54.76
-33.02
-10.70
9.85
27.14
40.67
50.48
56.78
59.75
59.57
56.70
51.99
46.70
42.11
39.24
38.53
39.75
42.21
45.04
47.54
49.27
50.04
49.75
48.30
45.56
41.49
36.31
30.42
24.35
18.46
12.84
7.28
1.52
-4.56
-10.74
-16.62
-21.83
-26.34
-30.56
-35.30
-41.41
-49.51
-59.61
-70.98
-82.13
-90.94
-95.12
-92.73
-82.83
-65.84
-43.60
-18.90
5.21
26.15
42.30
53.13
58.93
60.50
58.85
55.18
50.62
46.33
43.24
41.88
42.30
44.09
46.62
49.28
51.44
52.73
52.94
52.03
50.13
47.51
44.46
41.18
37.56
33.36
28.34
22.52
16.26
10.11
4.53
-0.44
-5.28
-10.68
-17.09
-24.37
-31.71
-38.12
-43.04
-46.77
-50.84
-57.09
-66.75
-79.41
-92.67
-102.72
-105.77
-99.43
-83.93
-61.81
-36.86
-12.66
8.54
26.06
40.17
51.22
58.98
62.75
62.06
57.34
50.20
42.90
37.56
35.38
36.21
39.00
42.38
45.32
47.51
49.12
50.44
51.58
52.18
51.67
49.53
45.59
40.19
34.02
27.89
22.46
17.87
13.80
9.58
4.53
-1.68
-8.86
-16.35
-23.29
-28.98
-33.22
-36.41
-39.42
-43.35
-49.14
-57.20
-67.13
-77.67
-86.79
-92.14
-91.62
-84.04
-69.56
-49.64
-26.74
-3.59
17.41
34.58
47.02
54.46
57.15
55.71
51.15
44.80
38.09
32.32
28.35
26.48
26.53
28.03
30.47
33.35
36.23
38.65
40.13
40.25
38.75
35.67
31.33
26.23
20.85
15.49
10.23
4.95
-0.53
-6.33
-12.37
-18.42
-24.16
-29.36
-33.92
-37.96
-41.81
-45.97
-50.98
-57.39
-65.42
-74.75
-84.25
-92.01
-95.70
-93.26
-83.59
-67.13
-45.72
-22.17
0.55
20.10
35.11
45.25
50.92
52.87
51.94
48.95
44.70
40.05
35.83
32.85
31.70
32.49
34.91
38.23
41.52
44.02
45.23
45.06
43.66
41.18
37.70
33.18
27.54
20.96
13.85
6.83
0.49
-4.95
-9.69
-14.29
-19.33
-25.12
-31.46
-37.76
-43.35
-47.87
-51.53
-55.10
-59.65
-66.11
-74.80
-85.05
-95.17
-102.76
-105.24
-100.69
-88.45
-69.42
-45.87
-20.75
3.07
23.49
39.34
50.28
56.49
58.40
56.63
52.10
46.04
39.92
35.10
32.56
32.55
34.59
37.82
41.28
44.35
46.77
48.57
49.79
50.28
49.67
47.53
43.60
38.01
31.32
24.27
17.61
11.82
7.01
2.89
-0.99
-5.10
-9.78
-15.05
-20.70
-26.37
-31.65
-36.32
-40.37
-44.06
-47.96
-52.83
-59.49
-68.39
-79.21
-90.52
-99.80
-104.05
-100.77
-88.88
-69.25
-44.49
-18.11
6.59
27.34
43.18
54.12
60.66
63.31
62.49
58.79
53.05
46.60
40.83
36.94
35.51
36.32
38.61
41.42
44.03
46.18
47.99
49.69
51.26
52.30
52.14
50.15
46.13
40.42
33.90
27.52
22.00
17.51
13.64
9.68
4.95
-0.83
-7.40
-14.11
-20.19
-25.08
-28.72
-31.46
-34.07
-37.45
-42.46
-49.67
-59.08
-69.93
-80.53
-88.48
-91.25
-86.91
-74.95
-56.50
-34.07
-10.74
10.74
28.61
42.19
51.49
56.77
58.24
56.12
50.88
43.48
35.32
27.89
22.39
19.30
18.42
19.15
20.80
22.92
25.34
27.98
30.64
32.81
33.77
32.95
30.14
25.66
20.25
14.66
9.33
4.10
-1.55
-8.08
-15.54
-23.36
-30.62
-36.55
-40.87
-44.00
-46.80
-50.26
-55.06
-61.43
-69.02
-76.93
-83.73
-87.64
-86.89
-80.21
-67.32
-49.25
-28.09
-6.46
13.29
29.51
41.55
49.43
53.53
54.19
51.79
46.79
39.97
32.46
25.54
20.35
17.52
17.06
18.48
21.03
24.05
27.08
29.87
32.16
33.61
33.79
32.37
29.28
24.84
19.64
14.24
8.94
3.70
-1.80
-7.87
-14.56
-21.58
-28.39
-34.47
-39.58
-43.82
-47.69
-51.89
-57.08
-63.62
-71.29
-79.09
-85.29
-87.81
-84.78
-75.18
-59.32
-38.82
-16.15
5.98
25.38
40.63
51.16
57.02
58.64
56.64
51.83
45.19
37.84
30.87
25.27
21.69
20.41
21.33
24.00
27.75
31.77
35.28
37.60
38.31
37.29
34.77
31.18
27.00
22.54
17.90
12.89
7.28
0.96
-5.91
-12.90
-19.45
-25.13
-29.77
-33.52
-36.79
-40.11
-43.98
-48.85
-55.02
-62.44
-70.59
-78.23
-83.55
-84.51
-79.42
-67.70
-50.17
-29.00
-7.08
12.81
28.79
40.12
47.10
50.50
51.10
49.38
45.62
40.17
33.73
27.39
22.38
19.64
19.53
21.67
25.22
29.22
32.93
35.96
38.15
39.40
39.51
38.24
35.44
31.18
25.82
19.85
13.72
7.64
1.54
-4.70
-11.16
-17.64
-23.74
-29.00
-33.19
-36.58
-39.94
-44.24
-50.38
-58.59
-68.13
-77.33
-83.94
-85.94
-82.04
-72.14
-57.24
-39.03
-19.42
-0.20
17.19
31.46
41.63
47.20
48.25
45.59
40.59
34.77
29.44
25.20
22.17
20.19
19.18
19.29
20.69
23.31
26.63
29.58
31.08
30.45
27.81
23.95
19.89
16.32
13.26
9.97
5.59
-0.35
-7.55
-15.05
-21.71
-26.80
-30.27
-32.87
-35.73
-39.83
-45.69
-53.08
-61.04
-68.05
-72.25
-72.07
-66.53
-55.65
-40.46
-22.71
-4.42
12.54
26.86
37.67
44.54
47.35
46.34
42.13
35.77
28.59
21.94
16.88
13.95
13.15
14.03
15.85
17.90
19.71
21.07
21.96
22.40
22.17
20.84
17.89
13.03
6.48
-1.01
-8.41
-14.80
-19.80
-23.68
-27.23
-31.42
-37.00
-44.26
-52.93
-62.12
-70.48
-76.31
-77.95
-74.12
-64.38
-49.31
-30.47
-10.06
9.57
26.45
39.26
47.39
50.95
50.51
47.02
41.53
35.09
28.65
23.00
18.71
16.14
15.42
16.39
18.63
21.53
24.42
26.72
27.94
27.74
25.92
22.37
17.13
10.44
2.71
-5.47
-13.50
-20.92
-27.52
-33.51
-39.48
-46.25
-54.56
-64.57
-75.46
-85.29
-91.43
-91.36
-83.57
-68.22
-47.17
-23.37
-0.00
20.45
36.56
47.97
54.87
57.73
57.00
53.24
47.33
40.54
34.40
30.24
28.83
30.03
32.86
35.97
38.13
38.69
37.77
35.90
33.58
30.88
27.34
22.25
15.12
6.15
-3.77
-13.36
-21.47
-27.62
-32.15
-36.02
-40.47
-46.56
-54.82
-65.07
-76.27
-86.57
-93.53
-94.64
-88.14
-73.64
-52.48
-27.49
-2.17
20.36
38.10
50.39
57.70
60.96
61.09
58.79
54.58
49.15
43.43
38.59
35.67
35.20
37.00
40.16
43.38
45.41
45.45
43.39
39.66
35.01
30.14
25.40
20.70
15.58
9.49
2.10
-6.48
-15.63
-24.42
-32.02
-38.00
-42.59
-46.62
-51.21
-57.45
-65.98
-76.82
-89.16
-101.27
-110.68
-114.60
-110.58
-97.39
-75.67
-47.91
-17.93
10.28
33.57
50.36
60.65
65.53
66.47
64.83
61.62
57.62
53.53
50.12
48.06
47.82
49.44
52.47
56.08
59.25
61.11
61.10
59.09
55.36
50.42
44.83
38.95
32.91
26.59
19.77
12.35
4.50
-3.39
-10.78
-17.29
-22.82
-27.59
-32.07
-36.74
-42.06
-48.48
-56.41
-66.14
-77.51
-89.41
-99.63
-105.14
-102.94
-91.22
-70.24
-42.49
-11.98
16.99
41.09
58.67
69.73
75.26
76.60
74.91
71.16
66.29
61.40
57.68
56.02
56.79
59.53
63.25
66.77
69.18
70.07
69.52
67.74
64.87
60.83
55.44
48.69
40.88
32.55
24.37
16.75
9.65
2.60
-4.94
-13.30
-22.24
-31.09
-38.90
-45.09
-49.70
-53.66
-58.43
-65.56
-75.99
-89.57
-104.73
-118.61
-127.62
-128.44
-119.10
-99.71
-72.66
-41.93
-11.91
13.92
33.79
47.66
56.56
61.79
64.28
64.53
62.91
60.06
57.09
55.21
55.34
57.61
61.27
64.99
67.43
67.81
66.19
63.29
60.07
57.21
54.73
52.04
48.28
42.80
35.55
27.19
18.83
11.62
6.21
2.51
-0.29
-3.36
-7.79
-14.03
-21.83
-30.26
-38.26
-45.04
-50.39
-54.76
-59.00
-64.14
-71.13
-80.67
-92.99
-107.37
-121.86
-133.26
-137.71
-132.01
-114.87
-87.81
-54.81
-21.11
8.58
31.47
47.10
56.83
62.64
66.15
68.13
68.76
68.06
66.43
64.68
63.75
64.28
66.28
69.13
71.83
73.48
73.59
72.20
69.74
66.68
63.32
59.63
55.45
50.59
45.09
39.21
33.29
27.62
22.33
17.36
12.64
8.13
3.86
-0.12
-3.85
-7.60
-11.78
-16.81
-22.85
-29.74
-36.96
-43.89
-50.01
-55.22
-59.94
-65.07
-71.74
-80.90
-92.78
-106.38
-119.36
-128.31
-129.75
-121.24
-102.44
-75.46
-44.24
-13.32
13.53
34.23
48.53
57.37
62.10
63.82
63.27
61.08
58.04
55.19
53.59
53.89
56.08
59.46
62.97
65.60
66.67
66.06
64.10
61.34
58.33
55.42
52.59
49.55
45.73
40.61
34.06
26.47
18.81
12.25
7.63
5.01
3.45
1.40
-2.60
-9.19
-17.85
-27.20
-35.61
-42.00
-46.42
-49.86
-53.82
-59.63
-68.00
-78.87
-91.50
-104.45
-115.83
-123.17
-123.85
-115.78
-98.21
-72.36
-41.47
-9.87
18.02
39.18
52.57
59.11
60.91
60.21
58.64
56.89
54.89
52.40
49.52
46.88
45.39
45.79
48.06
51.47
54.64
56.30
55.86
53.61
50.52
47.63
45.42
43.66
41.40
37.73
32.20
25.15
17.53
10.50
4.84
0.76
-2.27
-5.26
-9.20
-14.74
-21.90
-30.07
-38.23
-45.34
-50.83
-54.77
-57.93
-61.54
-66.82
-74.67
-85.36
-98.24
-111.64
-122.94
-129.03
-127.00
-115.22
-94.05
-66.03
-35.21
-5.94
18.41
36.24
47.64
53.84
56.38
56.54
55.20
53.06
50.79
49.05
48.37
49.01
50.81
53.40
56.30
59.07
61.42
63.09
63.84
63.46
61.80
58.87
54.82
49.93
44.50
38.80
32.98
27.08
21.15
15.24
9.47
4.00
-1.09
-5.79
-10.29
-14.88
-19.89
-25.53
-31.78
-38.39
-44.91
-50.87
-56.00
-60.24
-63.90
-67.54
-71.90
-77.81
-85.87
-96.17
-107.80
-118.65
-125.59
-125.31
-115.39
-95.47
-67.59
-35.76
-4.68
21.70
41.23
53.75
60.53
63.33
63.68
62.46
60.11
56.98
53.65
50.87
49.44
49.80
51.84
54.92
58.07
60.43
61.48
61.21
59.97
58.15
55.98
53.33
49.86
45.24
39.35
32.48
25.24
18.34
12.35
7.51
3.74
0.69
-2.02
-4.71
-7.57
-10.72
-14.29
-18.38
-23.09
-28.34
-33.92
-39.45
-44.68
-49.60
-54.63
-60.55
-68.25
-78.24
-90.14
-102.35
-112.08
-116.10
-111.68
-97.67
-75.07
-46.85
-17.04
10.47
32.93
49.18
59.37
64.43
65.40
63.23
58.75
52.90
46.81
41.68
38.48
37.62
38.88
41.48
44.38
46.77
48.21
48.72
48.63
48.26
47.70
46.63
44.53
40.89
35.54
28.88
21.66
14.81
8.99
4.37
0.63
-2.88
-6.75
-11.32
-16.57
-22.20
-27.81
-33.07
-37.80
-42.00
-45.86
-49.80
-54.47
-60.57
-68.63
-78.54
-89.30
-98.90
-104.68
-104.08
-95.52
-79.02
-56.31
-30.40
-4.62
18.25
36.52
49.70
58.02
62.01
62.22
59.20
53.76
47.08
40.61
35.74
33.24
33.09
34.57
36.66
38.48
39.71
40.42
40.91
41.34
41.49
40.88
38.95
35.35
30.15
23.80
16.97
10.31
4.26
-1.11
-6.05
-10.99
-16.28
-22.04
-28.05
-33.89
-39.13
-43.54
-47.23
-50.66
-54.47
-59.42
-66.13
-74.86
-85.22
-95.93
-104.80
-109.17
-106.64
-95.98
-77.63
-53.70
-27.29
-1.60
21.02
39.30
52.90
61.91
66.54
67.04
63.96
58.37
51.82
45.95
41.96
40.23
40.30
41.24
42.20
42.79
43.18
43.76
44.80
45.99
46.55
45.56
42.42
37.18
30.58
23.68
17.46
12.31
8.02
3.98
-0.41
-5.51
-11.25
-17.28
-23.15
-28.55
-33.34
-37.59
-41.51
-45.54
-50.31
-56.55
-64.84
-75.21
-86.77
-97.59
-105.03
-106.53
-100.34
-86.29
-65.82
-41.59
-16.68
6.24
25.30
39.59
48.98
53.82
54.75
52.67
48.65
43.81
39.22
35.67
33.60
33.04
33.74
35.30
37.31
39.48
41.63
43.58
45.09
45.77
45.15
42.85
38.78
33.16
26.61
19.86
13.55
8.05
3.37
-0.78
-4.84
-9.21
-14.14
-19.58
-25.32
-30.96
-36.12
-40.59
-44.45
-48.18
-52.61
-58.67
-66.94
-77.19
-88.02
-97.00
-101.27
-98.47
-87.62
-69.55
-46.69
-22.15
1.14
21.14
36.95
48.38
55.68
59.10
58.95
55.70
50.21
43.70
37.48
32.66
29.82
28.96
29.58
31.04
32.87
34.85
36.94
39.10
41.04
42.15
41.73
39.27
34.79
28.83
22.30
15.97
10.22
4.89
-0.51
-6.39
-12.78
-19.30
-25.33
-30.41
-34.47
-37.87
-41.28
-45.39
-50.78
-57.78
-66.33
-75.82
-84.93
-91.65
-93.70
-89.14
-77.19
-58.65
-35.79
-11.74
10.43
28.51
41.50
49.47
53.22
53.67
51.67
47.83
42.69
36.87
31.20
26.57
23.74
22.90
23.78
25.67
27.81
29.68
31.17
32.37
33.29
33.55
32.53
29.68
24.89
18.68
11.96
5.60
-0.02
-5.18
-10.45
-16.28
-22.66
-29.04
-34.64
-39.02
-42.32
-45.60
-50.24
-57.38
-67.27
-78.73
-89.34
-96.13
-96.44
-89.20
-75.00
-55.94
-34.74
-13.81
5.31
21.84
35.38
45.33
50.94
51.79
48.25
41.73
34.41
28.39
25.06
24.52
25.93
28.11
30.19
31.95
33.64
35.55
37.71
39.61
40.50
39.81
37.38
33.57
29.01
24.23
19.53
14.70
9.40
3.37
-3.39
-10.46
-17.30
-23.44
-28.69
-33.36
-38.14
-43.86
-51.27
-60.64
-71.49
-82.45
-91.38
-95.85
-93.84
-84.39
-68.06
-46.82
-23.49
-0.95
18.58
33.91
44.74
51.31
54.05
53.36
49.75
43.99
37.24
30.91
26.32
24.29
24.89
27.46
30.93
34.20
36.52
37.65
37.70
36.95
35.58
33.53
30.56
26.38
20.84
14.08
6.49
-1.36
-8.95
-15.89
-22.03
-27.47
-32.39
-37.07
-41.86
-47.21
-53.58
-61.26
-69.95
-78.50
-84.93
-86.87
-82.45
-71.03
-53.61
-32.53
-10.69
9.31
25.89
38.41
46.89
51.58
52.61
50.23
45.00
38.01
30.86
25.13
21.97
21.72
23.78
27.07
30.31
32.61
33.58
33.35
32.31
30.84
28.97
26.41
22.63
17.15
9.88
1.25
-7.88
-16.51
-23.90
-29.85
-34.64
-38.92
-43.33
-48.47
-54.82
-62.69
-72.07
-82.22
-91.51
-97.50
-97.54
-89.74
-73.85
-51.52
-25.90
-0.66
21.19
37.96
49.42
56.30
59.56
60.02
58.09
54.15
48.83
43.21
38.60
36.15
36.34
38.78
42.33
45.62
47.52
47.58
46.00
43.41
40.39
37.21
33.71
29.48
24.08
17.29
9.32
0.66
-7.99
-16.05
-23.15
-29.24
-34.57
-39.58
-44.80
-50.89
-58.49
-68.09
-79.62
-92.09
-103.45
-110.81
-111.21
-102.69
-85.11
-60.35
-31.87
-3.59
21.22
40.71
54.50
63.22
67.90
69.46
68.54
65.74
61.78
57.60
54.18
52.28
52.08
53.22
54.95
56.47
57.20
56.98
55.90
54.07
51.46
47.85
43.03
37.00
30.10
22.99
16.33
10.52
5.46
0.66
-4.55
-10.60
-17.45
-24.63
-31.45
-37.37
-42.36
-46.97
-52.23
-59.27
-68.86
-80.96
-94.36
-106.65
-114.62
-115.13
-106.13
-87.56
-61.52
-31.75
-2.44
22.92
42.37
55.54
63.15
66.33
66.18
63.63
59.53
54.82
50.44
47.22
45.63
45.70
47.13
49.40
51.91
54.08
55.49
55.82
54.94
52.81
49.51
45.21
40.10
34.48
28.66
22.90
17.28
11.70
5.91
-0.31
-7.06
-14.12
-21.07
-27.45
-32.96
-37.54
-41.60
-45.83
-51.25
-58.84
-69.05
-81.29
-93.55
-102.62
-104.98
-98.03
-81.29
-56.75
-28.32
-0.48
23.20
40.95
52.75
59.68
62.93
63.31
61.27
57.21
51.94
46.68
42.73
41.04
41.79
44.39
47.79
50.91
52.97
53.69
53.12
51.49
48.96
45.58
41.32
36.18
30.26
23.70
16.65
9.27
1.67
-6.00
-13.48
-20.47
-26.71
-32.10
-36.78
-41.05
-45.44
-50.63
-57.31
-65.99
-76.62
-88.07
-98.02
-103.33
-100.96
-89.19
-68.51
-41.69
-12.98
13.38
34.42
49.05
57.81
62.01
62.95
61.42
57.90
52.97
47.55
42.82
39.91
39.30
40.70
43.15
45.49
46.91
47.19
46.70
46.01
45.43
44.71
43.17
40.04
34.96
28.31
21.02
14.22
8.56
3.99
-0.25
-5.14
-11.37
-18.90
-26.98
-34.56
-40.82
-45.58
-49.45
-53.57
-59.21
-67.28
-78.00
-90.64
-103.41
-113.66
-118.32
-114.75
-101.68
-79.84
-51.98
-22.12
5.70
28.52
45.16
55.97
62.17
65.05
65.49
64.02
61.16
57.60
54.26
52.04
51.41
52.23
53.88
55.51
56.41
56.30
55.32
53.89
52.38
50.92
49.25
46.85
43.21
38.08
31.66
24.57
17.69
11.78
7.23
3.84
0.89
-2.58
-7.41
-13.90
-21.71
-29.92
-37.44
-43.47
-47.83
-51.13
-54.45
-59.10
-66.06
-75.71
-87.46
-99.77
-110.18
-115.76
-113.92
-103.16
-83.86
-58.26
-29.87
-2.55
20.71
38.29
50.00
56.64
59.40
59.40
57.58
54.59
51.02
47.46
44.57
42.99
43.25
45.44
49.12
53.13
56.10
56.93
55.34
52.04
48.28
45.03
42.49
39.78
35.60
29.13
20.64
11.52
3.70
-1.45
-3.70
-4.34
-5.29
-8.20
-13.59
-20.61
-27.64
-33.12
-36.36
-38.00
-39.42
-42.05
-46.70
-53.28
-61.20
-69.88
-78.93
-88.10
-96.61
-102.63
-103.52
-96.70
-80.94
-57.29
-28.96
-0.41
24.17
42.23
53.26
58.43
59.51
58.12
55.30
51.53
47.22
42.95
39.48
37.52
37.40
38.93
41.54
44.37
46.69
48.03
48.20
47.22
45.17
42.09
37.97
32.87
26.87
20.25
13.37
6.65
0.40
-5.24
-10.34
-15.15
-19.91
-24.77
-29.71
-34.48
-38.83
-42.60
-45.94
-49.39
-53.76
-59.90
-68.21
-78.26
-88.55
-96.58
-99.50
-95.01
-82.22
-62.13
-37.41
-11.63
11.85
30.77
44.26
52.68
56.93
57.91
56.28
52.55
47.32
41.50
36.24
32.58
31.11
31.75
33.82
36.40
38.68
40.18
40.88
40.91
40.29
38.82
36.09
31.72
25.66
18.35
10.65
3.47
-2.62
-7.59
-12.01
-16.66
-22.09
-28.33
-34.84
-40.85
-45.68
-49.18
-51.85
-54.65
-58.77
-65.08
-73.81
-84.22
-94.60
-102.49
-105.24
-100.77
-88.24
-68.47
-43.76
-17.34
7.58
28.51
44.14
54.27
59.48
60.68
58.86
55.01
50.12
45.17
41.04
38.38
37.45
38.08
39.79
41.92
43.85
45.10
45.42
44.80
43.29
40.99
37.89
33.91
29.00
23.25
17.01
10.79
5.10
0.25
-3.83
-7.56
-11.52
-16.21
-21.85
-28.25
-34.95
-41.30
-46.77
-51.15
-54.73
-58.29
-62.91
-69.54
-78.44
-88.75
-98.36
-104.37
-103.98
-95.43
-78.69
-55.59
-29.16
-2.78
20.84
40.04
54.22
63.40
67.94
68.25
64.98
59.16
52.20
45.68
40.94
38.64
38.66
40.28
42.59
44.87
46.81
48.41
49.82
51.00
51.68
51.35
49.50
45.84
40.47
33.84
26.70
19.83
13.79
8.77
4.52
0.48
-3.89
-8.96
-14.68
-20.67
-26.41
-31.49
-35.86
-39.81
-43.97
-49.07
-55.72
-64.24
-74.36
-85.04
-94.47
-100.25
-99.98
-92.06
-76.30
-54.17
-28.46
-2.49
20.82
39.61
53.19
61.78
65.92
66.21
63.22
57.69
50.69
43.61
37.88
34.51
33.79
35.21
37.78
40.47
42.59
44.00
44.90
45.53
45.79
45.19
43.09
39.06
33.17
26.07
18.67
11.72
5.53
-0.10
-5.57
-11.15
-16.80
-22.20
-27.06
-31.22
-34.89
-38.45
-42.33
-46.91
-52.55
-59.47
-67.64
-76.49
-84.66
-90.12
-90.65
-84.62
-71.78
-53.38
-31.96
-10.40
8.86
24.45
36.00
43.82
48.33
49.80
48.35
44.24
38.27
31.68
25.94
22.32
21.35
22.76
25.52
28.38
30.35
31.03
30.60
29.68
28.77
28.03
27.10
25.30
21.98
16.83
10.04
2.33
-5.42
-12.43
-18.32
-23.14
-27.36
-31.59
-36.48
-42.47
-49.79
-58.19
-66.94
-74.83
-80.22
-81.48
-77.41
-67.67
-52.95
-34.88
-15.55
2.92
18.90
31.41
40.06
44.91
46.27
44.60
40.52
34.85
28.62
22.93
18.71
16.52
16.33
17.69
19.80
21.91
23.54
24.44
24.64
24.15
22.88
20.63
17.14
12.26
6.08
-1.06
-8.65
-16.12
-23.07
-29.27
-34.74
-39.73
-44.70
-50.28
-57.00
-65.06
-73.93
-82.20
-87.72
-88.22
-82.10
-69.12
-50.58
-28.99
-7.21
12.40
28.48
40.63
48.98
53.76
55.09
53.10
48.29
41.73
34.90
29.34
26.08
25.35
26.50
28.46
30.13
30.91
30.81
30.27
29.71
29.26
28.53
26.83
23.51
18.31
11.50
3.78
-4.09
-11.48
-18.08
-23.90
-29.14
-34.13
-39.30
-45.20
-52.37
-61.00
-70.64
-79.95
-86.83
-88.95
-84.52
-72.99
-55.33
-33.80
-11.27
9.59
26.92
39.88
48.45
53.06
54.24
52.51
48.46
42.91
36.95
31.78
28.46
27.55
28.96
31.99
35.55
38.61
40.49
41.02
40.39
38.85
36.52
33.22
28.63
22.46
14.83
6.26
-2.44
-10.44
-17.20
-22.69
-27.20
-31.26
-35.29
-39.55
-44.32
-49.89
-56.65
-64.77
-73.77
-82.20
-87.80
-88.14
-81.74
-68.60
-50.39
-29.76
-9.32
9.12
24.72
37.26
46.47
51.98
53.43
51.08
46.08
40.33
35.77
33.72
34.20
36.34
38.90
40.96
42.37
43.51
44.80
46.28
47.19
46.55
43.63
38.46
31.94
25.29
19.46
14.66
10.19
5.11
-1.18
-8.48
-15.92
-22.41
-27.34
-30.87
-34.06
-38.26
-44.56
-53.24
-63.43
-73.35
-80.57
-82.70
-78.18
-66.67
-49.29
-28.31
-6.49
13.60
30.17
42.40
50.19
53.85
53.87
50.76
45.24
38.32
31.29
25.49
21.96
21.12
22.67
25.73
29.24
32.28
34.37
35.41
35.58
35.09
34.03
32.32
29.78
26.27
21.74
16.32
10.22
3.73
-2.84
-9.26
-15.37
-21.11
-26.47
-31.56
-36.58
-41.89
-47.97
-55.22
-63.63
-72.50
-80.30
-84.83
-83.99
-76.48
-62.37
-43.27
-21.81
-0.82
17.48
31.90
42.21
48.73
51.91
52.04
49.39
44.49
38.24
31.99
27.12
24.65
24.86
27.15
30.35
33.17
34.66
34.61
33.36
31.50
29.44
27.11
24.05
19.74
13.96
7.05
-0.19
-6.90
-12.48
-16.86
-20.41
-23.70
-27.25
-31.39
-36.34
-42.30
-49.35
-57.23
-65.06
-71.28
-73.91
-71.16
-62.14
-47.33
-28.50
-8.25
10.81
26.72
38.46
45.95
49.58
49.95
47.61
43.16
37.39
31.31
26.00
22.35
20.72
20.86
22.00
23.25
23.92
23.77
22.97
21.82
20.46
18.68
16.00
11.89
6.13
-1.02
-8.81
-16.26
-22.59
-27.51
-31.38
-35.13
-39.86
-46.36
-54.83
-64.49
-73.73
-80.39
-82.35
-78.20
-67.67
-51.78
-32.51
-12.23
6.96
23.55
36.66
45.92
51.21
52.58
50.34
45.31
38.75
32.18
26.98
23.98
23.30
24.35
26.17
27.84
28.75
28.71
27.89
26.56
24.91
22.83
20.04
16.17
11.04
4.74
-2.35
-9.67
-16.68
-23.04
-28.67
-33.74
-38.64
-43.99
-50.44
-58.52
-68.22
-78.69
-88.11
-93.98
-93.86
-86.24
-71.18
-50.42
-26.86
-3.67
16.64
32.70
44.22
51.61
55.47
56.26
54.38
50.35
45.10
39.87
35.93
34.19
34.86
37.36
40.63
43.54
45.30
45.61
44.63
42.72
40.18
37.13
33.44
28.92
23.45
17.08
10.05
2.71
-4.56
-11.43
-17.72
-23.36
-28.48
-33.29
-38.23
-43.88
-50.88
-59.62
-69.87
-80.47
-89.22
-93.47
-90.81
-80.07
-61.90
-38.69
-13.77
9.52
28.87
43.18
52.50
57.50
58.95
57.64
54.40
50.19
46.17
43.29
42.11
42.63
44.36
46.63
48.91
50.92
52.46
53.34
53.23
51.71
48.57
43.94
38.33
32.43
26.85
21.76
16.94
11.95
6.44
0.35
-5.96
-12.08
-17.64
-22.61
-27.28
-32.00
-37.06
-42.61
-48.73
-55.63
-63.52
-72.36
-81.41
-88.96
-92.58
-89.95
-79.77
-62.46
-40.13
-16.01
6.72
25.73
39.98
49.44
54.70
56.40
55.20
51.76
47.00
42.03
38.01
35.80
35.72
37.54
40.60
44.07
47.22
49.46
50.40
49.90
47.98
44.88
40.96
36.62
32.11
27.51
22.70
17.48
11.75
5.63
-0.55
-6.42
-11.69
-16.35
-20.61
-24.92
-29.76
-35.54
-42.50
-50.51
-59.04
-67.02
-72.92
-75.14
-72.35
-64.00
-50.59
-33.56
-14.92
3.22
19.11
31.55
39.92
44.11
44.42
41.53
36.45
30.32
24.30
19.27
15.73
13.79
13.25
13.76
14.94
16.45
18.03
19.43
20.38
20.60
19.79
17.75
14.40
9.91
4.60
-1.11
-6.80
-12.19
-17.18
-21.88
-26.58
-31.73
-37.80
-45.07
-53.32
-61.59
-68.22
-71.24
-69.07
-61.13
-48.22
-32.25
-15.59
-0.34
12.23
21.66
28.03
31.48
32.09
29.89
25.23
18.94
12.31
6.67
3.05
1.84
2.77
5.08
7.84
10.22
11.66
11.90
10.88
8.67
5.39
1.17
-3.84
-9.43
-15.23
-20.98
-26.58
-32.23
-38.46
-45.71
-53.87
-61.94
-68.08
-70.22
-66.76
-57.22
-42.42
-24.14
-4.51
14.48
31.27
44.69
53.94
58.58
58.73
55.13
49.15
42.38
36.27
31.63
28.66
27.05
26.37
26.29
26.59
27.07
27.46
27.04
25.09
20.97
14.57
6.37
-2.62
-11.31
-18.95
-25.64
-32.10
-39.37
-48.32
-59.16
-71.19
-83.01
-92.75
-98.69
-99.41
-94.04
-82.38
-64.94
-42.97
-18.50
5.90
27.53
44.19
54.73
59.35
59.39
56.81
53.40
50.38
48.08
46.25
44.53
42.78
41.18
40.01
39.42
39.28
39.08
38.26
36.39
33.25
28.81
23.12
16.27
8.50
0.10
-8.46
-16.61
-23.97
-30.46
-36.45
-42.71
-50.09
-59.25
-70.14
-81.73
-92.01
-98.37
-98.35
-90.51
-74.94
-53.36
-28.66
-4.03
17.82
35.30
47.89
56.00
60.48
62.24
62.11
60.74
58.75
56.72
55.19
54.53
54.93
56.21
57.97
59.64
60.75
60.99
60.33
58.88
56.79
54.04
50.52
46.01
40.46
34.05
27.24
20.58
14.50
9.07
4.00
-1.14
-6.74
-12.82
-19.03
-24.83
-29.78
-33.79
-37.29
-41.17
-46.57
-54.39
-64.89
-77.28
-89.51
-98.69
-101.77
-96.61
-82.75
-61.74
-36.65
-11.11
11.83
30.35
43.92
52.93
58.00
59.75
58.63
55.26
50.61
45.91
42.42
40.97
41.70
44.11
47.29
50.39
52.89
54.69
55.94
56.77
56.99
56.19
53.80
49.47
43.30
35.95
28.35
21.47
15.92
11.75
8.56
5.71
2.66
-0.90
-4.95
-9.30
-13.71
-17.99
-22.05
-25.89
-29.68
-33.71
-38.46
-44.46
-52.04
-60.96
-70.10
-77.51
-80.78
-77.86
-67.87
-51.59
-31.35
-10.30
8.66
23.64
34.12
40.62
44.04
45.09
44.13
41.35
37.10
32.21
27.79
24.91
24.14
25.34
27.73
30.30
32.20
33.09
33.10
32.57
31.79
30.77
29.22
26.73
23.06
18.30
12.96
7.74
3.33
0.10
-2.05
-3.61
-5.24
-7.53
-10.71
-14.59
-18.66
-22.31
-25.10
-26.93
-28.06
-29.06
-30.51
-32.96
-36.63
-41.42
-46.76
-51.67
-54.86
-54.96
-50.93
-42.41
-30.03
-15.36
-0.47
12.56
22.33
28.32
30.88
30.82
29.00
26.05
22.38
18.38
14.53
11.49
9.90
10.12
12.01
15.01
18.24
20.90
22.54
23.08
22.80
21.96
20.67
18.75
15.93
12.07
7.36
2.37
-2.16
-5.64
-7.89
-9.23
-10.25
-11.56
-13.43
-15.72
-18.01
-19.83
-20.92
-21.40
-21.72
-22.52
-24.35
-27.48
-31.65
-36.18
-40.00
-42.02
-41.29
-37.41
-30.55
-21.41
-11.06
-0.69
8.57
15.81
20.44
22.18
21.20
18.07
13.68
9.06
5.11
2.37
0.98
0.80
1.52
2.85
4.55
6.43
8.26
9.77
10.67
10.81
10.13
8.76
6.83
4.50
1.92
-0.71
-3.13
-5.07
-6.39
-7.20
-7.90
-9.01
-10.91
-13.58
-16.63
-19.36
-21.25
-22.13
-22.52
-23.32
-25.33
-28.89
-33.54
-38.08
-41.06
-41.23
-38.06
-31.80
-23.32
-13.68
-3.88
5.33
13.40
19.85
24.25
26.25
25.79
23.17
19.02
14.18
9.52
5.69
3.07
1.69
1.34
1.65
2.21
2.74
3.08
3.29
3.51
3.77
3.99
3.91
3.20
1.66
-0.66
-3.39
-6.05
-8.22
-9.75
-10.79
-11.72
-12.86
-14.30
-15.88
-17.18
-17.87
-17.86
-17.46
-17.25
-17.89
-19.81
-23.07
-27.16
-31.25
-34.34
-35.54
-34.28
-30.47
-24.40
-16.71
-8.20
0.29
7.95
14.09
18.24
20.16
19.97
18.12
15.26
12.12
9.25
7.09
5.75
5.26
5.59
6.69
8.47
10.77
13.30
15.66
17.42
18.24
17.99
16.70
14.65
12.15
9.50
6.90
4.42
2.08
-0.19
-2.41
-4.63
-6.83
-8.98
-11.02
-12.94
-14.72
-16.36
-17.84
-19.18
-20.44
-21.79
-23.56
-26.03
-29.27
-32.96
-36.21
-37.83
-36.77
-32.49
-25.32
-16.34
-7.05
1.23
7.66
12.00
14.38
15.07
14.23
12.01
8.67
4.73
0.97
-1.82
-3.09
-2.74
-1.16
1.01
3.20
5.14
6.90
8.67
10.52
12.19
13.15
12.87
11.14
8.24
4.96
2.07
0.12
-0.93
-1.61
-2.57
-4.28
-6.68
-9.36
-11.90
-14.09
-16.05
-18.12
-20.54
-23.23
-26.05
-28.88
-31.95
-35.58
-39.82
-43.98
-46.63
-46.08
-41.10
-31.68
-19.27
-6.19
5.29
13.68
18.74
21.16
21.91
21.70
20.47
17.85
13.61
8.17
2.68
-1.33
-2.75
-1.29
2.01
5.52
7.74
8.06
7.05
5.95
5.88
7.11
8.77
9.46
8.10
4.58
-0.09
-4.43
-7.24
-8.25
-8.28
-8.62
-10.22
-13.21
-16.83
-19.98
-21.93
-22.75
-23.45
-25.32
-29.28
-35.22
-41.89
-47.32
-49.54
-47.27
-40.43
-30.06
-17.87
-5.69
5.07
13.63
19.83
23.95
26.32
27.20
26.72
24.98
22.23
18.92
15.73
13.43
12.60
13.39
15.47
18.14
20.60
22.26
22.85
22.52
21.52
20.07
18.17
15.70
12.47
8.45
3.83
-1.03
-5.77
-10.17
-14.19
-17.94
-21.56
-25.08
-28.41
-31.46
-34.22
-37.04
-40.50
-45.24
-51.55
-58.95
-66.08
-70.90
-71.38
-66.26
-55.53
-40.58
-23.61
-6.98
7.54
19.01
27.28
32.65
35.48
36.11
34.88
32.25
28.90
25.62
23.18
22.05
22.34
23.78
25.89
28.14
30.12
31.67
32.77
33.37
33.36
32.50
30.56
27.53
23.66
19.48
15.50
12.00
8.86
5.61
1.81
-2.71
-7.71
-12.61
-16.86
-20.19
-22.89
-25.67
-29.44
-34.97
-42.57
-51.92
-61.95
-70.90
-76.65
-77.28
-71.59
-59.63
-42.71
-23.10
-3.32
14.51
29.00
39.58
46.28
49.43
49.52
47.24
43.47
39.23
35.55
33.20
32.52
33.41
35.39
37.94
40.57
43.05
45.30
47.27
48.84
49.66
49.26
47.29
43.64
38.64
32.91
27.16
21.92
17.36
13.28
9.33
5.09
0.37
-4.82
-10.24
-15.55
-20.43
-24.69
-28.39
-31.93
-36.01
-41.44
-48.84
-58.20
-68.53
-77.81
-83.42
-82.95
-75.05
-60.08
-40.14
-18.36
2.10
19.02
31.57
40.05
45.32
48.11
48.77
47.46
44.49
40.64
37.08
34.96
34.95
36.92
40.08
43.34
45.83
47.20
47.72
47.87
48.04
48.13
47.60
45.74
42.03
36.53
29.87
23.05
17.00
12.16
8.33
4.82
0.78
-4.36
-10.62
-17.48
-24.12
-29.82
-34.26
-37.68
-40.75
-44.30
-49.08
-55.57
-63.86
-73.46
-83.21
-91.25
-95.22
-93.00
-83.36
-66.65
-44.87
-21.08
1.47
20.33
34.29
43.42
48.48
50.46
50.20
48.35
45.56
42.66
40.56
40.09
41.63
44.94
49.21
53.37
56.55
58.38
59.07
59.08
58.82
58.24
56.88
54.15
49.73
43.89
37.48
31.51
26.70
23.09
20.05
16.66
12.12
6.24
-0.54
-7.33
-13.31
-18.04
-21.67
-24.84
-28.46
-33.30
-40.00
-48.75
-59.23
-70.31
-80.04
-85.84
-85.23
-76.71
-60.53
-38.84
-15.12
7.01
24.89
37.49
45.24
49.37
51.03
50.89
49.15
46.03
42.16
38.68
36.82
37.45
40.55
45.27
50.12
53.76
55.42
55.20
53.80
52.05
50.33
48.44
45.61
41.11
34.69
26.87
18.73
11.45
5.79
1.77
-1.33
-4.48
-8.50
-13.68
-19.72
-25.88
-31.38
-35.67
-38.67
-40.85
-43.05
-46.30
-51.56
-59.27
-69.13
-79.82
-89.14
-94.51
-93.67
-85.50
-70.52
-50.76
-29.16
-8.66
8.61
21.69
30.62
35.95
38.30
38.22
36.23
33.10
29.87
27.66
27.32
29.09
32.54
36.76
40.76
43.82
45.76
46.81
47.37
47.75
47.96
47.74
46.74
44.71
41.66
37.80
33.47
28.96
24.43
19.94
15.56
11.39
7.50
3.84
0.17
-3.88
-8.58
-14.00
-19.79
-25.41
-30.26
-34.12
-37.17
-40.14
-43.95
-49.47
-57.11
-66.54
-76.54
-85.14
-90.00
-89.12
-81.47
-67.47
-48.87
-28.27
-8.28
9.08
22.82
32.79
39.38
43.09
44.43
43.89
42.08
39.78
37.83
36.92
37.39
39.17
41.83
44.78
47.45
49.45
50.67
51.18
51.11
50.56
49.52
47.95
45.81
43.10
39.90
36.33
32.55
28.70
24.97
21.50
18.31
15.23
11.91
7.94
3.02
-2.80
-9.10
-15.16
-20.35
-24.35
-27.37
-30.10
-33.46
-38.24
-44.82
-52.96
-62.05
-71.05
-78.77
-83.92
-85.17
-81.40
-72.01
-57.39
-39.22
-20.11
-2.87
10.42
19.12
23.98
26.47
27.86
28.47
27.84
25.40
21.30
16.74
13.59
13.44
16.69
22.19
27.90
31.87
33.24
32.61
31.50
31.34
32.65
34.42
34.95
32.78
27.63
20.73
14.19
9.86
8.41
8.78
8.96
7.17
2.76
-3.44
-9.68
-14.43
-17.08
-18.40
-19.79
-22.43
-26.69
-32.01
-37.52
-42.61
-47.30
-52.13
-57.40
-62.62
-66.40
-66.86
-62.50
-52.94
-39.14
-23.19
-7.51
5.93
16.00
22.53
26.00
27.13
26.66
25.08
22.82
20.27
17.87
16.16
15.59
16.39
18.47
21.37
24.38
26.81
28.24
28.61
28.18
27.29
26.21
24.94
23.28
20.96
17.85
14.04
9.82
5.63
1.84
-1.33
-3.98
-6.41
-9.05
-12.23
-16.03
-20.18
-24.21
-27.69
-30.45
-32.74
-35.18
-38.51
-43.33
-49.82
-57.51
-65.36
-71.87
-75.41
-74.70
-69.11
-58.91
-45.22
-29.67
-13.96
0.52
12.83
22.47
29.28
33.23
34.54
33.73
31.64
29.28
27.59
27.16
28.04
29.88
32.15
34.44
36.57
38.52
40.33
41.83
42.72
42.60
41.15
38.36
34.48
29.90
25.06
20.27
15.74
11.55
7.75
4.34
1.24
-1.72
-4.78
-8.17
-11.93
-15.91
-19.76
-23.23
-26.36
-29.50
-33.30
-38.40
-45.12
-53.15
-61.48
-68.59
-72.73
-72.49
-67.26
-57.43
-44.36
-29.92
-16.00
-3.99
5.45
12.21
16.53
18.72
19.04
17.78
15.43
12.69
10.36
9.15
9.42
11.08
13.66
16.51
19.14
21.31
23.06
24.58
25.90
26.81
26.90
25.69
22.99
18.95
14.17
9.36
5.09
1.57
-1.40
-4.29
-7.49
-11.11
-14.87
-18.34
-21.13
-23.17
-24.68
-26.09
-27.86
-30.32
-33.73
-38.27
-43.99
-50.60
-57.31
-62.76
-65.31
-63.53
-56.75
-45.45
-31.14
-15.87
-1.65
10.17
19.01
24.96
28.39
29.70
29.13
26.92
23.46
19.43
15.72
13.22
12.51
13.65
16.22
19.51
22.82
25.69
27.96
29.74
31.09
31.92
31.92
30.66
27.88
23.69
18.66
13.64
9.38
6.26
4.02
1.95
-0.70
-4.40
-9.00
-13.90
-18.28
-21.64
-23.99
-25.87
-28.14
-31.60
-36.68
-43.30
-50.82
-58.13
-63.82
-66.49
-65.07
-59.11
-48.93
-35.59
-20.66
-5.83
7.40
17.97
25.39
29.63
31.03
30.17
27.75
24.49
21.09
18.14
16.16
15.50
16.30
18.38
21.31
24.48
27.33
29.55
31.10
32.07
32.51
32.22
30.89
28.25
24.39
19.78
15.15
11.09
7.78
4.82
1.58
-2.47
-7.35
-12.58
-17.35
-21.03
-23.46
-25.08
-26.75
-29.38
-33.60
-39.53
-46.61
-53.73
-59.43
-62.28
-61.24
-55.88
-46.59
-34.37
-20.51
-6.44
6.60
17.56
25.66
30.48
32.02
30.78
27.73
23.99
20.61
18.23
17.06
17.03
17.95
19.66
22.07
25.00
28.13
30.96
32.93
33.60
32.77
30.55
27.26
23.32
19.12
14.93
10.87
6.93
3.06
-0.87
-4.94
-9.19
-13.48
-17.66
-21.56
-25.05
-28.20
-31.24
-34.56
-38.50
-43.26
-48.68
-54.09
-58.41
-60.39
-59.00
-53.71
-44.74
-32.95
-19.57
-5.91
6.86
17.82
26.30
31.88
34.43
34.26
32.06
28.76
25.27
22.27
20.15
19.04
18.91
19.74
21.42
23.72
26.22
28.45
29.94
30.42
29.95
28.79
27.29
25.66
23.88
21.74
18.95
15.30
10.83
5.86
0.81
-3.88
-7.99
-11.52
-14.72
-17.86
-21.22
-25.01
-29.37
-34.38
-39.95
-45.68
-50.78
-54.09
-54.42
-50.90
-43.30
-32.23
-19.01
-5.32
7.27
17.56
24.99
29.53
31.53
31.45
29.75
26.77
22.93
18.77
15.04
12.59
12.05
13.62
16.85
20.79
24.37
26.77
27.74
27.55
26.73
25.69
24.50
22.81
20.13
16.11
10.82
4.75
-1.39
-6.96
-11.59
-15.36
-18.60
-21.75
-25.19
-29.20
-34.00
-39.76
-46.39
-53.36
-59.52
-63.25
-62.93
-57.55
-47.26
-33.41
-18.09
-3.44
9.00
18.55
25.29
29.65
31.98
32.41
31.02
27.97
23.83
19.50
16.08
14.58
15.38
18.20
22.10
25.85
28.45
29.51
29.24
28.24
26.88
25.12
22.55
18.75
13.69
7.88
2.19
-2.64
-6.52
-9.93
-13.63
-18.13
-23.35
-28.72
-33.72
-38.31
-43.24
-49.44
-57.29
-65.94
-73.23
-76.40
-73.33
-63.52
-48.61
-31.59
-15.52
-2.37
7.51
14.98
21.12
26.42
30.27
31.67
30.03
25.91
20.95
17.25
16.39
18.75
23.38
28.60
32.88
35.43
36.38
36.41
36.18
36.01
35.58
34.36
31.88
28.02
23.12
17.67
12.21
7.11
2.47
-1.79
-5.80
-9.68
-13.53
-17.41
-21.39
-25.60
-30.32
-35.92
-42.66
-50.46
-58.54
-65.46
-69.32
-68.40
-61.87
-50.14
-34.83
-18.29
-2.76
10.14
19.78
26.31
30.24
32.09
32.20
30.85
28.42
25.53
23.03
21.75
22.14
24.12
27.11
30.22
32.67
34.04
34.36
33.90
32.96
31.60
29.73
27.16
23.86
20.02
16.05
12.37
9.19
6.42
3.70
0.60
-3.15
-7.59
-12.41
-17.18
-21.50
-25.25
-28.64
-32.21
-36.61
-42.34
-49.48
-57.40
-64.80
-69.95
-71.13
-67.14
-57.79
-44.01
-27.58
-10.59
5.12
18.34
28.53
35.61
39.75
41.12
40.10
37.33
33.76
30.55
28.63
28.45
29.79
32.03
34.45
36.63
38.52
40.29
42.02
43.53
44.36
44.07
42.39
39.51
35.86
31.98
28.22
24.66
21.15
17.48
13.48
9.16
4.59
-0.08
-4.72
-9.28
-13.73
-18.07
-22.38
-26.80
-31.62
-37.18
-43.83
-51.59
-59.95
-67.79
-73.43
-75.16
-71.72
-62.82
-49.30
-32.92
-15.86
-0.09
13.01
22.86
29.49
33.32
34.88
34.71
33.34
31.35
29.49
28.44
28.75
30.56
33.51
36.94
40.06
42.26
43.32
43.34
42.56
41.17
39.12
36.23
32.33
27.51
22.18
16.95
12.34
8.56
5.36
2.18
-1.59
-6.21
-11.45
-16.69
-21.26
-24.77
-27.43
-29.92
-33.15
-37.86
-44.18
-51.58
-58.89
-64.62
-67.33
-65.92
-59.92
-49.58
-35.84
-20.17
-4.22
10.42
22.58
31.56
37.18
39.67
39.63
37.83
35.17
32.46
30.37
29.28
29.26
30.13
31.55
33.19
34.73
35.92
36.53
36.32
35.09
32.78
29.49
25.53
21.33
17.28
13.58
10.20
6.94
3.53
-0.22
-4.29
-8.56
-12.84
-17.03
-21.12
-25.15
-29.21
-33.39
-37.85
-42.94
-49.03
-56.31
-64.43
-72.26
-77.94
-79.42
-75.22
-65.06
-50.11
-32.67
-15.33
-0.14
11.88
20.68
26.74
30.59
32.55
32.83
31.74
29.99
28.49
28.05
29.03
31.15
33.65
35.77
37.03
37.46
37.39
37.12
36.63
35.56
33.44
30.00
25.34
20.04
14.84
10.33
6.69
3.70
0.93
-1.99
-5.18
-8.45
-11.52
-14.17
-16.50
-18.77
-21.30
-24.30
-27.85
-32.00
-36.90
-42.83
-50.05
-58.41
-66.96
-73.96
-77.31
-75.25
-67.07
-53.47
-36.41
-18.39
-1.72
12.16
22.65
29.92
34.43
36.76
37.40
36.87
35.74
34.65
34.13
34.46
35.62
37.34
39.18
40.75
41.80
42.25
42.10
41.43
40.26
38.54
36.18
33.09
29.32
25.06
20.61
16.29
12.29
8.64
5.15
1.55
-2.42
-6.84
-11.58
-16.32
-20.73
-24.54
-27.72
-30.55
-33.55
-37.41
-42.71
-49.67
-57.90
-66.19
-72.77
-75.67
-73.38
-65.39
-52.46
-36.37
-19.37
-3.45
10.11
20.86
28.88
34.37
37.46
38.25
36.99
34.36
31.37
29.08
28.21
28.84
30.45
32.29
33.70
34.45
34.69
34.68
34.54
34.07
32.86
30.57
27.15
22.91
18.42
14.22
10.59
7.47
4.53
1.39
-2.27
-6.47
-11.03
-15.61
-19.93
-23.86
-27.52
-31.19
-35.26
-40.05
-45.68
-51.97
-58.32
-63.75
-67.07
-67.10
-63.08
-54.91
-43.26
-29.43
-15.00
-1.47
9.99
18.75
24.55
27.60
28.37
27.52
25.78
23.80
22.07
20.87
20.34
20.53
21.44
22.91
24.65
26.21
27.14
27.19
26.33
24.86
23.01
20.98
18.77
16.24
13.37
10.35
7.56
5.27
3.35
1.28
-1.58
-5.66
-10.68
-15.81
-19.99
-22.45
-23.16
-22.92
-23.02
-24.73
-28.95
-35.78
-44.56
-53.88
-62.00
-67.10
-67.79
-63.45
-54.33
-41.51
-26.56
-11.21
2.78
14.04
21.71
25.70
26.67
25.82
24.41
23.36
22.82
22.45
21.84
20.92
20.20
20.49
22.32
25.56
29.21
31.91
32.62
31.12
28.09
24.74
22.06
20.41
19.24
17.66
15.00
11.27
7.17
3.63
1.25
-0.03
-1.01
-2.68
-5.65
-9.89
-14.72
-19.33
-23.22
-26.50
-29.94
-34.50
-40.73
-48.34
-56.09
-62.10
-64.45
-61.83
-54.08
-42.17
-27.89
-13.24
0.14
11.29
19.93
26.23
30.39
32.56
32.84
31.41
28.73
25.56
22.79
21.13
20.93
22.04
24.00
26.20
28.17
29.64
30.52
30.86
30.68
29.93
28.52
26.39
23.56
20.20
16.53
12.85
9.32
5.98
2.71
-0.71
-4.45
-8.56
-12.86
-17.01
-20.70
-23.78
-26.48
-29.33
-32.99
-37.93
-44.04
-50.54
-56.04
-58.94
-57.95
-52.57
-43.28
-31.32
-18.33
-5.81
5.19
14.16
20.98
25.67
28.29
28.91
27.74
25.28
22.32
19.74
18.25
18.17
19.33
21.28
23.44
25.38
26.93
28.06
28.81
29.09
28.72
27.49
25.25
22.02
17.99
13.41
8.56
3.63
-1.21
-5.82
-10.13
-14.13
-17.94
-21.85
-26.25
-31.55
-37.93
-45.15
-52.39
-58.34
-61.46
-60.50
-54.93
-45.18
-32.56
-18.77
-5.41
6.49
16.45
24.41
30.35
34.10
35.45
34.39
31.34
27.28
23.41
20.79
19.85
20.36
21.54
22.60
23.05
22.93
22.57
22.29
22.01
21.28
19.48
16.18
11.42
5.74
-0.10
-5.48
-10.08
-13.98
-17.47
-20.95
-24.75
-29.17
-34.44
-40.56
-47.19
-53.47
-58.05
-59.48
-56.65
-49.23
-37.88
-24.10
-9.78
3.35
14.06
21.82
26.68
29.04
29.39
28.22
25.97
23.11
20.16
17.67
16.16
15.93
16.97
18.96
21.32
23.44
24.83
25.34
25.11
24.46
23.62
22.55
20.93
18.28
14.28
8.98
2.86
-3.34
-8.94
-13.59
-17.45
-21.05
-25.12
-30.30
-36.87
-44.51
-52.30
-58.82
-62.50
-62.06
-56.89
-47.31
-34.45
-19.93
-5.42
7.70
18.49
26.48
31.55
33.85
33.74
31.79
28.70
25.22
22.04
19.72
18.58
18.73
20.01
22.03
24.24
26.04
27.02
27.00
26.14
24.78
23.21
21.56
19.61
16.99
13.32
8.50
2.80
-3.20
-8.80
-13.45
-16.96
-19.54
-21.71
-24.20
-27.75
-32.84
-39.58
-47.51
-55.56
-62.19
-65.73
-64.82
-58.82
-48.11
-33.94
-18.23
-2.96
10.27
20.50
27.45
31.41
32.88
32.46
30.68
28.04
25.06
22.39
20.65
20.40
21.84
24.72
28.33
31.77
34.23
35.30
35.01
33.74
31.89
29.71
27.11
23.88
19.84
15.07
9.89
4.83
0.31
-3.45
-6.58
-9.42
-12.33
-15.45
-18.74
-22.00
-25.20
-28.65
-32.97
-38.71
-45.84
-53.41
-59.63
-62.37
-60.07
-52.25
-39.82
-24.71
-9.14
5.03
16.63
25.24
30.93
33.97
34.69
33.47
30.79
27.31
23.75
20.90
19.32
19.34
20.85
23.44
26.48
29.25
31.17
31.96
31.60
30.31
28.44
26.23
23.81
21.08
17.79
13.76
8.94
3.61
-1.79
-6.76
-10.98
-14.43
-17.46
-20.56
-24.26
-28.95
-34.80
-41.64
-48.92
-55.67
-60.55
-62.16
-59.43
-51.98
-40.37
-26.02
-10.78
3.51
15.47
24.39
30.11
32.91
33.26
31.71
28.77
25.04
21.20
17.98
16.07
15.95
17.67
20.81
24.55
27.91
30.14
30.89
30.33
28.94
27.20
25.34
23.22
20.39
16.42
11.13
4.74
-2.17
-8.88
-14.80
-19.68
-23.69
-27.33
-31.26
-36.09
-42.18
-49.53
-57.64
-65.51
-71.71
-74.66
-73.00
-66.07
-54.18
-38.64
-21.42
-4.63
10.04
21.57
29.69
34.64
36.88
36.91
35.17
32.19
28.61
25.21
22.76
21.87
22.77
25.24
28.61
31.99
34.51
35.61
35.13
33.34
30.79
27.98
25.20
22.42
19.31
15.45
10.68
5.12
-0.80
-6.63
-12.04
-17.00
-21.70
-26.32
-30.94
-35.60
-40.38
-45.74
-52.17
-59.81
-67.98
-74.86
-77.98
-75.12
-65.33
-49.69
-30.84
-12.08
3.94
16.03
24.42
30.09
34.02
36.45
37.11
35.72
32.59
28.76
25.77
24.89
26.64
30.29
34.44
37.69
39.22
39.25
38.69
38.41
38.75
38.94
37.78
34.22
28.21
20.79
13.64
8.14
4.67
2.33
-0.34
-4.54
-10.48
-17.24
-23.39
-27.83
-30.37
-32.00
-34.28
-38.66
-45.69
-54.73
-64.07
-71.45
-74.69
-72.38
-64.21
-50.99
-34.40
-16.51
0.72
15.84
28.03
36.95
42.54
44.93
44.35
41.29
36.61
31.45
27.08
24.49
24.14
25.85
28.89
32.33
35.41
37.67
39.05
39.71
39.82
39.39
38.23
36.13
32.95
28.79
23.94
18.73
13.39
7.97
2.39
-3.40
-9.25
-14.83
-19.65
-23.42
-26.23
-28.58
-31.31
-35.25
-40.86
-47.84
-55.15
-61.14
-64.05
-62.52
-56.01
-45.03
-30.88
-15.31
0.03
13.84
25.29
33.91
39.45
41.80
41.12
37.87
32.93
27.47
22.64
19.34
17.92
18.27
19.86
22.02
24.18
25.95
27.14
27.72
27.56
26.53
24.39
20.94
16.17
10.31
3.83
-2.73
-8.88
-14.34
-19.07
-23.22
-26.99
-30.68
-34.63
-39.27
-44.90
-51.52
-58.56
-64.75
-68.44
-68.07
-62.75
-52.64
-39.02
-23.83
-9.10
3.64
13.61
20.68
25.06
27.09
26.98
25.00
21.55
17.31
13.18
10.03
8.47
8.63
10.16
12.45
14.79
16.61
17.58
17.56
16.51
14.42
11.31
7.20
2.21
-3.38
-9.18
-14.84
-20.21
-25.50
-31.18
-37.72
-45.18
-52.79
-59.01
-61.86
-59.72
-51.93
-39.21
-23.45
-7.04
7.90
20.03
28.93
34.80
38.01
38.85
37.48
34.11
29.28
23.88
18.93
15.27
13.31
12.87
13.43
14.33
15.09
15.46
15.39
14.80
13.51
11.23
7.70
2.87
-3.00
-9.40
-15.74
-21.69
-27.29
-33.14
-40.05
-48.65
-58.83
-69.39
-78.18
-82.68
-80.83
-71.85
-56.56
-37.10
-16.22
3.55
20.45
33.61
42.85
48.28
50.18
48.98
45.35
40.36
35.24
31.19
28.95
28.65
29.84
31.75
33.60
34.87
35.42
35.39
34.93
34.04
32.43
29.65
25.26
19.14
11.58
3.25
-5.06
-12.66
-19.19
-24.69
-29.57
-34.43
-40.02
-46.95
-55.59
-65.59
-75.80
-84.18
-88.29
-86.04
-76.47
-60.24
-39.54
-17.37
3.37
20.64
33.55
42.19
47.17
49.17
48.84
46.84
43.92
40.97
38.83
38.10
38.94
41.08
43.90
46.68
48.87
50.14
50.43
49.77
48.18
45.70
42.27
37.99
33.11
27.98
22.95
18.15
13.38
8.29
2.55
-3.81
-10.34
-16.38
-21.38
-25.32
-28.73
-32.55
-37.81
-45.10
-54.40
-64.85
-74.84
-82.34
-85.25
-81.96
-71.86
-55.64
-35.16
-13.07
7.97
25.78
39.09
47.62
51.77
52.35
50.36
46.77
42.54
38.50
35.33
33.48
33.13
34.14
36.09
38.47
40.74
42.54
43.64
43.99
43.53
42.18
39.74
36.12
31.45
26.11
20.72
15.82
11.67
8.07
4.45
0.23
-4.87
-10.67
-16.59
-21.99
-26.50
-30.20
-33.59
-37.35
-42.12
-48.36
-56.16
-65.10
-74.12
-81.47
-84.98
-82.65
-73.39
-57.55
-37.02
-14.61
6.66
24.49
37.68
46.08
50.21
50.87
48.85
44.91
39.92
34.85
30.65
28.06
27.41
28.52
30.83
33.66
36.40
38.70
40.41
41.51
41.92
41.51
40.07
37.49
33.75
29.04
23.70
18.15
12.74
7.74
3.20
-1.01
-5.14
-9.46
-14.05
-18.76
-23.18
-26.87
-29.64
-31.74
-33.94
-37.28
-42.73
-50.66
-60.49
-70.63
-78.79
-82.54
-80.10
-70.92
-55.86
-36.94
-16.68
2.60
19.27
32.43
41.80
47.35
49.18
47.62
43.33
37.40
31.15
25.84
22.29
20.70
20.84
22.18
24.22
26.59
29.09
31.43
33.29
34.25
33.95
32.27
29.38
25.63
21.44
17.08
12.58
7.88
2.86
-2.42
-7.67
-12.51
-16.62
-19.90
-22.53
-24.91
-27.51
-30.70
-34.67
-39.54
-45.22
-51.40
-57.38
-62.00
-63.71
-61.01
-53.05
-40.24
-24.16
-7.22
8.22
20.60
29.50
35.34
38.74
39.90
38.56
34.42
27.76
19.74
12.23
7.06
5.32
6.75
10.15
13.97
17.05
19.11
20.48
21.70
22.94
23.64
22.99
20.35
15.76
10.02
4.27
-0.59
-4.33
-7.61
-11.39
-16.28
-22.13
-27.98
-32.61
-35.33
-36.45
-37.41
-40.10
-45.88
-54.78
-65.20
-74.36
-79.30
-77.90
-69.68
-55.79
-38.49
-20.29
-3.25
11.38
23.10
31.91
37.77
40.66
40.54
37.63
32.57
26.45
20.56
16.17
14.04
14.30
16.51
19.83
23.37
26.41
28.56
29.74
29.99
29.42
28.06
25.88
22.81
18.78
13.80
8.05
1.86
-4.34
-10.19
-15.48
-20.25
-24.63
-28.83
-33.00
-37.29
-41.97
-47.41
-54.01
-61.77
-69.93
-76.88
-80.44
-78.59
-70.27
-55.94
-37.49
-17.62
1.03
16.63
28.40
36.46
41.27
43.26
42.65
39.60
34.53
28.28
22.11
17.37
15.02
15.35
17.87
21.58
25.34
28.32
30.17
30.94
30.84
29.99
28.33
25.73
22.09
17.47
12.09
6.28
0.35
-5.41
-10.80
-15.64
-19.82
-23.38
-26.47
-29.42
-32.73
-36.97
-42.60
-49.69
-57.61
-64.94
-69.65
-69.65
-63.56
-51.29
-34.25
-14.90
4.03
20.39
33.02
41.78
47.05
49.32
48.90
45.96
40.89
34.42
27.73
22.09
18.52
17.43
18.48
20.84
23.53
25.75
27.14
27.71
27.66
27.10
25.97
24.07
21.16
17.17
12.30
6.95
1.56
-3.56
-8.36
-12.94
-17.43
-21.82
-25.94
-29.65
-33.05
-36.72
-41.48
-48.00
-56.27
-65.22
-72.80
-76.59
-74.66
-66.27
-52.15
-34.34
-15.36
2.43
17.43
28.93
36.87
41.53
43.14
41.96
38.31
32.83
26.50
20.55
16.15
14.05
14.41
16.76
20.26
23.94
27.09
29.35
30.71
31.31
31.26
30.53
28.93
26.25
22.41
17.53
11.95
6.11
0.39
-5.01
-10.04
-14.77
-19.24
-23.50
-27.66
-32.00
-37.02
-43.20
-50.65
-58.71
-65.83
-69.91
-68.99
-62.06
-49.53
-33.10
-15.16
2.02
16.85
28.59
37.12
42.47
44.65
43.65
39.68
33.45
26.24
19.56
14.80
12.72
13.28
15.74
19.01
22.06
24.29
25.55
26.02
25.90
25.24
23.88
21.58
18.15
13.66
8.33
2.57
-3.27
-8.91
-14.19
-19.04
-23.42
-27.41
-31.17
-35.07
-39.59
-45.15
-51.79
-58.92
-65.20
-68.78
-67.90
-61.45
-49.48
-33.27
-14.90
3.33
19.49
32.38
41.53
46.96
48.94
47.82
44.09
38.48
31.99
25.82
21.11
18.62
18.49
20.27
23.08
25.98
28.28
29.63
30.10
29.86
29.07
27.67
25.47
22.22
17.78
12.19
5.71
-1.22
-8.08
-14.36
-19.66
-23.89
-27.27
-30.47
-34.39
-39.86
-47.27
-56.23
-65.42
-72.87
-76.39
-74.37
-66.20
-52.52
-35.02
-15.88
2.79
19.38
32.93
42.90
49.10
51.48
50.28
46.12
40.10
33.58
27.96
24.25
22.90
23.75
26.19
29.34
32.36
34.61
35.78
35.83
34.98
33.48
31.46
28.79
25.22
20.46
14.48
7.59
0.41
-6.34
-12.14
-16.85
-20.74
-24.32
-28.18
-32.80
-38.54
-45.57
-53.76
-62.52
-70.58
-76.12
-77.14
-72.13
-60.70
-43.98
-24.29
-4.46
12.98
26.53
35.78
41.12
43.27
42.84
40.31
36.13
31.02
25.97
22.16
20.54
21.52
24.84
29.51
34.27
37.91
39.70
39.51
37.78
35.19
32.26
29.20
25.77
21.56
16.25
9.83
2.72
-4.44
-10.99
-16.62
-21.34
-25.51
-29.59
-33.94
-38.77
-44.27
-50.66
-58.12
-66.51
-75.10
-82.32
-86.05
-84.22
-75.72
-60.94
-41.80
-21.15
-1.82
14.21
26.17
34.29
39.25
41.64
41.78
39.81
36.11
31.46
27.09
24.26
23.80
25.80
29.54
33.82
37.46
39.71
40.42
39.89
38.60
36.90
34.82
32.15
28.59
24.04
18.64
12.73
6.73
0.98
-4.38
-9.34
-13.97
-18.34
-22.56
-26.84
-31.61
-37.41
-44.74
-53.57
-63.02
-71.37
-76.37
-75.96
-69.09
-56.12
-38.81
-19.71
-1.40
14.29
26.56
35.39
41.18
44.32
45.01
43.50
40.23
36.04
31.99
28.93
27.33
27.15
28.00
29.51
31.43
33.63
35.90
37.64
38.05
36.50
32.83
27.61
21.80
16.26
11.32
6.57
1.27
-5.11
-12.43
-19.84
-26.23
-30.89
-33.80
-35.98
-38.79
-43.44
-50.47
-59.54
-69.49
-78.72
-85.49
-88.41
-86.48
-79.26
-66.91
-50.24
-30.62
-9.95
9.71
26.36
38.55
45.68
48.09
46.96
43.82
40.19
37.18
35.36
34.79
35.25
36.44
38.10
40.00
41.92
43.65
44.85
45.10
44.00
41.33
37.10
31.68
25.71
19.85
14.59
10.01
5.89
1.81
-2.60
-7.46
-12.63
-17.75
-22.48
-26.62
-30.25
-33.73
-37.59
-42.50
-49.00
-57.31
-67.04
-77.08
-85.57
-90.26
-89.19
-81.24
-66.73
-47.27
-25.43
-3.95
14.95
29.94
40.60
47.10
49.98
49.92
47.80
44.58
41.34
38.99
38.08
38.63
40.23
42.27
44.17
45.57
46.40
46.67
46.36
45.35
43.45
40.48
36.43
31.52
26.13
20.70
15.61
11.06
7.07
3.44
-0.13
-3.96
-8.30
-13.20
-18.49
-23.81
-28.78
-33.14
-36.97
-40.82
-45.53
-52.01
-60.73
-71.34
-82.46
-91.79
-96.72
-95.08
-85.89
-69.78
-48.84
-26.00
-4.19
14.46
28.95
39.23
45.84
49.35
50.25
48.99
46.23
42.98
40.43
39.59
40.86
43.86
47.59
50.86
52.87
53.44
53.01
52.18
51.37
50.53
49.19
46.73
42.87
37.81
32.20
26.81
22.17
18.31
14.78
10.90
6.13
0.27
-6.43
-13.43
-20.13
-26.15
-31.41
-36.19
-40.93
-46.20
-52.45
-60.01
-68.82
-78.31
-87.23
-93.73
-95.67
-91.28
-79.84
-62.07
-40.11
-16.88
4.70
22.57
35.80
44.50
49.37
51.20
50.65
48.29
44.82
41.13
38.23
36.98
37.72
40.14
43.39
46.44
48.43
49.01
48.26
46.66
44.67
42.52
40.11
37.10
33.17
28.25
22.65
16.99
11.95
7.88
4.68
1.78
-1.61
-6.07
-11.69
-18.03
-24.30
-29.76
-34.03
-37.30
-40.22
-43.68
-48.49
-55.09
-63.42
-72.76
-81.79
-88.74
-91.66
-88.92
-79.64
-64.11
-43.80
-21.15
1.15
20.72
36.09
46.72
52.93
55.44
55.08
52.62
48.75
44.25
39.99
36.76
35.15
35.30
36.82
39.01
41.09
42.47
42.97
42.70
41.93
40.87
39.51
37.61
34.88
31.11
26.35
20.97
15.50
10.43
6.01
2.09
-1.70
-5.81
-10.42
-15.32
-20.04
-24.12
-27.41
-30.18
-33.06
-36.83
-42.00
-48.74
-56.64
-64.78
-71.82
-76.16
-76.29
-71.13
-60.45
-45.06
-26.68
-7.57
10.14
24.86
35.83
42.99
46.71
47.53
46.05
42.81
38.53
34.01
30.14
27.66
26.99
28.10
30.51
33.44
36.09
37.86
38.49
38.02
36.72
34.78
32.24
28.97
24.81
19.77
14.09
8.20
2.55
-2.59
-7.20
-11.47
-15.57
-19.61
-23.48
-27.03
-30.22
-33.25
-36.59
-40.90
-46.68
-54.05
-62.38
-70.34
-76.10
-77.75
-73.96
-64.41
-49.96
-32.44
-14.10
2.93
17.18
27.94
35.16
39.17
40.40
39.29
36.36
32.22
27.69
23.66
20.90
19.90
20.69
22.88
25.82
28.81
31.26
32.80
33.27
32.69
31.16
28.84
25.91
22.51
18.81
14.90
10.85
6.69
2.40
-2.02
-6.57
-11.19
-15.81
-20.25
-24.38
-28.05
-31.36
-34.70
-38.76
-44.23
-51.45
-59.98
-68.42
-74.63
-76.36
-72.11
-61.69
-46.34
-28.32
-10.18
6.05
19.22
29.01
35.63
39.40
40.55
39.29
36.06
31.63
27.09
23.53
21.71
21.77
23.29
25.55
27.89
29.93
31.57
32.85
33.74
33.98
33.25
31.31
28.14
24.06
19.48
14.82
10.20
5.55
0.72
-4.38
-9.62
-14.68
-19.25
-23.12
-26.39
-29.41
-32.71
-36.88
-42.30
-49.04
-56.68
-64.26
-70.40
-73.55
-72.38
-66.23
-55.35
-40.84
-24.46
-8.03
6.83
19.08
28.19
34.04
36.78
36.75
34.47
30.68
26.24
22.07
18.93
17.32
17.39
18.96
21.44
24.11
26.21
27.20
26.88
25.42
23.27
20.91
18.66
16.55
14.37
11.81
8.66
4.92
0.76
-3.50
-7.72
-11.76
-15.60
-19.14
-22.22
-24.64
-26.41
-27.90
-30.09
-34.10
-40.68
-49.64
-59.53
-67.90
-72.20
-70.64
-63.03
-50.61
-35.55
-20.03
-5.54
7.28
18.33
27.55
34.41
38.18
38.36
35.15
29.71
23.79
19.07
16.59
16.23
17.21
18.52
19.64
20.67
22.11
24.32
27.19
29.89
31.36
30.83
28.18
23.98
19.13
14.36
10.07
6.10
2.10
-2.17
-6.66
-11.09
-15.13
-18.61
-21.61
-24.51
-27.81
-32.03
-37.42
-43.78
-50.36
-55.84
-58.56
-57.14
-50.90
-40.23
-26.48
-11.52
2.86
15.40
25.48
32.96
37.80
39.92
39.23
35.93
30.65
24.53
18.93
15.02
13.38
13.89
15.80
18.19
20.25
21.58
22.15
22.18
21.88
21.25
20.11
18.20
15.31
11.38
6.62
1.31
-4.15
-9.45
-14.36
-18.81
-22.84
-26.62
-30.43
-34.61
-39.58
-45.61
-52.72
-60.39
-67.47
-72.32
-73.23
-69.01
-59.46
-45.52
-29.08
-12.29
2.92
15.34
24.55
30.67
34.08
35.18
34.25
31.64
27.89
23.76
20.25
18.22
18.23
20.19
23.49
27.22
30.51
32.78
33.89
33.97
33.17
31.61
29.23
25.96
21.80
16.90
11.52
5.92
0.35
-5.09
-10.35
-15.41
-20.25
-24.87
-29.35
-33.88
-38.82
-44.58
-51.45
-59.27
-67.20
-73.74
-76.99
-75.28
-67.75
-54.74
-37.80
-19.22
-1.29
14.20
26.36
35.06
40.57
43.24
43.38
41.29
37.46
32.68
28.04
24.57
23.00
23.47
25.47
28.10
30.40
31.70
31.79
30.89
29.39
27.63
25.66
23.26
20.11
16.00
11.02
5.56
0.17
-4.76
-9.07
-12.93
-16.64
-20.39
-24.15
-27.79
-31.31
-35.03
-39.58
-45.51
-52.79
-60.50
-66.78
-69.42
-66.70
-58.05
-44.37
-27.62
-10.17
5.98
19.60
30.28
38.00
42.85
44.83
43.96
40.56
35.39
29.67
24.70
21.51
20.52
21.45
23.51
25.81
27.63
28.65
28.93
28.69
28.16
27.36
26.12
24.16
21.21
17.23
12.40
7.10
1.76
-3.29
-7.89
-12.05
-15.90
-19.61
-23.36
-27.39
-32.11
-37.92
-45.06
-53.13
-61.02
-66.92
-68.89
-65.53
-56.63
-43.24
-27.30
-10.98
3.99
16.63
26.53
33.57
37.69
38.85
37.22
33.44
28.60
24.02
20.81
19.53
20.05
21.68
23.58
25.06
25.87
26.17
26.24
26.30
26.20
25.50
23.60
20.05
14.80
8.21
1.01
-6.00
-12.18
-17.24
-21.29
-24.76
-28.22
-32.38
-37.76
-44.55
-52.45
-60.44
-66.96
-70.22
-68.73
-61.83
-49.94
-34.52
-17.57
-1.08
13.47
25.23
33.94
39.59
42.22
41.96
39.17
34.59
29.38
24.79
21.85
20.90
21.58
23.04
24.38
25.04
25.01
24.65
24.35
24.16
23.73
22.46
19.84
15.69
10.33
4.34
-1.64
-7.21
-12.26
-16.93
-21.43
-26.05
-31.06
-36.79
-43.56
-51.50
-60.26
-68.80
-75.38
-78.08
-75.27
-66.36
-52.04
-34.17
-15.17
2.66
17.69
29.14
36.97
41.49
43.13
42.34
39.60
35.61
31.23
27.38
24.83
23.99
24.81
26.90
29.56
32.09
33.94
34.71
34.28
32.70
30.17
26.95
23.28
19.27
14.88
9.90
4.16
-2.38
-9.48
-16.65
-23.36
-29.26
-34.37
-39.07
-43.90
-49.42
-56.01
-63.70
-72.15
-80.47
-87.30
-90.95
-89.81
-82.81
-69.92
-52.24
-31.84
-11.18
7.49
22.60
33.45
40.08
43.08
43.24
41.41
38.39
34.91
31.61
29.06
27.66
27.60
28.81
30.90
33.30
35.41
36.71
36.92
36.02
34.18
31.71
28.90
25.93
22.86
19.63
16.14
12.35
8.25
3.91
-0.58
-5.10
-9.60
-14.01
-18.36
-22.71
-27.20
-32.07
-37.72
-44.49
-52.48
-61.24
-69.55
-75.53
-77.03
-72.43
-61.22
-44.34
-23.94
-2.76
16.75
33.01
45.45
54.28
60.01
63.06
63.68
62.11
58.79
54.55
50.52
47.78
47.04
48.33
51.02
54.15
56.79
58.36
58.70
57.84
55.86
52.79
48.72
43.99
39.22
35.07
31.91
29.36
26.40
21.75
14.42
4.36
-7.52
-19.67
-30.59
-39.47
-46.40
-52.22
-58.00
-64.37
-71.20
-77.52
-81.77
-82.43
-78.47
-69.64
-56.57
-40.52
-23.06
-5.80
9.92
22.89
32.25
37.58
39.04
37.44
34.03
30.18
27.00
24.85
23.63
23.02
22.78
23.01
23.99
25.84
28.26
30.40
31.28
30.31
27.54
23.72
19.83
16.50
13.71
10.74
6.71
1.15
-5.69
-12.86
-19.23
-24.03
-27.15
-29.27
-31.42
-34.57
-39.29
-45.58
-52.87
-60.10
-65.81
-68.49
-66.84
-60.23
-48.88
-33.91
-17.04
-0.14
15.27
28.14
37.93
44.40
47.49
47.29
44.18
38.96
32.79
27.01
22.75
20.60
20.49
21.75
23.46
24.80
25.40
25.27
24.76
24.10
23.28
21.91
19.48
15.55
10.13
3.60
-3.34
-9.97
-15.82
-20.74
-24.91
-28.70
-32.56
-36.95
-42.25
-48.70
-56.21
-64.13
-71.13
-75.48
-75.41
-69.78
-58.53
-42.82
-24.75
-6.62
9.60
22.75
32.51
39.07
42.82
44.07
43.06
40.19
36.15
31.86
28.36
26.44
26.32
27.66
29.68
31.55
32.65
32.78
32.17
31.20
30.16
29.05
27.55
25.14
21.41
16.27
10.05
3.32
-3.23
-9.15
-14.31
-18.88
-23.18
-27.55
-32.30
-37.79
-44.30
-51.95
-60.41
-68.61
-74.84
-77.13
-73.89
-64.56
-49.86
-31.62
-12.26
5.96
21.39
33.22
41.34
46.00
47.66
46.80
43.96
39.85
35.24
31.04
28.03
26.70
27.16
29.02
31.59
34.05
35.70
36.18
35.54
34.12
32.31
30.28
27.89
24.78
20.60
15.28
9.10
2.64
-3.60
-9.31
-14.57
-19.62
-24.65
-29.71
-34.64
-39.41
-44.30
-49.86
-56.65
-64.67
-73.00
-79.76
-82.60
-79.60
-70.04
-54.80
-36.02
-16.34
1.94
17.39
29.52
38.42
44.32
47.40
47.85
46.03
42.67
38.73
35.24
32.98
32.30
33.10
34.95
37.21
39.29
40.69
41.15
40.59
39.12
36.91
34.11
30.77
26.92
22.52
17.61
12.28
6.69
1.04
-4.53
-9.91
-15.01
-19.72
-23.99
-27.86
-31.57
-35.60
-40.47
-46.57
-53.67
-60.79
-66.25
-68.12
-64.91
-56.14
-42.63
-26.19
-9.03
6.92
20.45
31.08
38.76
43.53
45.37
44.30
40.68
35.38
29.71
25.04
22.36
21.95
23.26
25.33
27.16
28.11
28.07
27.28
26.05
24.52
22.54
19.82
16.09
11.32
5.71
-0.33
-6.34
-11.90
-16.76
-20.86
-24.34
-27.56
-31.06
-35.43
-41.09
-48.07
-55.76
-62.90
-67.77
-68.67
-64.43
-54.89
-40.97
-24.45
-7.43
8.26
21.43
31.55
38.47
42.23
42.90
40.73
36.33
30.80
25.45
21.49
19.52
19.45
20.55
21.93
22.93
23.30
23.22
22.98
22.62
21.86
20.15
16.99
12.13
5.75
-1.60
-9.20
-16.48
-23.11
-29.06
-34.46
-39.58
-44.76
-50.43
-57.03
-64.81
-73.44
-81.73
-87.67
-88.97
-83.81
-71.69
-53.71
-32.33
-10.53
9.11
25.00
36.67
44.38
48.61
49.76
48.09
44.04
38.37
32.25
26.94
23.52
22.47
23.58
26.08
28.93
31.20
32.42
32.56
31.92
30.81
29.34
27.22
23.96
19.13
12.66
4.92
-3.30
-11.18
-18.13
-23.96
-28.91
-33.48
-38.34
-44.17
-51.54
-60.55
-70.52
-79.77
-85.93
-86.55
-80.07
-66.43
-47.26
-25.24
-3.30
16.31
32.32
44.32
52.35
56.57
57.08
54.19
48.63
41.59
34.55
28.89
25.47
24.46
25.39
27.44
29.75
31.73
33.05
33.59
33.30
32.17
30.14
27.19
23.32
18.56
12.97
6.61
-0.36
-7.66
-14.94
-21.82
-27.98
-33.28
-37.83
-42.00
-46.41
-51.79
-58.78
-67.56
-77.48
-86.90
-93.48
-94.74
-88.95
-75.85
-56.77
-34.27
-11.27
9.76
27.28
40.72
50.07
55.54
57.34
55.81
51.62
45.91
40.11
35.61
33.30
33.41
35.46
38.58
41.84
44.56
46.34
47.06
46.72
45.35
43.00
39.78
35.80
31.15
25.86
19.85
13.13
5.81
-1.76
-9.08
-15.54
-20.81
-24.91
-28.35
-31.97
-36.71
-43.21
-51.45
-60.64
-69.30
-75.56
-77.61
-74.16
-64.77
-49.98
-31.23
-10.60
9.48
26.82
39.85
47.90
51.24
50.84
47.95
43.73
38.95
34.18
29.87
26.53
24.78
25.01
27.21
30.84
34.82
38.05
39.74
39.71
38.32
36.08
33.23
29.58
24.43
17.30
8.29
-1.66
-11.07
-18.61
-23.77
-27.23
-30.69
-36.02
-44.34
-55.30
-67.02
-76.64
-81.28
-79.02
-69.57
-54.19
-35.16
-14.99
4.26
21.23
35.20
45.86
52.87
55.94
55.05
50.64
43.78
36.03
29.01
23.99
21.44
21.07
22.01
23.28
24.20
24.58
24.60
24.53
24.29
23.40
21.05
16.54
9.65
0.88
-8.70
-17.84
-25.56
-31.52
-36.14
-40.33
-45.22
-51.75
-60.35
-70.56
-80.96
-89.29
-92.95
-89.81
-78.96
-61.15
-38.64
-14.47
8.39
27.78
42.65
52.80
58.47
60.02
57.84
52.57
45.26
37.35
30.48
25.94
24.33
25.41
28.25
31.65
34.64
36.69
37.74
37.97
37.53
36.25
33.75
29.61
23.60
15.86
6.93
-2.46
-11.55
-19.73
-26.71
-32.49
-37.42
-42.17
-47.57
-54.43
-63.03
-72.80
-82.04
-88.24
-88.75
-81.77
-67.07
-46.28
-22.35
1.40
22.23
38.59
50.11
57.17
60.37
60.16
56.96
51.31
44.15
36.85
30.87
27.35
26.75
28.67
32.10
35.74
38.46
39.73
39.54
38.26
36.34
33.95
30.98
27.10
22.02
15.70
8.41
0.63
-7.06
-14.18
-20.43
-25.79
-30.46
-34.78
-39.23
-44.30
-50.52
-58.32
-67.69
-77.98
-87.56
-94.03
-94.84
-88.14
-73.64
-52.79
-28.48
-4.01
17.84
35.46
48.38
56.82
61.19
61.85
59.18
53.85
46.94
39.92
34.21
30.84
30.12
31.60
34.36
37.38
39.82
41.26
41.59
40.87
39.21
36.65
33.20
28.91
23.87
18.31
12.40
6.30
0.14
-5.98
-11.90
-17.44
-22.39
-26.64
-30.30
-33.70
-37.42
-42.25
-48.83
-57.41
-67.38
-77.13
-84.31
-86.39
-81.53
-69.35
-51.12
-29.40
-7.24
12.74
28.94
40.75
48.22
51.67
51.40
47.82
41.64
34.06
26.64
20.84
17.71
17.48
19.62
23.04
26.61
29.43
31.11
31.61
31.20
30.09
28.33
25.76
22.12
17.20
11.02
3.91
-3.60
-10.86
-17.39
-22.93
-27.59
-31.67
-35.63
-39.98
-45.25
-51.91
-60.10
-69.33
-78.25
-84.66
-86.10
-80.70
-67.96
-49.17
-26.95
-4.51
15.49
31.48
43.07
50.60
54.51
55.06
52.39
46.86
39.35
31.28
24.33
19.84
18.42
19.78
22.90
26.54
29.65
31.62
32.38
32.14
31.19
29.63
27.36
24.08
19.52
13.58
6.46
-1.29
-9.02
-16.16
-22.42
-27.89
-32.95
-38.24
-44.36
-51.81
-60.72
-70.69
-80.58
-88.61
-92.57
-90.48
-81.26
-65.20
-43.97
-20.23
3.17
23.84
40.26
51.79
58.42
60.53
58.71
53.77
46.79
39.04
31.92
26.59
23.80
23.69
25.79
29.18
32.78
35.66
37.27
37.49
36.54
34.79
32.52
29.71
26.14
21.47
15.56
8.51
0.83
-6.80
-13.69
-19.48
-24.15
-28.12
-32.00
-36.46
-42.07
-49.17
-57.83
-67.61
-77.37
-85.25
-88.95
-86.36
-76.35
-59.38
-37.48
-13.75
8.62
27.23
41.02
50.08
55.08
56.71
55.36
51.30
44.98
37.38
29.94
24.20
21.25
21.32
23.80
27.44
30.97
33.50
34.72
34.86
34.38
33.57
32.42
30.51
27.33
22.47
15.93
8.17
-0.02
-7.84
-14.74
-20.57
-25.55
-30.06
-34.42
-38.87
-43.57
-48.82
-54.97
-62.18
-69.97
-76.93
-80.83
-79.36
-70.94
-55.61
-35.13
-12.42
9.43
28.05
42.27
51.93
57.41
59.14
57.39
52.53
45.24
36.75
28.64
22.48
19.29
19.23
21.61
25.24
28.87
31.62
33.17
33.70
33.55
32.94
31.77
29.72
26.35
21.46
15.16
7.93
0.45
-6.67
-13.04
-18.59
-23.54
-28.23
-32.96
-38.04
-43.71
-50.22
-57.69
-65.81
-73.58
-79.26
-80.72
-76.21
-65.11
-48.27
-27.90
-6.74
12.69
28.81
41.03
49.41
54.16
55.29
52.80
46.96
38.69
29.55
21.49
16.03
13.87
14.57
16.88
19.31
20.88
21.37
21.20
20.82
20.27
18.98
16.08
10.95
3.66
-4.91
-13.48
-21.06
-27.16
-31.98
-36.07
-39.97
-44.02
-48.55
-53.98
-60.83
-69.25
-78.38
-86.14
-89.52
-85.73
-73.39
-53.33
-28.61
-3.25
19.10
36.41
48.45
56.14
60.46
61.83
59.82
53.97
44.59
33.24
22.39
14.58
11.30
12.40
16.20
20.40
23.23
24.11
23.67
23.09
23.20
23.90
24.06
22.23
17.35
9.37
-0.71
-11.28
-20.83
-28.47
-34.24
-38.90
-43.60
-49.47
-57.28
-67.21
-78.66
-90.11
-99.31
-103.65
-100.91
-90.02
-71.59
-47.82
-21.86
3.11
24.68
41.53
53.31
60.19
62.50
60.64
55.24
47.40
38.71
30.94
25.59
23.40
24.11
26.71
29.84
32.41
33.93
34.51
34.61
34.59
34.34
33.32
30.74
25.99
18.95
10.09
0.41
-8.96
-17.11
-23.62
-28.70
-33.00
-37.51
-43.19
-50.76
-60.39
-71.41
-82.20
-90.30
-92.99
-88.15
-75.03
-54.77
-30.04
-4.32
19.24
38.54
52.76
62.05
66.89
67.74
64.96
59.15
51.39
43.31
36.68
32.92
32.54
35.01
38.93
42.74
45.26
46.09
45.53
44.23
42.67
40.81
38.11
33.82
27.42
18.94
9.11
-0.94
-10.12
-17.75
-23.84
-29.01
-34.16
-40.16
-47.63
-56.75
-67.23
-78.15
-87.97
-94.57
-95.72
-89.70
-76.03
-55.80
-31.51
-6.35
16.63
35.31
48.74
56.89
60.29
59.61
55.59
49.10
41.25
33.44
27.11
23.39
22.82
25.06
29.06
33.43
36.92
38.79
39.01
38.03
36.47
34.64
32.37
29.11
24.27
17.63
9.53
0.85
-7.32
-14.13
-19.31
-23.25
-26.85
-31.18
-37.12
-45.12
-55.01
-65.90
-76.23
-83.85
-86.48
-82.32
-70.66
-52.27
-29.33
-4.86
18.11
37.26
51.41
60.30
64.29
63.95
59.94
53.10
44.65
36.13
29.08
24.73
23.50
24.93
27.88
30.98
33.16
33.88
33.24
31.67
29.55
27.01
23.78
19.41
13.53
6.14
-2.30
-10.99
-19.10
-26.05
-31.62
-36.10
-40.18
-44.83
-51.06
-59.54
-70.18
-81.81
-92.11
-98.17
-97.34
-88.15
-70.97
-47.91
-22.22
2.81
24.57
41.62
53.52
60.36
62.48
60.34
54.64
46.55
37.73
29.95
24.68
22.68
23.71
26.80
30.57
33.74
35.59
35.97
35.22
33.77
31.84
29.26
