1553188656.00
64.000000
-0.00
-0.00
-0.00
-0.00
-0.00
-0.00
-0.00
-0.00
-0.00
-0.00
0.00
0.01
0.01
-0.00
-0.03
-0.05
-0.05
0.00
0.13
0.36
0.66
1.01
1.37
1.72
2.06
2.40
2.79
3.24
3.80
4.42
5.06
5.66
6.20
6.68
7.15
7.68
8.31
9.14
10.09
11.04
11.88
12.56
13.14
13.76
14.65
15.96
17.91
20.32
22.90
25.38
27.58
29.57
31.68
34.32
37.81
42.54
48.15
54.10
59.83
64.97
69.58
74.14
79.35
85.71
93.76
103.00
112.62
121.73
129.76
136.74
143.30
150.76
157.81
166.69
177.98
191.77
206.86
220.33
227.88
224.89
208.01
176.33
132.23
79.52
22.50
-35.59
-93.21
-150.05
-206.21
-261.38
-314.72
-364.81
-410.77
-451.94
-487.76
-517.30
-539.09
-551.30
-552.10
-540.42
-516.15
-480.65
-436.15
-385.33
-330.73
-274.40
-217.81
-162.09
-108.28
-57.49
-11.05
29.87
64.51
92.78
115.21
132.79
146.51
157.04
164.62
169.03
170.05
167.73
162.62
155.69
148.00
140.41
133.26
126.37
119.23
111.31
102.17
91.55
79.50
66.69
54.63
45.57
41.86
44.89
54.27
67.68
81.54
92.37
98.07
98.47
94.86
89.28
83.05
76.71
70.21
63.46
56.68
50.35
44.99
40.76
37.43
34.45
31.20
27.36
23.02
18.60
14.71
11.83
10.14
9.40
9.08
8.59
7.56
5.88
3.84
1.84
0.27
-0.67
-1.09
-1.30
-1.70
-2.42
-3.34
-4.00
-3.93
-2.91
-1.19
0.59
1.64
1.46
0.05
-2.05
-4.08
-5.45
-5.96
-5.82
-5.42
-5.03
-4.68
-4.19
-3.37
-2.17
-0.84
0.26
0.83
0.74
0.19
-0.52
-1.08
-1.40
-1.57
-1.80
-2.21
-2.74
-3.18
-3.27
-2.89
-2.13
-1.20
-0.35
0.24
0.58
0.73
0.82
0.99
1.30
1.75
2.31
2.90
3.47
3.99
4.53
5.14
5.92
6.84
7.79
8.59
9.09
9.20
8.93
8.34
7.47
6.36
5.03
3.44
1.65
-0.19
-1.93
-3.44
-4.68
-5.74
-6.71
-7.71
-8.67
-9.47
-9.96
-10.06
-9.83
-9.46
-9.13
-8.98
-8.93
-8.82
-8.43
-7.64
-6.54
-5.39
-4.48
-4.00
-3.95
-4.14
-4.31
-4.28
-4.02
-3.66
-3.37
-3.27
-3.34
-3.46
-3.50
-3.40
-3.17
-2.88
-2.61
-2.35
-2.07
-1.68
-1.18
-0.67
-0.33
-0.29
-0.59
-1.07
-1.44
-1.40
-0.79
0.37
1.82
3.25
4.39
5.14
5.52
5.68
5.74
5.77
5.75
5.64
5.34
4.83
4.17
3.47
2.85
2.34
1.92
1.53
1.13
0.75
0.50
0.51
0.79
1.23
1.57
1.56
1.08
0.22
-0.78
-1.62
-2.15
-2.43
-2.66
-3.06
-3.73
-4.56
-5.36
-5.92
-6.19
-6.28
-6.41
-6.75
-7.30
-7.87
-8.15
-7.88
-6.93
-5.35
-3.32
-1.05
1.28
3.53
5.59
7.38
8.82
9.83
10.39
10.46
10.04
9.18
7.99
6.68
5.50
4.67
4.28
4.28
4.48
4.64
4.57
4.20
3.57
2.78
1.91
1.01
0.05
-1.03
-2.29
-3.73
-5.26
-6.77
-8.14
-9.32
-10.36
-11.35
-12.35
-13.36
-14.32
-15.19
-15.98
-16.80
-17.80
-19.05
-20.43
-21.63
-22.26
-22.03
-20.83
-18.79
-16.19
-13.27
-10.21
-7.07
-3.87
-0.66
2.48
5.41
8.06
10.36
12.27
13.78
14.84
15.45
15.63
15.46
15.03
14.44
13.76
13.06
12.39
11.79
11.28
10.84
10.39
9.87
9.24
8.55
7.90
7.39
7.07
6.90
6.74
6.43
5.80
4.73
3.21
1.32
-0.75
-2.75
-4.37
-5.36
-5.53
-4.85
-3.40
-1.39
0.90
3.15
5.09
6.47
7.14
7.03
6.22
4.86
3.25
1.72
0.57
0.04
0.20
0.96
2.10
3.35
4.44
5.21
5.58
5.55
5.15
4.44
3.47
2.29
1.00
-0.38
-1.83
-3.37
-5.01
-6.70
-8.26
-9.48
-10.20
-10.43
-10.39
-10.40
-10.75
-11.55
-12.59
-13.54
-14.01
-13.75
-12.68
-10.89
-8.53
-5.79
-2.89
-0.13
2.18
3.79
4.64
4.89
4.88
4.94
5.24
5.68
5.98
5.91
5.45
4.84
4.45
4.57
5.25
6.17
6.90
7.04
6.46
5.40
4.27
3.49
3.21
3.24
3.21
2.77
1.81
0.54
-0.66
-1.44
-1.66
-1.50
-1.37
-1.63
-2.46
-3.76
-5.19
-6.33
-6.89
-6.80
-6.20
-5.28
-4.21
-3.00
-1.60
0.04
1.85
3.58
4.93
5.63
5.61
4.98
4.01
2.99
2.16
1.58
1.24
1.08
1.02
1.05
1.15
1.34
1.63
2.00
2.38
2.71
2.87
2.79
2.40
1.71
0.81
-0.13
-0.95
-1.53
-1.88
-2.11
-2.42
-2.91
-3.60
-4.38
-5.15
-5.84
-6.48
-7.14
-7.79
-8.23
-8.20
-7.49
-6.08
-4.22
-2.32
-0.72
0.41
1.20
1.90
2.77
3.87
5.02
5.92
6.27
5.96
5.14
4.17
3.44
3.19
3.44
3.98
4.54
4.89
4.98
4.91
4.80
4.68
4.48
4.06
3.32
2.31
1.24
0.35
-0.18
-0.33
-0.32
-0.41
-0.83
-1.62
-2.64
-3.62
-4.40
-4.95
-5.40
-5.91
-6.50
-6.98
-7.07
-6.49
-5.16
-3.23
-1.01
1.19
3.16
4.77
5.98
6.73
7.00
6.78
6.14
5.27
4.35
3.58
3.04
2.75
2.64
2.61
2.61
2.58
2.53
2.44
2.29
2.04
1.64
1.10
0.45
-0.24
-0.93
-1.63
-2.37
-3.18
-4.03
-4.84
-5.50
-5.95
-6.22
-6.41
-6.62
-6.88
-7.14
-7.35
-7.51
-7.67
-7.93
-8.32
-8.68
-8.73
-8.15
-6.77
-4.68
-2.20
0.22
2.21
3.58
4.39
4.84
5.14
5.39
5.58
5.59
5.34
4.82
4.18
3.64
3.39
3.54
4.08
4.83
5.60
6.17
6.43
6.34
5.98
5.44
4.85
4.27
3.74
3.26
2.86
2.53
2.28
2.02
1.65
1.05
0.14
-1.05
-2.35
-3.59
-4.60
-5.33
-5.88
-6.41
-7.09
-7.98
-8.99
-9.90
-10.43
-10.34
-9.55
-8.08
-6.11
-3.86
-1.58
0.54
2.35
3.73
4.61
4.97
4.87
4.46
3.96
3.59
3.49
3.68
4.05
4.40
4.55
4.41
4.03
3.56
3.19
3.04
3.07
3.15
3.14
2.89
2.43
1.86
1.30
0.80
0.33
-0.22
-0.90
-1.67
-2.41
-2.95
-3.27
-3.46
-3.71
-4.21
-5.03
-6.02
-6.94
-7.54
-7.65
-7.27
-6.49
-5.38
-4.00
-2.38
-0.61
1.11
2.58
3.62
4.14
4.23
4.06
3.78
3.51
3.27
3.06
2.87
2.78
2.82
3.06
3.42
3.75
3.90
3.77
3.37
2.81
2.27
1.86
1.60
1.37
1.03
0.47
-0.31
-1.21
-2.12
-2.92
-3.57
-4.10
-4.53
-4.88
-5.18
-5.44
-5.70
-6.02
-6.44
-7.01
-7.70
-8.48
-9.20
-9.64
-9.57
-8.81
-7.32
-5.25
-2.91
-0.66
1.22
2.60
3.49
3.97
4.18
4.19
4.07
3.85
3.57
3.25
2.91
2.60
2.36
2.30
2.47
2.91
3.52
4.14
4.52
4.50
4.03
3.26
2.38
1.58
0.92
0.35
-0.25
-0.92
-1.63
-2.24
-2.62
-2.72
-2.61
-2.47
-2.44
-2.58
-2.87
-3.23
-3.65
-4.15
-4.81
-5.68
-6.63
-7.47
-7.89
-7.64
-6.66
-5.03
-3.00
-0.85
1.17
2.89
4.21
5.08
5.48
5.43
5.04
4.45
3.83
3.35
3.12
3.16
3.48
3.99
4.58
5.11
5.46
5.56
5.43
5.18
4.93
4.75
4.60
4.33
3.79
2.91
1.81
0.70
-0.16
-0.66
-0.85
-0.98
-1.29
-1.93
-2.82
-3.76
-4.55
-5.13
-5.59
-6.10
-6.79
-7.61
-8.39
-8.87
-8.85
-8.24
-7.12
-5.64
-3.97
-2.26
-0.62
0.90
2.27
3.49
4.57
5.44
6.00
6.14
5.86
5.26
4.55
3.95
3.61
3.52
3.59
3.70
3.80
3.95
4.18
4.48
4.71
4.69
4.30
3.59
2.73
1.90
1.19
0.54
-0.20
-1.12
-2.16
-3.09
-3.68
-3.87
-3.83
-3.87
-4.28
-5.15
-6.28
-7.33
-7.97
-8.02
-7.51
-6.61
-5.48
-4.23
-2.90
-1.49
-0.02
1.41
2.69
3.66
4.21
4.35
4.14
3.75
3.34
2.94
2.52
1.96
1.21
0.38
-0.29
-0.52
-0.17
0.57
1.32
1.67
1.37
0.56
-0.38
-1.01
-1.11
-0.84
-0.63
-0.90
-1.80
-3.09
-4.30
-5.01
-5.05
-4.70
-4.41
-4.61
-5.46
-6.75
-8.12
-9.23
-9.93
-10.35
-10.66
-10.92
-11.00
-10.58
-9.40
-7.34
-4.57
-1.55
1.17
3.14
4.15
4.27
3.82
3.19
2.69
2.46
2.46
2.53
2.57
2.55
2.54
2.64
2.90
3.27
3.65
3.94
4.07
4.03
3.81
3.38
2.67
1.66
0.41
-0.91
-2.10
-3.02
-3.67
-4.20
-4.78
-5.54
-6.49
-7.52
-8.55
-9.60
-10.80
-12.28
-14.04
-15.87
-17.45
-18.47
-18.74
-18.22
-17.02
-15.25
-13.00
-10.33
-7.30
-4.00
-0.58
2.74
5.78
8.34
10.37
11.89
13.03
13.95
14.76
15.45
15.94
16.15
16.11
15.96
15.91
16.03
16.19
16.12
15.58
14.45
12.88
11.17
9.61
8.35
7.32
6.35
5.28
4.08
2.84
1.72
0.79
0.03
-0.69
-1.48
-2.36
-3.22
-3.84
-3.97
-3.49
-2.40
-0.85
0.93
2.71
4.30
5.60
6.55
7.10
7.21
6.82
5.96
4.73
3.34
2.06
1.14
0.72
0.76
1.09
1.49
1.75
1.77
1.58
1.25
0.89
0.58
0.34
0.19
0.12
0.08
0.02
-0.12
-0.42
-0.90
-1.56
-2.32
-3.11
-3.83
-4.46
-5.00
-5.55
-6.21
-7.02
-7.91
-8.67
-9.06
-8.81
-7.82
-6.15
-4.02
-1.74
0.39
2.14
3.38
4.10
4.35
4.23
3.89
3.43
2.96
2.55
2.26
2.16
2.27
2.58
3.03
3.50
3.90
4.15
4.22
4.12
3.91
3.57
3.11
2.48
1.68
0.72
-0.30
-1.22
-1.84
-2.03
-1.76
-1.17
-0.50
-0.07
-0.07
-0.60
-1.62
-3.00
-4.62
-6.30
-7.82
-8.92
-9.30
-8.75
-7.22
-4.93
-2.27
0.30
2.37
3.71
4.28
4.19
3.64
2.81
1.83
0.82
-0.08
-0.72
-0.94
-0.59
0.38
1.86
3.59
5.22
6.43
7.02
7.01
6.57
6.00
5.55
5.37
5.51
5.86
6.32
6.80
7.26
7.68
8.08
8.43
8.69
8.84
8.89
8.87
8.82
8.75
8.64
8.47
8.24
8.00
7.88
8.01
8.54
9.52
10.88
12.45
13.94
15.06
15.55
15.33
14.43
13.00
11.23
9.32
7.44
5.75
4.35
3.38
2.83
2.65
2.69
2.76
2.69
2.38
1.80
0.99
0.03
-1.02
-2.07
-3.03
-3.84
-4.47
-4.96
-5.41
-6.00
-6.91
-8.29
-10.08
-12.15
-14.25
-16.20
-17.92
-19.51
-21.10
-22.67
-24.01
-24.72
-24.39
-22.86
-20.26
-17.06
-13.79
-10.85
-8.34
-6.13
-4.01
-1.90
0.12
1.81
2.97
3.57
3.74
3.70
3.67
3.78
4.07
4.51
5.04
5.58
6.03
6.26
6.15
5.66
4.86
3.88
2.84
1.75
0.51
-1.01
-2.88
-5.03
-7.31
-9.52
-11.48
-13.13
-14.46
-15.53
-16.40
-17.15
-17.88
-18.63
-19.42
-20.13
-20.56
-20.46
-19.60
-17.88
-15.31
-11.99
-8.07
-3.73
0.81
5.25
9.23
12.41
14.55
15.61
15.73
15.19
14.29
13.27
12.28
11.40
10.65
10.04
9.59
9.29
9.13
9.08
9.10
9.16
9.26
9.41
9.57
9.59
9.25
8.30
6.62
4.27
1.51
-1.26
-3.71
-5.65
-7.04
-7.99
-8.63
-9.01
-9.19
-9.15
-8.90
-8.39
-7.56
-6.30
-4.47
-1.98
1.23
5.08
9.35
13.67
17.61
20.76
22.87
23.94
24.24
24.10
23.82
23.51
23.16
22.75
22.40
22.39
23.02
24.42
26.43
28.64
30.56
31.83
32.34
32.21
31.69
30.97
30.14
29.19
28.04
26.67
25.10
23.40
21.68
20.01
18.46
17.00
15.54
13.90
11.94
9.59
7.00
4.40
2.04
0.01
-1.81
-3.67
-5.71
-7.91
-10.01
-11.82
-13.31
-14.64
-16.03
-17.48
-18.67
-19.18
-18.81
-17.94
-17.47
-18.46
-21.55
-26.67
-32.98
-39.42
-45.13
-49.89
-54.06
-58.24
-62.83
-67.80
-72.71
-77.08
-80.62
-83.49
-86.01
-88.33
-90.19
-90.92
-89.70
-86.13
-80.28
-72.82
-64.46
-55.54
-45.97
-35.47
-24.06
-12.42
-1.80
6.42
11.45
13.49
13.57
12.94
12.25
11.14
8.59
3.64
-3.72
-12.27
-20.01
-25.01
-26.20
-23.37
-16.73
-6.27
8.52
28.07
51.87
77.89
102.79
123.07
136.57
143.36
145.79
147.55
152.19
162.09
177.80
198.05
220.27
240.99
256.38
262.72
257.35
239.85
212.94
182.44
156.09
141.06
141.31
155.77
178.37
200.25
212.94
211.36
194.99
167.07
132.49
95.57
58.83
23.17
-11.12
-43.52
-72.88
-97.98
-118.22
-134.05
-146.75
-157.40
-166.25
-172.49
-174.85
-172.58
-166.11
-157.22
-148.43
-142.01
-139.06
-139.25
-141.19
-143.32
-144.66
-145.18
-145.49
-146.19
-147.43
-148.80
-149.56
-149.10
-147.06
-143.29
-137.69
-130.17
-120.88
-110.58
-100.54
-92.24
-86.69
-83.95
-83.18
-83.01
-82.24
-80.10
-76.32
-70.87
-63.87
-55.63
-46.79
-38.32
-31.22
-26.03
-22.55
-19.98
-17.27
-13.76
-9.47
-4.98
-1.06
1.77
3.46
4.43
5.23
6.35
7.95
9.92
11.89
13.39
13.98
13.31
11.31
8.19
4.46
0.76
-2.34
-4.49
-5.61
-5.84
-5.42
-4.61
-3.73
-3.07
-2.87
-3.23
-4.00
-4.91
-5.76
-6.55
-7.62
-9.49
-12.51
-16.64
-21.21
-25.07
-27.05
-26.41
-23.25
-18.52
-13.56
-9.55
-6.91
-5.29
-3.79
-1.57
1.65
5.49
9.17
12.10
14.22
15.99
18.08
20.83
24.07
27.15
29.32
30.10
29.53
28.11
26.51
25.26
24.49
23.87
22.78
20.62
16.91
11.48
4.36
-4.26
-14.02
-24.29
-34.14
-42.53
-48.56
-52.01
-53.54
-54.59
-56.81
-61.24
-67.73
-74.79
-80.21
-82.07
-79.56
-73.16
-64.10
-53.42
-41.52
-28.33
-14.12
-0.02
12.13
20.82
26.15
30.32
36.77
48.34
65.49
85.87
105.42
120.44
129.21
132.36
131.98
130.06
127.44
123.66
117.62
108.32
95.46
79.52
61.53
43.13
26.71
15.58
13.53
23.59
46.36
78.90
115.01
147.12
169.04
178.26
176.58
168.82
160.25
154.25
151.18
148.94
144.31
134.37
117.13
91.71
58.44
19.32
-21.60
-58.54
-85.58
-98.65
-97.24
-84.78
-67.26
-50.99
-40.68
-38.38
-44.02
-56.39
-74.31
-97.05
-124.03
-154.02
-184.81
-213.35
-236.45
-251.59
-257.52
-254.31
-243.06
-225.69
-204.96
-184.44
-168.36
-160.25
-161.34
-169.12
-177.49
-178.66
-166.34
-138.27
-97.20
-49.14
-0.64
43.55
81.32
112.32
136.46
153.12
161.31
160.80
153.05
141.09
128.53
118.37
111.96
108.97
107.75
106.36
103.45
98.76
93.22
88.44
85.90
86.24
88.80
92.03
94.08
93.72
90.75
86.04
80.95
76.75
74.05
72.77
72.43
72.56
72.92
73.47
74.16
74.83
75.26
75.26
74.89
74.51
74.61
75.48
76.80
77.59
76.52
72.54
65.37
55.60
44.61
34.14
25.81
20.64
18.73
19.46
21.72
24.02
24.44
21.44
14.48
4.16
-8.02
-20.44
-31.81
-41.34
-49.10
-56.35
-63.87
-71.30
-77.07
-79.47
-78.06
-74.02
-69.46
-67.22
-70.76
-81.75
-99.54
-121.52
-144.29
-165.17
-182.06
-192.61
-195.34
-191.08
-181.07
-166.79
-150.00
-133.59
-122.37
-121.35
-133.11
-144.77
-144.30
-125.25
-90.49
-48.07
-5.69
30.56
52.51
61.80
60.27
47.92
25.73
-3.32
-34.06
-55.19
-57.65
-36.35
8.20
67.87
128.85
177.94
207.12
215.40
206.70
185.28
153.97
114.66
68.64
18.15
-32.31
-77.02
-110.92
-131.09
-137.68
-132.84
-119.15
-99.73
-77.62
-54.73
-31.59
-7.81
16.24
37.85
52.51
55.88
46.00
25.06
-0.78
-24.00
-39.21
-45.50
-46.88
-50.02
-60.80
-81.40
-108.84
-135.54
-152.12
-150.93
-129.21
-90.25
-41.93
6.70
48.91
82.15
107.47
127.31
143.31
155.34
161.97
161.88
154.95
142.75
127.66
112.18
97.95
85.22
73.27
61.06
47.94
34.08
20.16
7.25
-3.77
-12.47
-18.96
-23.59
-26.88
-29.28
-31.33
-33.21
-34.56
-34.39
-31.30
-24.31
-13.62
-0.91
10.94
19.26
22.67
21.65
18.18
14.69
12.95
13.57
15.69
18.11
20.04
21.71
24.18
28.51
34.86
42.16
48.03
50.21
47.58
40.95
32.71
25.73
21.93
21.61
23.30
24.92
24.90
22.79
19.14
14.85
10.65
6.95
3.72
0.91
-1.49
-3.41
-4.87
-6.00
-7.02
-8.03
-9.13
-10.27
-11.44
-12.64
-13.95
-15.42
-17.00
-18.54
-19.98
-21.44
-23.14
-25.24
-27.62
-29.63
-30.29
-28.55
-24.01
-17.31
-10.21
-4.97
-3.19
-4.92
-8.28
-10.21
-7.96
-0.46
11.15
24.12
35.57
43.81
48.96
52.35
55.49
59.14
63.26
67.44
71.54
75.84
80.54
85.20
88.62
89.23
85.99
79.04
69.82
60.41
52.48
46.48
41.36
35.21
26.10
12.88
-4.29
-24.06
-44.39
-63.04
-78.33
-89.41
-96.03
-98.36
-96.76
-91.58
-83.14
-71.86
-58.42
-44.21
-31.18
-20.72
-13.38
-8.47
-4.11
2.16
12.27
27.08
45.21
63.66
80.00
92.78
101.74
107.54
111.02
112.47
111.98
108.41
100.35
88.76
76.30
66.68
63.51
68.84
82.11
100.55
118.14
127.49
124.18
107.17
78.65
43.10
5.47
-35.40
-75.40
-108.57
-140.65
-177.81
-223.98
-280.12
-343.11
-405.49
-456.70
-485.45
-485.96
-461.15
-420.93
-379.73
-350.73
-339.71
-342.59
-347.81
-341.68
-315.68
-269.32
-207.80
-140.06
-75.98
-24.08
9.75
23.39
19.69
5.43
-10.31
-18.22
-12.47
7.46
38.09
74.58
113.35
153.31
194.64
237.32
280.36
321.26
356.51
382.55
396.66
397.73
386.89
367.07
341.93
314.50
285.94
255.49
221.64
183.79
143.20
102.75
65.69
34.33
9.60
-8.59
-20.83
-27.98
-31.54
-33.97
-38.36
-47.37
-61.88
-80.40
-99.60
-115.83
-126.83
-132.22
-133.01
-130.32
-124.37
-114.44
-99.66
-80.11
-57.14
-32.79
-8.69
14.73
37.94
61.34
84.03
103.64
117.17
122.71
120.64
113.60
105.22
98.26
93.40
89.33
84.06
76.56
67.60
59.43
54.51
54.12
57.72
63.26
68.09
70.04
68.02
62.06
52.98
42.00
30.46
19.73
11.06
5.38
2.97
3.35
5.33
7.49
8.70
8.40
6.62
3.67
-0.27
-5.36
-12.04
-20.68
-31.28
-43.31
-55.77
-67.49
-77.39
-84.62
-88.71
-89.48
-87.25
-82.65
-76.54
-69.78
-62.96
-56.28
-49.72
-43.25
-37.02
-31.25
-25.93
-20.52
-13.86
-4.60
8.12
24.04
41.48
57.86
70.54
77.87
79.71
77.37
72.91
68.37
65.07
63.85
65.41
70.65
80.38
94.64
111.98
129.48
143.48
151.14
151.52
145.79
136.29
125.06
112.75
98.54
81.11
59.91
35.92
11.41
-11.25
-31.08
-49.33
-69.04
-93.44
-123.92
-158.92
-194.24
-224.94
-247.61
-261.57
-268.61
-271.40
-271.73
-269.64
-264.05
-253.97
-239.54
-222.06
-203.12
-183.67
-163.64
-142.65
-120.94
-99.84
-81.28
-66.82
-56.63
-49.32
-42.57
-34.14
-22.80
-8.61
7.42
23.99
40.16
55.63
70.45
84.66
97.86
109.24
117.86
123.06
124.77
123.45
119.92
114.96
109.00
102.00
93.54
83.21
70.97
57.45
43.82
31.55
21.90
15.55
12.49
12.07
13.46
15.92
18.83
21.62
23.58
23.98
22.35
18.82
14.22
9.83
6.70
5.26
5.17
5.75
6.47
7.23
8.34
10.12
12.66
15.71
18.83
21.55
23.44
24.15
23.47
21.57
19.15
17.52
18.15
22.11
29.41
38.83
48.26
55.41
58.69
57.64
53.04
46.45
39.68
34.15
30.58
28.88
28.39
28.14
27.23
25.01
21.14
15.53
8.32
-0.28
-9.96
-20.30
-30.81
-40.87
-49.84
-57.18
-62.54
-65.81
-67.06
-66.44
-64.13
-60.35
-55.51
-50.24
-45.29
-41.30
-38.48
-36.44
-34.48
-31.93
-28.54
-24.54
-20.43
-16.71
-13.56
-10.82
-8.11
-5.08
-1.51
2.57
6.90
10.96
14.17
16.03
16.33
15.24
13.22
10.79
8.25
5.51
2.23
-1.92
-6.96
-12.46
-17.69
-21.88
-24.44
-25.15
-24.08
-21.42
-17.46
-12.53
-7.08
-1.68
2.99
6.17
7.42
6.77
4.88
2.86
1.84
2.50
4.81
7.91
10.64
12.12
12.19
11.53
11.17
11.90
13.81
16.17
17.92
18.27
17.19
15.39
13.87
13.32
13.77
14.53
14.69
13.63
11.33
8.33
5.36
2.95
1.25
-0.03
-1.27
-2.70
-4.32
-5.98
-7.52
-8.98
-10.44
-12.11
-14.05
-16.16
-18.17
-19.67
-20.28
-19.72
-17.83
-14.72
-10.73
-6.35
-2.14
1.41
4.06
5.80
6.83
7.38
7.60
7.52
7.04
6.11
4.80
3.41
2.36
2.01
2.50
3.60
4.85
5.70
5.80
5.08
3.78
2.24
0.67
-0.91
-2.64
-4.69
-7.05
-9.47
-11.48
-12.66
-12.81
-12.05
-10.81
-9.61
-8.87
-8.69
-8.83
-8.88
-8.42
-7.22
-5.30
-2.85
-0.16
2.51
5.01
7.18
8.90
10.06
10.59
10.53
10.00
9.21
8.39
7.74
7.36
7.21
7.19
7.17
7.05
6.84
6.66
6.62
6.81
7.14
7.37
7.22
6.46
5.03
3.12
1.05
-0.85
-2.40
-3.59
-4.63
-5.77
-7.22
-8.95
-10.72
-12.18
-12.99
-12.98
-12.17
-10.74
-8.90
-6.78
-4.42
-1.84
0.79
3.18
4.94
5.75
5.61
4.84
3.97
3.49
3.70
4.53
5.72
6.95
8.05
9.08
10.16
11.38
12.61
13.55
13.88
13.44
12.35
11.02
9.86
9.13
8.81
8.62
8.22
7.44
6.32
5.11
4.03
3.11
2.17
0.91
-0.87
-3.11
-5.43
-7.25
-8.00
-7.37
-5.43
-2.54
0.75
3.90
6.57
8.63
10.10
11.05
11.46
11.24
10.35
8.84
6.98
5.19
3.88
3.26
3.29
3.69
4.08
4.23
4.11
3.92
3.85
4.01
4.34
4.59
4.50
3.90
2.79
1.32
-0.29
-1.88
-3.35
-4.71
-6.01
-7.26
-8.41
-9.36
-9.94
-10.03
-9.58
-8.62
-7.27
-5.68
-3.95
-2.13
-0.22
1.79
3.81
5.67
7.13
7.93
7.97
7.33
6.26
5.06
4.03
3.29
2.85
2.65
2.66
2.91
3.48
4.42
5.67
7.06
8.33
9.25
9.68
9.58
9.00
8.05
6.84
5.43
3.90
2.27
0.58
-1.15
-2.87
-4.50
-5.97
-7.14
-7.90
-8.16
-7.83
-6.90
-5.39
-3.39
-1.04
1.45
3.88
6.07
7.91
9.39
10.56
11.49
12.19
12.66
12.85
12.74
12.46
12.15
11.99
12.02
12.14
12.12
11.77
11.02
10.04
9.02
8.13
7.39
6.69
5.92
5.02
4.02
2.95
1.76
0.34
-1.40
-3.48
-5.81
-8.27
-10.76
-13.34
-16.11
-19.07
-22.01
-24.52
-26.09
-26.34
-25.17
-22.79
-19.70
-16.45
-13.47
-10.95
-8.82
-6.90
-5.03
-3.22
-1.74
-0.93
-1.00
-1.92
-3.34
-4.71
-5.57
-5.65
-5.06
-4.08
-3.05
-2.16
-1.43
-0.80
-0.23
0.22
0.42
0.18
-0.62
-1.99
-3.82
-5.92
-8.06
-10.00
-11.58
-12.71
-13.45
-13.94
-14.37
-14.90
-15.56
-16.24
-16.72
-16.72
-16.06
-14.68
-12.70
-10.32
-7.78
-5.19
-2.60
0.04
2.68
5.15
7.14
8.35
8.61
8.05
7.11
6.38
6.40
7.42
9.29
11.61
13.88
15.74
17.08
17.96
18.50
18.75
18.64
18.04
16.89
15.29
13.44
11.63
10.01
8.64
7.38
6.05
4.49
2.70
0.80
-0.96
-2.32
-3.09
-3.18
-2.60
-1.46
0.13
2.01
4.02
5.98
7.69
8.96
9.64
9.62
8.90
7.60
5.94
4.18
2.53
1.12
-0.05
-1.03
-1.85
-2.44
-2.69
-2.56
-2.16
-1.78
-1.75
-2.26
-3.27
-4.53
-5.71
-6.62
-7.33
-8.07
-9.07
-10.41
-11.96
-13.44
-14.64
-15.52
-16.19
-16.80
-17.35
-17.63
-17.29
-16.02
-13.70
-10.52
-6.88
-3.27
-0.10
2.42
4.28
5.59
6.49
7.03
7.20
6.97
6.36
5.48
4.62
4.04
3.91
4.24
4.77
5.17
5.15
4.61
3.70
2.61
1.47
0.30
-1.04
-2.62
-4.37
-6.04
-7.36
-8.27
-8.89
-9.56
-10.53
-11.82
-13.19
-14.28
-14.76
-14.59
-13.88
-12.88
-11.70
-10.29
-8.49
-6.21
-3.52
-0.79
1.53
3.07
3.72
3.67
3.29
2.93
2.79
2.72
2.50
1.98
1.21
0.50
0.23
0.62
1.58
2.66
3.31
3.14
2.12
0.62
-0.85
-1.87
-2.35
-2.55
-2.86
-3.58
-4.71
-5.97
-7.04
-7.73
-8.08
-8.33
-8.74
-9.38
-10.09
-10.52
-10.32
-9.31
-7.47
-5.03
-2.32
0.33
2.67
4.53
5.85
6.62
6.88
6.72
6.23
5.51
4.69
3.92
3.33
3.03
3.11
3.55
4.24
5.00
5.62
5.92
5.85
5.45
4.87
4.25
3.69
3.18
2.60
1.86
0.89
-0.28
-1.52
-2.65
-3.55
-4.18
-4.64
-5.17
-5.93
-6.97
-8.11
-8.99
-9.22
-8.60
-7.16
-5.15
-2.96
-0.85
1.03
2.69
4.15
5.38
6.26
6.66
6.47
5.75
4.66
3.39
2.14
1.08
0.31
-0.13
-0.20
0.02
0.43
0.93
1.40
1.78
2.02
2.11
1.97
1.57
0.90
0.03
-0.92
-1.78
-2.46
-2.95
-3.32
-3.68
-4.08
-4.52
-4.95
-5.30
-5.53
-5.59
-5.45
-5.02
-4.17
-2.85
-1.14
0.77
2.56
3.94
4.76
5.00
4.82
4.37
3.78
3.10
2.33
1.52
0.74
0.07
-0.40
-0.66
-0.72
-0.63
-0.47
-0.28
-0.14
-0.13
-0.29
-0.61
-1.07
-1.64
-2.29
-3.05
-3.92
-4.83
-5.65
-6.29
-6.69
-6.98
-7.33
-7.93
-8.78
-9.68
-10.30
-10.27
-9.40
-7.71
-5.46
-3.00
-0.68
1.26
2.74
3.80
4.52
4.95
5.12
4.99
4.54
3.83
2.96
2.15
1.59
1.45
1.74
2.37
3.11
3.70
3.97
3.84
3.40
2.77
2.07
1.32
0.49
-0.43
-1.39
-2.24
-2.89
-3.32
-3.69
-4.23
-5.10
-6.32
-7.67
-8.81
-9.40
-9.24
-8.29
-6.68
-4.59
-2.25
0.18
2.53
4.64
6.35
7.52
8.08
8.06
7.59
6.89
6.16
5.53
5.04
4.64
4.23
3.80
3.40
3.18
3.25
3.63
4.17
4.62
4.71
4.30
3.43
2.32
1.21
0.31
-0.35
-0.87
-1.43
-2.13
-2.98
-3.91
-4.86
-5.75
-6.59
-7.37
-8.03
-8.45
-8.45
-7.86
-6.60
-4.73
-2.48
-0.19
1.80
3.26
4.13
4.46
4.39
4.05
3.53
2.90
2.26
1.74
1.46
1.44
1.62
1.86
2.09
2.34
2.73
3.34
4.13
4.87
5.28
5.17
4.54
3.57
2.52
1.61
0.90
0.26
-0.51
-1.57
-2.92
-4.45
-5.91
-7.07
-7.74
-7.95
-7.79
-7.40
-6.85
-6.07
-4.92
-3.31
-1.32
0.70
2.29
3.08
3.00
2.30
1.45
0.85
0.66
0.72
0.71
0.43
-0.09
-0.57
-0.69
-0.33
0.37
1.03
1.24
0.83
-0.10
-1.28
-2.38
-3.29
-4.03
-4.83
-5.84
-7.12
-8.54
-9.92
-11.09
-12.03
-12.82
-13.67
-14.75
-16.08
-17.57
-19.00
-20.10
-20.62
-20.39
-19.34
-17.49
-14.98
-12.00
-8.85
-5.75
-2.87
-0.19
2.38
5.01
7.75
10.48
12.97
15.00
16.48
17.49
18.23
18.91
19.60
20.21
20.57
20.54
20.09
19.36
18.50
17.66
16.86
16.04
15.09
13.90
12.48
10.88
9.30
7.91
6.82
6.00
5.29
4.50
3.46
2.15
0.71
-0.69
-1.91
-2.91
-3.69
-4.28
-4.64
-4.63
-4.10
-2.97
-1.30
0.69
2.65
4.30
5.42
5.98
6.07
5.86
5.46
4.92
4.26
3.51
2.77
2.23
2.07
2.33
2.86
3.38
3.59
3.35
2.76
2.07
1.56
1.38
1.45
1.53
1.35
0.73
-0.27
-1.45
-2.53
-3.30
-3.71
-3.86
-3.94
-4.14
-4.58
-5.26
-6.14
-7.14
-8.15
-9.07
-9.73
-9.97
-9.57
-8.43
-6.51
-3.99
-1.17
1.56
3.84
5.44
6.33
6.64
6.56
6.28
5.89
5.38
4.77
4.10
3.52
3.17
3.14
3.38
3.70
3.91
3.87
3.60
3.22
2.93
2.77
2.71
2.61
2.33
1.81
1.13
0.46
-0.06
-0.45
-0.83
-1.43
-2.38
-3.66
-5.07
-6.34
-7.28
-7.91
-8.39
-8.84
-9.22
-9.22
-8.43
-6.57
-3.72
-0.44
2.53
4.54
5.32
5.09
4.35
3.59
3.06
2.60
1.97
1.02
-0.10
-0.99
-1.20
-0.55
0.79
2.30
3.42
3.83
3.56
2.95
2.39
2.11
2.09
2.07
1.77
1.07
0.06
-1.00
-1.91
-2.55
-2.98
-3.39
-3.96
-4.74
-5.70
-6.67
-7.56
-8.32
-9.00
-9.66
-10.33
-10.91
-11.20
-11.00
-10.16
-8.67
-6.65
-4.28
-1.80
0.57
2.62
4.19
5.20
5.69
5.83
5.84
5.91
6.10
6.36
6.55
6.56
6.39
6.16
6.01
6.04
6.22
6.45
6.54
6.36
5.83
5.02
4.04
3.09
2.28
1.71
1.34
1.05
0.71
0.22
-0.42
-1.17
-1.91
-2.59
-3.23
-3.87
-4.53
-5.15
-5.65
-5.96
-6.12
-6.24
-6.41
-6.66
-6.83
-6.67
-5.91
-4.44
-2.32
0.20
2.76
5.01
6.72
7.82
8.34
8.43
8.24
7.93
7.58
7.24
6.92
6.61
6.32
6.05
5.80
5.56
5.32
5.12
5.00
5.01
5.16
5.44
5.73
5.90
5.81
5.37
4.62
3.66
2.73
1.97
1.47
1.12
0.75
0.17
-0.70
-1.76
-2.82
-3.71
-4.35
-4.84
-5.33
-5.97
-6.78
-7.61
-8.22
-8.42
-8.09
-7.27
-6.10
-4.75
-3.33
-1.90
-0.47
0.94
2.26
3.33
3.96
4.03
3.55
2.65
1.58
0.63
-0.00
-0.22
-0.09
0.24
0.54
0.70
0.70
0.62
0.63
0.85
1.27
1.75
2.06
2.00
1.51
0.70
-0.19
-0.95
-1.48
-1.81
-2.07
-2.34
-2.68
-3.08
-3.58
-4.23
-5.13
-6.30
-7.58
-8.69
-9.26
-9.06
-8.06
-6.47
-4.58
-2.71
-1.01
0.47
1.80
2.98
3.99
4.70
4.97
4.73
4.00
2.96
1.85
0.93
0.34
0.12
0.13
0.24
0.33
0.40
0.48
0.61
0.75
0.80
0.64
0.22
-0.38
-1.04
-1.65
-2.16
-2.63
-3.17
-3.84
-4.62
-5.43
-6.15
-6.73
-7.24
-7.83
-8.60
-9.54
-10.44
-11.00
-10.94
-10.16
-8.74
-6.95
-5.04
-3.21
-1.51
0.07
1.47
2.60
3.31
3.51
3.21
2.59
1.91
1.40
1.22
1.40
1.84
2.40
2.92
3.30
3.50
3.56
3.53
3.47
3.38
3.24
3.02
2.69
2.30
1.90
1.48
1.04
0.56
0.06
-0.36
-0.59
-0.58
-0.39
-0.22
-0.29
-0.74
-1.55
-2.55
-3.45
-4.03
-4.18
-3.92
-3.39
-2.66
-1.72
-0.45
1.26
3.41
5.81
8.06
9.73
10.53
10.44
9.70
8.76
8.00
7.61
7.47
7.31
6.88
6.12
5.23
4.55
4.35
4.70
5.36
5.96
6.17
5.88
5.23
4.53
4.03
3.86
3.90
3.95
3.83
3.45
2.84
2.05
1.13
0.08
-1.14
-2.52
-4.00
-5.50
-6.87
-7.94
-8.57
-8.59
-7.92
-6.54
-4.57
-2.29
-0.01
1.92
3.26
3.92
3.94
3.48
2.72
1.79
0.78
-0.22
-1.14
-1.89
-2.37
-2.54
-2.42
-2.11
-1.72
-1.37
-1.14
-1.07
-1.15
-1.37
-1.74
-2.25
-2.92
-3.71
-4.50
-5.20
-5.73
-6.10
-6.49
-7.12
-8.17
-9.68
-11.47
-13.22
-14.60
-15.39
-15.52
-15.04
-14.09
-12.75
-11.06
-9.05
-6.76
-4.34
-1.98
0.05
1.52
2.28
2.32
1.73
0.77
-0.32
-1.35
-2.21
-2.91
-3.48
-3.94
-4.26
-4.39
-4.26
-3.91
-3.46
-3.09
-2.98
-3.24
-3.85
-4.70
-5.68
-6.65
-7.59
-8.55
-9.60
-10.82
-12.21
-13.73
-15.31
-16.89
-18.41
-19.86
-21.17
-22.23
-22.86
-22.77
-21.71
-19.48
-16.02
-11.50
-6.28
-0.81
4.41
9.04
12.86
15.78
17.81
18.99
19.41
19.23
18.70
18.12
17.76
17.77
18.10
18.57
18.95
19.10
19.03
18.82
18.55
18.24
17.85
17.28
16.52
15.61
14.64
13.66
12.62
11.41
9.91
8.13
6.21
4.45
3.12
2.30
1.85
1.44
0.64
-0.77
-2.76
-4.99
-6.94
-8.21
-8.57
-8.09
-6.98
-5.44
-3.58
-1.38
1.18
3.92
6.49
8.49
9.63
9.93
9.67
9.25
8.96
8.78
8.48
7.80
6.71
5.48
4.57
4.35
4.89
5.84
6.67
6.94
6.52
5.66
4.73
4.04
3.63
3.24
2.59
1.51
0.12
-1.30
-2.44
-3.15
-3.48
-3.69
-4.06
-4.78
-5.93
-7.41
-9.07
-10.70
-12.09
-13.06
-13.45
-13.15
-12.14
-10.48
-8.30
-5.81
-3.22
-0.78
1.32
2.90
3.82
3.99
3.42
2.19
0.55
-1.14
-2.57
-3.49
-3.88
-3.89
-3.78
-3.78
-4.01
-4.45
-5.03
-5.67
-6.33
-7.01
-7.70
-8.33
-8.72
-8.70
-8.19
-7.19
-5.85
-4.35
-2.86
-1.51
-0.33
0.63
1.30
1.57
1.35
0.64
-0.42
-1.53
-2.37
-2.61
-2.09
-0.85
0.95
3.04
5.17
7.13
8.81
10.12
11.01
11.42
11.31
10.69
9.64
8.35
7.03
5.91
5.16
4.82
4.82
4.96
5.04
4.90
4.58
4.20
3.96
3.93
4.03
4.02
3.62
2.73
1.41
-0.07
-1.41
-2.41
-3.09
-3.62
-4.22
-5.00
-5.92
-6.82
-7.58
-8.19
-8.78
-9.52
-10.50
-11.63
-12.68
-13.34
-13.40
-12.81
-11.68
-10.18
-8.43
-6.44
-4.12
-1.36
1.78
5.08
8.18
10.71
12.42
13.30
13.52
13.36
13.06
12.75
12.45
12.15
11.88
11.72
11.81
12.20
12.88
13.68
14.40
14.85
14.88
14.48
13.76
12.89
12.02
11.24
10.52
9.75
8.86
7.88
6.91
6.13
5.61
5.27
4.91
4.23
3.05
1.35
-0.71
-2.87
-4.90
-6.63
-7.95
-8.79
-9.11
-8.82
-7.87
-6.28
-4.22
-1.96
0.08
1.54
2.19
2.01
1.24
0.16
-0.96
-2.05
-3.15
-4.34
-5.62
-6.86
-7.84
-8.44
-8.65
-8.69
-8.81
-9.22
-10.00
-11.06
-12.23
-13.33
-14.27
-15.01
-15.55
-15.87
-15.90
-15.57
-14.82
-13.64
-12.09
-10.30
-8.46
-6.79
-5.49
-4.68
-4.35
-4.30
-4.20
-3.75
-2.71
-1.09
0.96
3.20
5.43
7.50
9.37
10.93
12.09
12.69
12.66
12.04
11.00
9.77
8.55
7.48
6.59
5.88
5.34
5.03
5.07
5.57
6.60
8.10
9.88
11.62
12.97
13.67
13.64
13.00
11.98
10.82
9.65
8.50
7.33
6.10
4.88
3.80
2.95
2.28
1.62
0.70
-0.69
-2.55
-4.68
-6.68
-8.19
-9.01
-9.13
-8.71
-7.93
-6.97
-5.92
-4.88
-3.92
-3.12
-2.52
-2.08
-1.73
-1.40
-1.14
-1.03
-1.18
-1.57
-2.02
-2.25
-2.03
-1.30
-0.23
0.86
1.77
2.50
3.25
4.33
5.88
7.76
9.57
10.84
11.27
10.91
10.10
9.27
8.71
8.40
8.05
7.24
5.70
3.42
0.64
-2.24
-4.86
-7.03
-8.74
-10.09
-11.11
-11.69
-11.62
-10.71
-8.90
-6.38
-3.56
-0.93
1.13
2.48
3.17
3.37
3.24
2.81
2.09
1.12
0.04
-0.91
-1.47
-1.47
-0.92
0.04
1.18
2.28
3.19
3.86
4.29
4.50
4.44
4.11
3.48
2.63
1.65
0.69
-0.17
-0.92
-1.61
-2.31
-3.05
-3.81
-4.56
-5.26
-5.94
-6.67
-7.50
-8.40
-9.26
-9.92
-10.18
-9.93
-9.11
-7.74
-5.92
-3.80
-1.55
0.60
2.43
3.81
4.68
5.11
5.22
5.15
5.02
4.92
4.87
4.86
4.83
4.71
4.44
4.07
3.75
3.68
4.05
4.95
6.19
7.44
8.30
8.51
8.03
7.06
5.87
4.72
3.69
2.74
1.75
0.62
-0.64
-2.00
-3.47
-5.16
-7.20
-9.68
-12.51
-15.36
-17.77
-19.29
-19.60
-18.64
-16.56
-13.67
-10.34
-6.94
-3.81
-1.30
0.27
0.69
-0.09
-1.87
-4.27
-6.78
-8.87
-10.20
-10.60
-10.15
-8.98
-7.28
-5.11
-2.49
0.54
3.86
7.16
10.07
12.24
13.47
13.77
13.33
12.44
11.37
10.31
9.33
8.42
7.53
6.59
5.55
4.31
2.80
0.96
-1.16
-3.37
-5.32
-6.61
-6.89
-6.10
-4.42
-2.24
0.01
2.10
4.00
5.83
7.64
9.29
10.49
10.94
10.51
9.39
8.02
6.88
6.31
6.33
6.70
7.07
7.18
7.04
6.83
6.75
6.86
6.93
6.57
5.46
3.50
0.96
-1.67
-3.88
-5.41
-6.35
-7.05
-7.85
-8.93
-10.18
-11.34
-12.19
-12.67
-12.97
-13.39
-14.08
-14.94
-15.61
-15.65
-14.71
-12.72
-9.96
-6.83
-3.78
-1.08
1.17
3.00
4.45
5.56
6.29
6.60
6.47
5.98
5.33
4.70
4.31
4.28
4.59
5.13
5.71
6.10
6.20
5.99
5.59
5.12
4.67
4.22
3.66
2.86
1.80
0.55
-0.71
-1.78
-2.61
-3.25
-3.89
-4.68
-5.70
-6.90
-8.11
-9.17
-9.96
-10.38
-10.35
-9.77
-8.59
-6.80
-4.52
-1.93
0.75
3.32
5.69
7.76
9.47
10.74
11.48
11.68
11.40
10.80
10.06
9.38
8.88
8.58
8.43
8.34
8.23
8.06
7.87
7.69
7.52
7.28
6.82
5.99
4.75
3.17
1.44
-0.23
-1.68
-2.89
-3.92
-4.86
-5.77
-6.68
-7.58
-8.48
-9.39
-10.35
-11.32
-12.20
-12.76
-12.73
-11.92
-10.24
-7.85
-5.02
-2.16
0.40
2.43
3.86
4.70
5.01
4.86
4.32
3.49
2.58
1.82
1.45
1.61
2.24
3.15
4.02
4.61
4.78
4.57
4.10
3.50
2.84
2.07
1.15
0.05
-1.14
-2.28
-3.22
-3.90
-4.38
-4.85
-5.48
-6.43
-7.68
-9.13
-10.53
-11.57
-11.97
-11.51
-10.14
-7.92
-5.11
-2.01
1.02
3.71
5.84
7.36
8.26
8.57
8.35
7.65
6.55
5.21
3.82
2.65
1.88
1.62
1.83
2.33
2.93
3.46
3.82
3.98
3.90
3.56
2.93
2.06
1.06
0.07
-0.82
-1.61
-2.41
-3.36
-4.55
-5.94
-7.41
-8.82
-10.00
-10.84
-11.22
-10.97
-9.98
-8.23
-5.86
-3.19
-0.62
1.50
2.99
3.84
4.20
4.26
4.14
3.91
3.52
2.96
2.22
1.39
0.62
0.05
-0.21
-0.18
0.03
0.26
0.35
0.23
-0.09
-0.57
-1.12
-1.74
-2.40
-3.12
-3.88
-4.64
-5.39
-6.11
-6.86
-7.72
-8.74
-9.91
-11.07
-11.98
-12.33
-11.85
-10.43
-8.17
-5.36
-2.38
0.44
2.86
4.80
6.27
7.30
7.86
7.92
7.46
6.60
5.54
4.50
3.67
3.09
2.71
2.45
2.27
2.15
2.11
2.07
1.90
1.48
0.73
-0.31
-1.50
-2.68
-3.78
-4.88
-6.10
-7.59
-9.39
-11.42
-13.49
-15.41
-17.00
-18.13
-18.70
-18.62
-17.71
-15.81
-12.80
-8.75
-3.92
1.19
6.03
10.15
13.32
15.57
17.09
18.10
18.70
18.85
18.48
17.59
16.32
14.94
13.70
12.76
12.11
11.59
11.04
10.34
9.50
8.60
7.71
6.87
6.02
5.06
3.91
2.52
0.98
-0.57
-2.02
-3.32
-4.51
-5.72
-7.02
-8.35
-9.49
-10.18
-10.16
-9.34
-7.77
-5.67
-3.31
-0.94
1.21
2.93
4.10
4.67
4.70
4.36
3.83
3.27
2.76
2.31
1.90
1.55
1.32
1.29
1.48
1.89
2.40
2.90
3.25
3.37
3.20
2.75
2.06
1.19
0.21
-0.85
-1.94
-3.01
-3.99
-4.81
-5.42
-5.86
-6.26
-6.77
-7.47
-8.25
-8.84
-8.87
-8.09
-6.42
-4.05
-1.30
1.45
3.91
5.92
7.42
8.43
8.98
9.09
8.78
8.12
7.21
6.19
5.25
4.53
4.09
3.91
3.91
3.97
4.06
4.20
4.44
4.77
5.02
5.01
4.55
3.63
2.35
0.97
-0.28
-1.30
-2.14
-2.95
-3.92
-5.16
-6.70
-8.44
-10.19
-11.71
-12.73
-13.01
-12.40
-10.88
-8.61
-5.85
-2.94
-0.19
2.15
3.91
5.04
5.58
5.61
5.27
4.65
3.88
3.05
2.27
1.63
1.23
1.10
1.21
1.48
1.78
1.99
2.02
1.84
1.48
0.98
0.42
-0.19
-0.86
-1.63
-2.54
-3.58
-4.67
-5.62
-6.28
-6.59
-6.64
-6.68
-7.00
-7.81
-9.08
-10.55
-11.75
-12.23
-11.69
-10.08
-7.60
-4.63
-1.57
1.24
3.62
5.46
6.70
7.28
7.19
6.51
5.48
4.41
3.61
3.25
3.29
3.57
3.88
4.11
4.30
4.54
4.92
5.36
5.66
5.61
5.14
4.36
3.56
3.00
2.81
2.85
2.79
2.36
1.45
0.19
-1.09
-2.11
-2.76
-3.22
-3.80
-4.77
-6.14
-7.63
-8.70
-8.88
-7.92
-6.00
-3.55
-1.12
0.93
2.50
3.73
4.83
5.89
6.77
7.22
7.04
6.22
5.01
3.80
2.95
2.65
2.88
3.45
4.16
4.81
5.32
5.63
5.73
5.57
5.16
4.51
3.67
2.73
1.77
0.88
0.10
-0.56
-1.12
-1.65
-2.23
-2.94
-3.82
-4.86
-5.98
-7.08
-8.04
-8.75
-9.09
-8.98
-8.35
-7.24
-5.70
-3.88
-1.89
0.14
2.12
3.96
5.51
6.60
7.04
6.77
5.85
4.48
2.96
1.58
0.54
-0.07
-0.29
-0.17
0.20
0.72
1.27
1.71
1.89
1.74
1.26
0.57
-0.16
-0.81
-1.33
-1.80
-2.31
-2.95
-3.71
-4.49
-5.21
-5.85
-6.48
-7.20
-8.12
-9.22
-10.35
-11.25
-11.62
-11.26
-10.11
-8.31
-6.11
-3.84
-1.76
-0.05
1.24
2.12
2.56
2.54
2.00
0.97
-0.40
-1.80
-2.83
-3.19
-2.72
-1.49
0.32
2.48
4.82
7.25
9.73
12.17
14.42
16.25
17.44
17.83
17.41
16.30
14.70
12.87
11.00
9.23
7.59
6.03
4.46
2.79
0.96
-1.05
-3.22
-5.46
-7.61
-9.47
-10.82
-11.43
-11.18
-10.12
-8.50
-6.72
-5.22
-4.30
-4.04
-4.26
-4.65
-4.87
-4.78
-4.43
-3.96
-3.51
-3.10
-2.58
-1.82
-0.77
0.50
1.79
2.90
3.69
4.15
4.37
4.46
4.52
4.57
4.54
4.37
3.96
3.31
2.50
1.67
0.96
0.44
-0.01
-0.61
-1.61
-3.11
-4.99
-6.93
-8.54
-9.50
-9.71
-9.21
-8.16
-6.70
-4.97
-3.09
-1.22
0.43
1.69
2.44
2.71
2.59
2.22
1.72
1.19
0.70
0.33
0.14
0.15
0.34
0.66
1.11
1.69
2.35
3.02
3.51
3.65
3.33
2.64
1.76
0.90
0.20
-0.38
-0.90
-1.46
-2.01
-2.46
-2.73
-2.85
-2.94
-3.19
-3.72
-4.50
-5.36
-6.06
-6.40
-6.23
-5.52
-4.31
-2.68
-0.78
1.25
3.24
5.05
6.53
7.56
8.05
7.99
7.45
6.60
5.65
4.78
4.11
3.64
3.30
3.02
2.81
2.70
2.74
2.90
3.07
3.12
2.94
2.59
2.17
1.81
1.48
1.02
0.25
-0.90
-2.27
-3.53
-4.37
-4.66
-4.57
-4.46
-4.68
-5.34
-6.28
-7.14
-7.58
-7.43
-6.78
-5.80
-4.69
-3.47
-2.05
-0.27
1.87
4.15
6.15
7.34
7.41
6.39
4.65
2.81
1.40
0.70
0.63
0.86
1.08
1.15
1.14
1.22
1.50
1.96
2.37
2.52
2.25
1.58
0.63
-0.46
-1.54
-2.51
-3.28
-3.78
-3.99
-3.97
-3.91
-4.02
-4.48
-5.28
-6.27
-7.21
-7.89
-8.15
-7.99
-7.42
-6.47
-5.15
-3.49
-1.57
0.48
2.46
4.16
5.47
6.31
6.68
6.61
6.19
5.51
4.68
3.82
3.07
2.51
2.19
2.17
2.42
2.88
3.44
3.91
4.13
3.99
3.47
2.69
1.80
0.94
0.16
-0.60
-1.44
-2.39
-3.40
-4.35
-5.13
-5.68
-6.10
-6.54
-7.15
-7.96
-8.86
-9.62
-9.97
-9.72
-8.78
-7.24
-5.29
-3.18
-1.14
0.72
2.39
3.88
5.16
6.12
6.55
6.31
5.43
4.14
2.86
1.98
1.71
1.97
2.52
3.07
3.47
3.72
3.92
4.10
4.21
4.06
3.52
2.58
1.40
0.24
-0.70
-1.34
-1.79
-2.22
-2.75
-3.44
-4.19
-4.84
-5.30
-5.58
-5.82
-6.20
-6.84
-7.70
-8.53
-9.01
-8.88
-8.03
-6.53
-4.60
-2.46
-0.28
1.83
3.76
5.39
6.57
7.15
7.17
6.77
6.21
5.66
5.17
4.60
3.87
3.01
2.25
1.94
2.29
3.26
4.46
5.39
5.70
5.35
4.62
3.91
3.49
3.40
3.39
3.14
2.44
1.30
-0.07
-1.33
-2.19
-2.50
-2.42
-2.23
-2.29
-2.80
-3.77
-4.95
-5.99
-6.60
-6.71
-6.43
-5.93
-5.29
-4.39
-3.03
-1.06
1.46
4.20
6.72
8.65
9.90
10.63
11.12
11.58
12.00
12.12
11.71
10.68
9.28
7.92
7.00
6.70
6.83
6.95
6.61
5.58
3.93
2.01
0.22
-1.16
-2.04
-2.55
-2.92
-3.32
-3.87
-4.58
-5.46
-6.43
-7.42
-8.34
-9.11
-9.72
-10.22
-10.72
-11.33
-12.02
-12.62
-12.88
-12.57
-11.56
-9.91
-7.79
-5.44
-3.02
-0.66
1.57
3.57
5.19
6.26
6.59
6.15
5.08
3.69
2.36
1.40
0.94
0.91
1.13
1.43
1.77
2.20
2.82
3.59
4.33
4.79
4.76
4.23
3.32
2.31
1.37
0.58
-0.14
-0.90
-1.78
-2.71
-3.56
-4.19
-4.56
-4.82
-5.14
-5.70
-6.49
-7.34
-7.93
-7.95
-7.23
-5.81
-3.91
-1.86
0.07
1.66
2.84
3.60
3.99
4.02
3.72
3.06
2.07
0.86
-0.37
-1.39
-1.99
-2.10
-1.82
-1.37
-0.97
-0.82
-0.98
-1.36
-1.86
-2.35
-2.81
-3.28
-3.86
-4.63
-5.67
-6.94
-8.37
-9.84
-11.23
-12.43
-13.40
-14.12
-14.62
-14.99
-15.33
-15.72
-16.23
-16.87
-17.59
-18.28
-18.80
-18.93
-18.49
-17.26
-15.15
-12.25
-8.79
-5.13
-1.59
1.64
4.55
7.27
9.91
12.50
14.90
16.94
18.52
19.69
20.61
21.50
22.45
23.42
24.24
24.71
24.69
24.23
23.42
22.42
21.35
20.19
18.86
17.25
15.27
13.00
10.59
8.23
6.09
4.17
2.38
0.56
-1.35
-3.31
-5.16
-6.74
-8.03
-9.10
-10.08
-11.00
-11.71
-11.90
-11.29
-9.76
-7.47
-4.81
-2.25
-0.17
1.28
2.12
2.46
2.40
2.04
1.44
0.73
0.10
-0.25
-0.15
0.41
1.29
2.25
3.01
3.37
3.32
2.97
2.51
2.08
1.73
1.36
0.84
0.09
-0.88
-1.95
-2.92
-3.66
-4.08
-4.25
-4.28
-4.32
-4.53
-4.97
-5.62
-6.34
-6.93
-7.14
-6.78
-5.77
-4.16
-2.12
0.19
2.58
4.90
7.04
8.85
10.18
10.88
10.86
10.14
8.88
7.31
5.73
4.33
3.24
2.48
1.99
1.69
1.52
1.41
1.32
1.18
0.95
0.58
0.06
-0.64
-1.53
-2.60
-3.79
-5.01
-6.10
-6.93
-7.44
-7.69
-7.80
-7.97
-8.33
-8.94
-9.79
-10.76
-11.64
-12.13
-11.97
-10.97
-9.10
-6.60
-3.80
-1.06
1.35
3.29
4.71
5.63
6.07
6.06
5.70
5.17
4.65
4.26
3.99
3.78
3.57
3.40
3.40
3.71
4.35
5.17
5.81
5.97
5.51
4.55
3.39
2.34
1.57
0.96
0.30
-0.61
-1.75
-2.91
-3.79
-4.21
-4.21
-4.07
-4.12
-4.59
-5.45
-6.45
-7.21
-7.36
-6.70
-5.26
-3.25
-1.05
0.99
2.65
3.85
4.68
5.32
5.85
6.27
6.51
6.50
6.26
5.96
5.77
5.86
6.25
6.84
7.42
7.83
7.96
7.86
7.66
7.46
7.28
7.05
6.64
5.93
4.88
3.61
2.27
1.04
0.02
-0.78
-1.44
-2.06
-2.75
-3.58
-4.58
-5.73
-6.93
-7.97
-8.62
-8.68
-8.05
-6.72
-4.83
-2.56
-0.15
2.18
4.20
5.71
6.58
6.73
6.20
5.14
3.79
2.43
1.36
0.74
0.63
0.97
1.62
2.43
3.33
4.24
5.10
5.83
6.28
6.31
5.86
4.97
3.79
2.50
1.23
0.06
-1.02
-2.05
-3.07
-4.08
-5.06
-5.97
-6.79
-7.48
-7.95
-8.11
-7.84
-7.06
-5.78
-4.11
-2.22
-0.34
1.36
2.73
3.67
4.13
4.08
3.56
2.65
1.50
0.35
-0.57
-1.09
-1.15
-0.79
-0.16
0.54
1.12
1.45
1.48
1.27
0.95
0.64
0.39
0.11
-0.35
-1.16
-2.35
-3.79
-5.19
-6.24
-6.76
-6.80
-6.65
-6.66
-7.13
-8.14
-9.46
-10.74
-11.59
-11.73
-11.08
-9.73
-7.83
-5.52
-2.94
-0.30
2.18
4.24
5.70
6.56
7.00
7.26
7.54
7.83
7.96
7.78
7.31
6.78
6.57
6.92
7.83
8.93
9.72
9.83
9.18
8.02
6.77
5.75
5.06
4.50
3.78
2.72
1.38
0.01
-1.04
-1.55
-1.54
-1.34
-1.37
-1.96
-3.18
-4.74
-6.21
-7.13
-7.32
-6.88
-6.15
-5.41
-4.73
-3.92
-2.68
-0.82
1.56
4.07
6.19
7.54
8.04
7.89
7.43
6.90
6.48
6.14
5.88
5.71
5.68
5.82
6.09
6.38
6.60
6.71
6.76
6.81
6.86
6.85
6.64
6.14
5.34
4.34
3.27
2.20
1.14
0.03
-1.19
-2.53
-3.88
-5.11
-6.12
-6.93
-7.64
-8.39
-9.24
-10.10
-10.73
-10.82
-10.14
-8.65
-6.50
-4.01
-1.51
0.73
2.61
4.12
5.29
6.15
6.61
6.59
6.00
4.93
3.59
2.26
1.21
0.55
0.20
-0.01
-0.27
-0.65
-1.10
-1.48
-1.67
-1.67
-1.62
-1.68
-1.99
-2.53
-3.18
-3.76
-4.15
-4.36
-4.48
-4.64
-4.89
-5.22
-5.58
-5.93
-6.35
-6.93
-7.75
-8.74
-9.76
-10.56
-10.85
-10.43
-9.19
-7.18
-4.60
-1.76
0.94
3.20
4.86
5.91
6.49
6.75
6.80
6.69
6.36
5.82
5.13
4.49
4.11
4.17
4.75
5.72
6.85
7.90
8.66
9.08
9.19
9.04
8.62
7.85
6.63
4.96
3.00
1.00
-0.75
-2.10
-3.05
-3.74
-4.38
-5.15
-6.14
-7.32
-8.54
-9.66
-10.60
-11.33
-11.93
-12.45
-12.82
-12.85
-12.29
-10.97
-8.94
-6.44
-3.83
-1.44
0.57
2.22
3.59
4.71
5.50
5.83
5.58
4.82
3.79
2.85
2.30
2.26
2.60
3.08
3.44
3.58
3.62
3.75
4.13
4.71
5.31
5.65
5.56
5.02
4.19
3.28
2.43
1.68
1.01
0.37
-0.26
-0.86
-1.35
-1.77
-2.16
-2.63
-3.32
-4.30
-5.51
-6.79
-7.90
-8.59
-8.71
-8.26
-7.34
-6.14
-4.84
-3.54
-2.28
-1.03
0.26
1.61
3.03
4.49
5.94
7.37
8.77
10.13
11.35
12.33
12.89
12.93
12.50
11.74
10.94
10.24
9.70
9.15
8.40
7.33
5.98
4.54
3.27
2.28
1.55
0.91
0.15
-0.85
-2.05
-3.31
-4.43
-5.26
-5.77
-6.08
-6.40
-6.91
-7.75
-8.87
-10.14
-11.33
-12.22
-12.64
-12.50
-11.72
-10.30
-8.27
-5.81
-3.17
-0.68
1.41
2.97
4.00
4.64
5.00
5.13
5.02
4.68
4.16
3.61
3.22
3.12
3.34
3.78
4.29
4.70
4.93
4.97
4.85
4.63
4.30
3.81
3.08
2.09
0.88
-0.39
-1.55
-2.43
-2.99
-3.33
-3.64
-4.10
-4.74
-5.43
-5.96
-6.18
-6.15
-6.15
-6.51
-7.43
-8.82
-10.27
-11.22
-11.21
-10.07
-7.96
-5.30
-2.49
0.18
2.61
4.79
6.73
8.30
9.32
9.61
9.11
7.99
6.58
5.26
4.30
3.83
3.76
3.92
4.13
4.27
4.33
4.33
4.30
4.23
4.05
3.67
3.01
2.09
0.96
-0.25
-1.40
-2.37
-3.12
-3.67
-4.11
-4.50
-4.91
-5.33
-5.73
-6.08
-6.41
-6.81
-7.36
-8.07
-8.84
-9.47
-9.74
-9.48
-8.59
-7.08
-5.04
-2.62
-0.04
2.45
4.54
5.99
6.73
6.85
6.56
6.12
5.67
5.24
4.77
4.25
3.76
3.42
3.40
3.74
4.29
4.79
4.96
4.64
3.87
2.87
1.90
1.12
0.55
0.06
-0.52
-1.23
-1.99
-2.67
-3.12
-3.35
-3.46
-3.61
-3.92
-4.36
-4.81
-5.17
-5.41
-5.63
-5.94
-6.43
-7.03
-7.50
-7.54
-6.92
-5.57
-3.65
-1.48
0.64
2.47
3.92
4.99
5.68
5.93
5.68
4.89
3.66
2.24
0.96
0.09
-0.29
-0.23
0.05
0.32
0.44
0.43
0.38
0.43
0.61
0.84
0.93
0.74
0.23
-0.53
-1.35
-2.09
-2.72
-3.26
-3.79
-4.33
-4.83
-5.22
-5.42
-5.50
-5.58
-5.77
-6.09
-6.40
-6.46
-5.99
-4.82
-2.98
-0.68
1.78
4.11
6.10
7.68
8.87
9.72
10.18
10.18
9.65
8.61
7.19
5.66
4.30
3.37
2.92
2.82
2.85
2.79
2.53
2.15
1.80
1.63
1.60
1.50
1.05
0.09
-1.28
-2.73
-3.84
-4.38
-4.45
-4.40
-4.65
-5.41
-6.62
-7.97
-9.11
-9.80
-10.09
-10.12
-10.01
-9.73
-9.05
-7.71
-5.62
-2.92
-0.08
2.33
3.90
4.51
4.35
3.82
3.26
2.88
2.62
2.31
1.84
1.26
0.78
0.63
0.94
1.69
2.66
3.59
4.24
4.48
4.29
3.72
2.90
2.00
1.15
0.45
-0.10
-0.55
-1.01
-1.49
-1.96
-2.33
-2.57
-2.72
-2.94
-3.41
-4.18
-5.17
-6.09
-6.59
-6.37
-5.29
-3.41
-1.02
1.49
3.70
5.36
6.37
6.85
6.99
6.94
6.71
6.23
5.42
4.28
2.97
1.75
0.80
0.19
-0.14
-0.30
-0.38
-0.32
-0.03
0.54
1.30
2.04
2.49
2.48
1.95
1.02
-0.08
-1.14
-1.97
-2.54
-2.90
-3.18
-3.55
-4.14
-4.98
-5.99
-7.03
-7.91
-8.46
-8.55
-8.14
-7.23
-5.86
-4.13
-2.17
-0.14
1.79
3.45
4.69
5.39
5.47
4.94
3.94
2.67
1.41
0.39
-0.25
-0.49
-0.40
-0.07
0.42
1.03
1.73
2.44
3.07
3.51
3.68
3.57
3.28
2.90
2.52
2.14
1.72
1.17
0.44
-0.48
-1.54
-2.68
-3.87
-5.01
-6.01
-6.68
-6.83
-6.33
-5.17
-3.46
-1.43
0.67
2.67
4.48
6.07
7.42
8.47
9.08
9.09
8.43
7.17
5.55
3.88
2.50
1.61
1.25
1.27
1.51
1.76
1.93
1.95
1.81
1.48
0.92
0.08
-1.03
-2.32
-3.65
-4.87
-5.84
-6.54
-7.04
-7.47
-7.97
-8.68
-9.60
-10.65
-11.64
-12.32
-12.47
-11.92
-10.65
-8.76
-6.46
-3.98
-1.53
0.72
2.67
4.21
5.28
5.84
5.90
5.60
5.12
4.66
4.35
4.19
4.13
4.09
4.04
4.02
4.06
4.17
4.28
4.29
4.11
3.70
3.06
2.26
1.34
0.33
-0.69
-1.64
-2.44
-3.02
-3.43
-3.80
-4.28
-4.97
-5.86
-6.88
-7.84
-8.59
-8.96
-8.82
-8.06
-6.64
-4.64
-2.24
0.31
2.75
4.87
6.58
7.81
8.56
8.82
8.60
7.96
7.05
6.12
5.42
5.13
5.29
5.79
6.41
6.92
7.16
7.11
6.84
6.47
6.10
5.76
5.38
4.83
4.01
2.91
1.61
0.26
-0.95
-1.91
-2.61
-3.13
-3.63
-4.27
-5.19
-6.40
-7.82
-9.25
-10.40
-10.97
-10.78
-9.76
-8.01
-5.76
-3.29
-0.86
1.40
3.42
5.16
6.58
7.54
7.88
7.48
6.41
4.90
3.36
2.24
1.85
2.19
3.01
3.90
4.56
4.89
5.07
5.32
5.73
6.14
6.21
5.62
4.34
2.63
0.96
-0.22
-0.75
-0.83
-0.87
-1.27
-2.20
-3.58
-5.14
-6.61
-7.83
-8.79
-9.55
-10.11
-10.34
-10.05
-9.07
-7.36
-5.05
-2.46
0.04
2.18
3.79
4.88
5.50
5.77
5.75
5.48
5.03
4.46
3.92
3.52
3.34
3.38
3.56
3.79
3.97
4.07
4.12
4.16
4.19
4.16
3.98
3.58
2.99
2.28
1.56
0.90
0.28
-0.36
-1.07
-1.82
-2.55
-3.14
-3.60
-4.02
-4.54
-5.33
-6.39
-7.58
-8.62
-9.20
-9.05
-8.08
-6.36
-4.14
-1.70
0.69
2.86
4.74
6.31
7.54
8.33
8.58
8.31
7.65
6.87
6.24
5.95
5.95
6.09
6.14
6.02
5.76
5.54
5.46
5.51
5.50
5.22
4.55
3.57
2.50
1.58
0.95
0.50
0.04
-0.64
-1.56
-2.58
-3.47
-4.06
-4.33
-4.44
-4.65
-5.16
-6.04
-7.17
-8.33
-9.25
-9.71
-9.61
-8.96
-7.81
-6.23
-4.29
-2.08
0.25
2.51
4.46
5.91
6.77
7.07
6.94
6.53
5.96
5.32
4.68
4.12
3.73
3.56
3.68
4.05
4.60
5.22
5.75
5.99
5.83
5.24
4.31
3.22
2.16
1.26
0.53
-0.12
-0.77
-1.46
-2.11
-2.70
-3.21
-3.71
-4.35
-5.23
-6.36
-7.59
-8.68
-9.42
-9.66
-9.38
-8.65
-7.54
-6.10
-4.37
-2.40
-0.37
1.49
2.91
3.75
4.05
4.00
3.80
3.62
3.42
3.10
2.59
1.96
1.47
1.41
1.94
2.97
4.11
4.90
4.98
4.33
3.24
2.17
1.52
1.42
1.61
1.69
1.29
0.33
-0.97
-2.23
-3.14
-3.61
-3.85
-4.16
-4.77
-5.68
-6.70
-7.56
-8.11
-8.39
-8.57
-8.84
-9.20
-9.44
-9.26
-8.36
-6.67
-4.27
-1.49
1.34
3.86
5.85
7.19
7.86
7.98
7.69
7.17
6.58
6.00
5.53
5.21
5.09
5.19
5.48
5.84
6.16
6.32
6.29
6.13
5.89
5.63
5.28
4.81
4.18
3.44
2.70
2.03
1.42
0.76
-0.04
-1.01
-2.01
-2.88
-3.49
-3.87
-4.22
-4.79
-5.73
-7.00
-8.38
-9.58
-10.38
-10.73
-10.68
-10.30
-9.55
-8.30
-6.41
-3.92
-1.08
1.67
3.87
5.24
5.78
5.72
5.37
4.95
4.57
4.19
3.75
3.28
2.88
2.68
2.72
2.96
3.22
3.38
3.36
3.21
3.08
3.10
3.29
3.51
3.54
3.15
2.22
0.85
-0.73
-2.18
-3.23
-3.75
-3.85
-3.74
-3.74
-4.08
-4.88
-6.11
-7.62
-9.22
-10.68
-11.82
-12.41
-12.28
-11.28
-9.37
-6.71
-3.63
-0.55
2.12
4.15
5.47
6.21
6.52
6.50
6.15
5.47
4.52
3.53
2.83
2.68
3.21
4.24
5.43
6.40
6.93
6.98
6.71
6.31
5.87
5.39
4.83
4.12
3.33
2.53
1.81
1.19
0.60
-0.07
-0.90
-1.91
-3.00
-4.05
-4.93
-5.62
-6.17
-6.72
-7.36
-8.17
-9.06
-9.91
-10.52
-10.69
-10.25
-9.11
-7.28
-4.91
-2.23
0.46
2.84
4.69
5.91
6.50
6.56
6.22
5.65
5.01
4.44
4.04
3.89
3.99
4.32
4.79
5.32
5.80
6.13
6.29
6.32
6.26
6.17
5.99
5.64
5.02
4.11
3.02
1.94
1.04
0.35
-0.23
-0.84
-1.59
-2.41
-3.13
-3.59
-3.80
-3.96
-4.40
-5.37
-6.90
-8.76
-10.45
-11.48
-11.49
-10.40
-8.42
-5.95
-3.38
-1.01
1.05
2.83
4.35
5.58
6.38
6.59
6.14
5.17
4.01
3.00
2.42
2.30
2.49
2.79
3.05
3.27
3.54
3.97
4.53
5.09
5.44
5.41
4.95
4.10
3.02
1.82
0.57
-0.69
-1.94
-3.12
-4.18
-5.01
-5.59
-5.93
-6.17
-6.47
-6.99
-7.78
-8.71
-9.56
-10.05
-9.99
-9.26
-7.91
-6.05
-3.84
-1.41
1.08
3.37
5.17
6.22
6.37
5.74
4.64
3.48
2.59
2.09
1.90
1.86
1.87
1.93
2.16
2.65
3.34
4.00
4.39
4.31
3.78
2.97
2.12
1.36
0.68
-0.06
-1.04
-2.27
-3.62
-4.86
-5.75
-6.21
-6.30
-6.23
-6.24
-6.46
-6.96
-7.70
-8.63
-9.65
-10.61
-11.33
-11.54
-11.01
-9.60
-7.36
-4.52
-1.44
1.57
4.22
6.36
7.94
8.99
9.53
9.66
9.47
9.13
8.77
8.48
8.32
8.26
8.25
8.25
8.22
8.15
8.05
7.90
7.69
7.37
6.90
6.27
5.50
4.63
3.74
2.88
2.07
1.27
0.42
-0.53
-1.60
-2.72
-3.73
-4.50
-4.97
-5.23
-5.51
-6.05
-7.03
-8.43
-10.01
-11.40
-12.22
-12.25
-11.42
-9.86
-7.76
-5.31
-2.68
-0.02
2.53
4.76
6.46
7.49
7.76
7.36
6.50
5.45
4.45
3.70
3.24
3.04
3.03
3.14
3.34
3.62
3.95
4.26
4.46
4.40
4.01
3.30
2.37
1.35
0.39
-0.45
-1.21
-1.93
-2.65
-3.35
-3.94
-4.36
-4.62
-4.83
-5.22
-5.94
-7.04
-8.33
-9.48
-10.14
-10.01
-9.02
-7.26
-4.89
-2.14
0.78
3.63
6.18
8.18
9.42
9.84
9.52
8.70
7.66
6.64
5.78
5.11
4.58
4.17
3.85
3.64
3.54
3.56
3.64
3.68
3.55
3.13
2.33
1.13
-0.36
-2.01
-3.65
-5.14
-6.40
-7.42
-8.17
-8.65
-8.83
-8.77
-8.63
-8.61
-8.88
-9.51
-10.40
-11.33
-12.03
-12.33
-12.12
-11.39
-10.13
-8.35
-6.07
-3.41
-0.62
1.92
3.87
5.04
5.46
5.37
5.05
4.76
4.57
4.38
4.07
3.60
3.07
2.72
2.78
3.31
4.16
4.91
5.18
4.75
3.71
2.44
1.37
0.80
0.71
0.78
0.62
-0.04
-1.16
-2.43
-3.43
-3.86
-3.66
-3.05
-2.42
-2.11
-2.33
-3.10
-4.25
-5.56
-6.72
-7.52
-7.79
-7.42
-6.40
-4.77
-2.63
-0.16
2.48
5.03
7.27
8.98
9.97
10.21
9.78
8.89
7.82
6.82
6.08
5.67
5.57
5.70
5.98
6.35
6.74
7.09
7.32
7.35
7.13
6.65
5.95
5.09
4.16
3.20
2.27
1.40
0.62
-0.02
-0.55
-0.98
-1.35
-1.70
-2.09
-2.55
-3.14
-3.87
-4.77
-5.83
-6.95
-7.96
-8.60
-8.64
-7.91
-6.42
-4.35
-1.96
0.42
2.59
4.37
5.70
6.53
6.81
6.53
5.73
4.54
3.20
1.99
1.12
0.68
0.61
0.71
0.80
0.78
0.67
0.60
0.67
0.91
1.22
1.42
1.36
1.04
0.60
0.19
-0.13
-0.42
-0.88
-1.62
-2.63
-3.68
-4.51
-4.94
-5.00
-4.93
-5.03
-5.46
-6.21
-7.04
-7.63
-7.69
-7.11
-5.90
-4.24
-2.33
-0.39
1.48
3.17
4.65
5.84
6.60
6.77
6.24
5.09
3.59
2.12
1.04
0.52
0.48
0.71
0.97
1.15
1.26
1.37
1.51
1.58
1.46
1.01
0.23
-0.76
-1.77
-2.64
-3.33
-3.92
-4.55
-5.31
-6.22
-7.17
-8.03
-8.74
-9.32
-9.90
-10.60
-11.50
-12.54
-13.54
-14.28
-14.55
-14.18
-13.08
-11.24
-8.79
-5.95
-3.03
-0.28
2.08
3.94
5.28
6.09
6.42
6.31
5.85
5.21
4.61
4.27
4.33
4.78
5.52
6.33
7.03
7.51
7.77
7.85
7.82
7.71
7.47
7.02
6.34
5.47
4.58
3.81
3.29
2.97
2.71
2.33
1.68
0.81
-0.14
-0.98
-1.59
-2.05
-2.52
-3.21
-4.20
-5.36
-6.40
-7.00
-6.94
-6.17
-4.76
-2.86
-0.58
1.98
4.67
7.26
9.44
10.88
11.42
11.08
10.13
8.94
7.84
6.99
6.38
5.88
5.46
5.15
5.09
5.38
6.00
6.74
7.29
7.41
7.02
6.22
5.24
4.30
3.50
2.83
2.22
1.61
1.01
0.47
-0.02
-0.52
-1.16
-2.04
-3.18
-4.46
-5.69
-6.70
-7.43
-7.98
-8.50
-9.03
-9.50
-9.69
-9.35
-8.39
-6.86
-5.02
-3.10
-1.25
0.49
2.18
3.77
5.12
5.99
6.16
5.60
4.50
3.21
2.08
1.35
1.05
1.12
1.40
1.77
2.18
2.60
3.05
3.51
3.95
4.27
4.30
3.91
3.00
1.68
0.15
-1.30
-2.44
-3.21
-3.71
-4.10
-4.54
-5.07
-5.63
-6.15
-6.62
-7.10
-7.71
-8.49
-9.32
-9.95
-10.07
-9.41
-7.89
-5.62
-2.91
-0.17
2.22
4.00
5.04
5.40
5.22
4.70
4.01
3.28
2.58
1.97
1.49
1.19
1.13
1.35
1.83
2.43
2.97
3.24
3.09
2.53
1.66
0.72
-0.09
-0.61
-0.85
-0.93
-1.02
-1.32
-1.94
-2.89
-4.03
-5.18
-6.13
-6.76
-7.06
-7.17
-7.33
-7.73
-8.45
-9.37
-10.28
-10.87
-10.86
-10.09
-8.50
-6.18
-3.31
-0.18
2.84
5.41
7.20
8.08
8.08
7.45
6.51
5.60
4.95
4.65
4.66
4.86
5.16
5.47
5.73
5.92
6.03
6.04
5.96
5.82
5.63
5.44
5.23
4.99
4.67
4.20
3.54
2.66
1.63
0.55
-0.46
-1.25
-1.77
-2.03
-2.17
-2.37
-2.78
-3.48
-4.42
-5.45
-6.38
-7.04
-7.31
-7.15
-6.58
-5.61
-4.24
-2.53
-0.55
1.53
3.51
5.19
6.39
7.03
7.12
6.75
6.08
5.31
4.58
4.00
3.64
3.54
3.73
4.19
4.82
5.43
5.80
5.74
5.21
4.32
3.29
2.33
1.55
0.88
0.21
-0.59
-1.52
-2.45
-3.21
-3.70
-3.96
-4.14
-4.44
-4.98
-5.72
-6.44
-6.95
-7.11
-6.93
-6.54
-6.02
-5.31
-4.23
-2.59
-0.41
2.06
4.40
6.21
7.36
8.00
8.40
8.77
9.01
8.85
8.03
6.51
4.62
2.94
1.98
1.95
2.63
3.50
4.04
3.93
3.25
2.30
1.41
0.75
0.19
-0.54
-1.67
-3.23
-4.99
-6.58
-7.72
-8.32
-8.62
-8.96
-9.58
-10.51
-11.51
-12.30
-12.73
-12.88
-12.98
-13.25
-13.67
-13.95
-13.63
-12.35
-10.00
-6.84
-3.39
-0.17
2.47
4.39
5.67
6.38
6.58
6.30
5.57
4.52
3.41
2.52
2.08
2.14
2.59
3.21
3.82
4.25
4.48
4.50
4.32
3.96
3.47
2.94
2.51
2.25
2.14
2.02
1.68
0.97
-0.13
-1.46
-2.76
-3.80
-4.48
-4.90
-5.22
-5.62
-6.21
-6.94
-7.69
-8.28
-8.54
-8.35
-7.61
-6.31
-4.47
-2.22
0.28
2.77
5.06
6.95
8.32
9.15
9.46
9.33
8.87
8.19
7.39
6.57
5.84
5.33
5.15
5.34
5.88
6.62
7.37
7.93
8.15
7.95
7.39
6.57
5.62
4.61
3.59
2.53
1.41
0.24
-0.91
-1.93
-2.69
-3.13
-3.28
-3.31
-3.45
-3.93
-4.85
-6.13
-7.50
-8.64
-9.20
-9.02
-8.10
-6.60
-4.77
-2.78
-0.76
1.25
3.15
4.79
5.94
6.38
6.04
5.03
3.67
2.33
1.32
0.77
0.64
0.75
0.93
1.09
1.22
1.38
1.63
1.95
2.26
2.43
2.33
1.90
1.17
0.20
-0.90
-2.05
-3.17
-4.23
-5.16
-5.87
-6.30
-6.48
-6.54
-6.66
-7.05
-7.79
-8.79
-9.76
-10.32
-10.12
-9.00
-7.03
-4.52
-1.82
0.70
2.86
4.58
5.86
6.69
7.08
7.00
6.50
5.70
4.79
3.99
3.47
3.34
3.59
4.13
4.80
5.43
5.88
6.03
5.85
5.34
4.53
3.41
1.99
0.36
-1.35
-2.90
-4.05
-4.68
-4.81
-4.67
-4.55
-4.73
-5.35
-6.38
-7.69
-9.08
-10.38
-11.44
-12.13
-12.31
-11.85
-10.66
-8.75
-6.26
-3.47
-0.74
1.61
3.38
4.54
5.17
5.37
5.24
4.77
3.95
2.81
1.52
0.35
-0.42
-0.61
-0.29
0.36
1.04
1.55
1.82
1.93
2.00
2.07
2.11
1.99
1.62
0.99
0.20
-0.57
-1.19
-1.64
-2.02
-2.49
-3.22
-4.25
-5.47
-6.68
-7.66
-8.31
-8.66
-8.77
-8.71
-8.39
-7.63
-6.25
-4.18
-1.55
1.26
3.86
5.92
7.30
8.07
8.32
8.17
7.70
7.04
6.32
5.79
5.64
5.92
6.49
7.06
7.40
7.41
7.22
7.11
7.30
7.83
8.46
8.82
8.59
7.68
6.28
4.77
3.49
2.60
1.97
1.33
0.44
-0.73
-1.96
-2.91
-3.38
-3.41
-3.39
-3.76
-4.80
-6.36
-7.94
-8.85
-8.58
-7.01
-4.50
-1.68
0.83
2.72
3.98
4.89
5.67
6.45
7.07
7.29
6.92
5.96
4.64
3.32
2.36
1.95
2.07
2.56
3.16
3.67
3.94
3.90
3.55
3.00
2.39
1.85
1.46
1.14
0.75
0.12
-0.81
-1.94
-3.04
-3.93
-4.51
-4.88
-5.24
-5.77
-6.51
-7.39
-8.24
-8.92
-9.34
-9.47
-9.26
-8.63
-7.47
-5.72
-3.46
-0.90
1.61
3.72
5.19
5.94
6.05
5.66
4.94
4.04
3.09
2.22
1.56
1.19
1.13
1.32
1.64
1.98
2.27
2.50
2.64
2.65
2.46
2.04
1.42
0.70
0.01
-0.59
-1.15
-1.76
-2.53
-3.44
-4.38
-5.17
-5.68
-5.92
-6.05
-6.33
-6.99
-8.05
-9.35
-10.55
-11.30
-11.35
-10.65
-9.29
-7.44
-5.27
-2.89
-0.41
2.02
4.16
5.79
6.74
6.99
6.69
6.09
5.46
4.99
4.77
4.77
4.95
5.22
5.55
5.90
6.22
6.47
6.62
6.68
6.65
6.53
6.32
6.01
5.57
5.02
4.36
3.63
2.83
1.95
1.00
0.06
-0.77
-1.37
-1.69
-1.84
-2.00
-2.36
-3.02
-3.93
-4.97
-5.98
-6.83
-7.39
-7.51
-7.03
-5.80
-3.84
-1.37
1.21
3.48
5.14
6.17
6.73
7.07
7.29
7.37
7.16
6.55
5.59
4.52
3.65
3.29
3.49
4.08
4.77
5.28
5.52
5.53
5.46
5.39
5.24
4.83
4.00
2.76
1.37
0.18
-0.52
-0.71
-0.67
-0.81
-1.46
-2.64
-4.05
-5.23
-5.81
-5.74
-5.38
-5.23
-5.72
-6.92
-8.48
-9.78
-10.25
-9.62
-8.04
-5.95
-3.81
-1.92
-0.32
1.11
2.49
3.82
4.97
5.71
5.90
5.52
4.68
3.61
2.57
1.78
1.37
1.34
1.58
1.90
2.14
2.20
2.12
2.00
1.94
1.96
1.98
1.87
1.53
0.95
0.21
-0.55
-1.24
-1.84
-2.41
-3.02
-3.70
-4.42
-5.07
-5.57
-5.90
-6.16
-6.51
-7.10
-7.99
-9.08
-10.07
-10.57
-10.25
-8.96
-6.85
-4.28
-1.74
0.42
2.02
3.12
3.86
4.39
4.75
4.88
4.76
4.40
3.90
3.39
2.99
2.77
2.73
2.87
3.17
3.60
4.12
4.67
5.16
5.47
5.51
5.20
4.54
3.61
2.57
1.64
0.96
0.55
0.30
0.03
-0.38
-0.97
-1.62
-2.21
-2.64
-2.96
-3.25
-3.66
-4.24
-4.95
-5.67
-6.24
-6.50
-6.35
-5.73
-4.64
-3.16
-1.43
0.39
2.14
3.71
5.06
6.13
6.87
7.21
7.11
6.62
5.82
4.86
3.91
3.11
2.60
2.46
2.75
3.41
4.27
5.10
5.68
5.82
5.51
4.85
4.00
3.12
2.31
1.58
0.93
0.32
-0.28
-0.85
-1.37
-1.83
-2.22
-2.59
-2.99
-3.52
-4.25
-5.23
-6.41
-7.71
-8.92
-9.81
-10.11
-9.67
-8.49
-6.75
-4.73
-2.74
-0.93
0.61
1.86
2.74
3.18
3.05
2.38
1.33
0.21
-0.65
-1.04
-0.89
-0.34
0.42
1.17
1.76
2.14
2.35
2.46
2.51
2.49
2.31
1.88
1.16
0.24
-0.69
-1.43
-1.85
-2.00
-2.00
-1.99
-2.05
-2.16
-2.28
-2.43
-2.70
-3.20
-3.97
-4.94
-5.91
-6.63
-6.92
-6.69
-5.95
-4.83
-3.45
-1.96
-0.50
0.82
1.89
2.65
3.05
3.07
2.72
2.05
1.14
0.13
-0.82
-1.55
-1.92
-1.90
-1.54
-0.98
-0.39
0.03
0.23
0.19
-0.03
-0.40
-0.91
-1.58
-2.38
-3.22
-3.96
-4.49
-4.83
-5.12
-5.58
-6.40
-7.59
-9.02
-10.48
-11.83
-13.04
-14.17
-15.28
-16.34
-17.22
-17.72
-17.69
-17.01
-15.70
-13.82
-11.46
-8.70
-5.60
-2.25
1.23
4.68
7.87
10.57
12.63
13.99
14.77
15.18
15.47
15.77
16.06
16.22
16.08
15.62
14.93
14.15
13.37
12.62
11.82
10.95
10.03
9.18
8.53
8.08
7.72
7.27
6.56
5.60
4.52
3.56
2.86
2.36
1.85
1.03
-0.26
-1.96
-3.75
-5.24
-6.07
-6.12
-5.50
-4.50
-3.35
-2.19
-1.00
0.28
1.65
2.96
3.96
4.39
4.12
3.24
1.99
0.69
-0.39
-1.12
-1.51
-1.62
-1.52
-1.23
-0.75
-0.06
0.80
1.73
2.61
3.30
3.68
3.66
3.20
2.37
1.29
0.12
-0.94
-1.78
-2.33
-2.63
-2.77
-2.86
-3.00
-3.24
-3.58
-3.94
-4.25
-4.38
-4.26
-3.79
-2.91
-1.58
0.16
2.22
4.39
6.40
7.99
8.97
9.31
9.11
8.56
7.84
7.06
6.24
5.36
4.50
3.74
3.20
2.90
2.78
2.72
2.57
2.26
1.85
1.40
1.00
0.65
0.26
-0.32
-1.19
-2.34
-3.61
-4.75
-5.56
-5.93
-6.00
-6.03
-6.35
-7.15
-8.44
-9.96
-11.33
-12.17
-12.26
-11.56
-10.20
-8.39
-6.38
-4.33
-2.39
-0.64
0.85
1.99
2.72
3.01
2.87
2.44
1.89
1.44
1.22
1.22
1.36
1.52
1.62
1.67
1.75
1.91
2.12
2.28
2.28
2.04
1.59
1.02
0.48
0.07
-0.16
-0.21
-0.14
-0.05
-0.01
-0.06
-0.21
-0.43
-0.74
-1.18
-1.84
-2.75
-3.83
-4.83
-5.37
-5.11
-3.90
-1.84
0.73
3.36
5.69
7.53
8.87
9.80
10.37
10.53
10.21
9.38
8.15
6.80
5.62
4.81
4.38
4.20
4.08
3.90
3.68
3.48
3.33
3.16
2.83
2.22
1.35
0.37
-0.52
-1.21
-1.75
-2.35
-3.21
-4.42
-5.86
-7.27
-8.42
-9.19
-9.73
-10.27
-11.01
-11.91
-12.71
-12.99
-12.43
-10.93
-8.78
-6.39
-4.16
-2.29
-0.72
0.75
2.29
3.88
5.25
6.07
6.08
5.31
4.07
2.83
2.00
1.80
2.12
2.63
3.01
3.06
2.84
2.58
2.51
2.75
3.22
3.66
3.78
3.39
2.45
1.10
-0.43
-1.90
-3.15
-4.13
-4.91
-5.58
-6.26
-7.00
-7.81
-8.63
-9.36
-9.90
-10.11
-9.88
-9.12
-7.82
-6.04
-3.92
-1.66
0.54
2.52
4.14
5.35
6.11
6.47
6.47
6.20
5.74
5.18
4.61
4.14
3.88
3.91
4.22
4.73
5.25
5.58
5.55
5.13
4.41
3.58
2.82
2.26
1.88
1.57
1.18
0.62
-0.11
-0.93
-1.70
-2.33
-2.83
-3.30
-3.83
-4.52
-5.35
-6.26
-7.10
-7.69
-7.88
-7.55
-6.69
-5.35
-3.69
-1.84
0.11
2.09
4.04
5.83
7.23
7.99
8.03
7.47
6.68
6.05
5.85
6.09
6.55
6.96
7.16
7.16
7.10
7.16
7.37
7.67
7.94
8.07
8.00
7.70
7.14
6.26
5.08
3.68
2.23
0.95
-0.04
-0.73
-1.25
-1.77
-2.44
-3.32
-4.37
-5.51
-6.64
-7.66
-8.48
-8.96
-8.97
-8.41
-7.31
-5.80
-4.12
-2.52
-1.16
-0.07
0.80
1.57
2.28
2.91
3.37
3.55
3.40
2.94
2.34
1.78
1.43
1.37
1.57
1.91
2.28
2.63
2.97
3.31
3.59
3.68
3.44
2.77
1.78
0.66
-0.35
-1.09
-1.56
-1.90
-2.27
-2.78
-3.47
-4.29
-5.20
-6.19
-7.27
-8.38
-9.43
-10.19
-10.43
-9.91
-8.56
-6.48
-3.97
-1.46
0.69
2.26
3.27
3.88
4.31
4.64
4.80
4.63
4.03
3.07
1.99
1.15
0.82
1.07
1.72
2.49
3.08
3.35
3.31
3.10
2.85
2.61
2.35
1.98
1.46
0.78
0.01
-0.79
-1.57
-2.35
-3.16
-3.98
-4.75
-5.41
-5.92
-6.31
-6.69
-7.20
-7.86
-8.58
-9.14
-9.27
-8.71
-7.36
-5.31
-2.82
-0.27
1.99
3.74
4.91
5.58
5.90
5.93
5.66
5.09
4.25
3.33
2.65
2.45
2.88
3.80
4.90
5.81
6.31
6.35
6.10
5.74
5.40
5.08
4.68
4.14
3.45
2.70
1.96
1.26
0.48
-0.44
-1.51
-2.60
-3.49
-4.02
-4.19
-4.20
-4.27
-4.59
-5.14
-5.75
-6.14
-6.09
-5.45
-4.26
-2.62
-0.69
1.33
3.26
4.91
6.17
7.03
7.47
7.52
7.17
6.45
5.48
4.48
3.74
3.48
3.71
4.20
4.62
4.72
4.49
4.16
4.05
4.32
4.83
5.19
5.03
4.19
2.84
1.38
0.21
-0.44
-0.66
-0.74
-0.99
-1.57
-2.45
-3.48
-4.51
-5.39
-6.12
-6.70
-7.14
-7.35
-7.27
-6.78
-5.85
-4.50
-2.85
-1.09
0.55
1.90
2.86
3.39
3.58
3.53
3.32
2.96
2.43
1.71
0.80
-0.19
-1.07
-1.64
-1.77
-1.43
-0.79
-0.10
0.41
0.61
0.52
0.28
0.03
-0.17
-0.38
-0.72
-1.33
-2.19
-3.22
-4.21
-5.00
-5.51
-5.81
-6.02
-6.32
-6.78
-7.39
-8.02
-8.47
-8.59
-8.26
-7.46
-6.23
-4.62
-2.73
-0.70
1.27
2.99
4.29
5.09
5.33
5.04
4.35
3.41
2.45
1.67
1.20
1.02
0.99
0.95
0.82
0.65
0.62
0.91
1.51
2.24
2.80
2.89
2.37
1.33
0.01
-1.28
-2.32
-3.03
-3.52
-3.95
-4.48
-5.22
-6.14
-7.18
-8.25
-9.22
-9.95
-10.25
-9.91
-8.78
-6.88
-4.42
-1.79
0.62
2.56
3.94
4.87
5.47
5.79
5.85
5.59
5.04
4.35
3.69
3.26
3.11
3.18
3.35
3.48
3.52
3.48
3.41
3.32
3.25
3.18
3.10
3.00
2.81
2.47
1.98
1.38
0.79
0.32
-0.01
-0.31
-0.73
-1.46
-2.55
-3.90
-5.22
-6.24
-6.69
-6.47
-5.61
-4.24
-2.53
-0.63
1.32
3.20
4.86
6.13
6.89
7.10
6.86
6.35
5.75
5.15
4.56
3.97
3.40
2.99
2.89
3.13
3.61
4.07
4.21
3.90
3.18
2.33
1.65
1.35
1.45
1.69
1.76
1.37
0.46
-0.80
-2.07
-3.02
-3.54
-3.81
-4.17
-4.95
-6.21
-7.71
-9.00
-9.62
-9.30
-8.10
-6.34
-4.36
-2.44
-0.67
1.01
2.64
4.22
5.55
6.39
6.54
5.94
4.78
3.35
2.01
1.02
0.53
0.51
0.87
1.47
2.13
2.71
3.06
3.14
2.96
2.58
2.08
1.50
0.82
-0.01
-0.99
-2.11
-3.27
-4.37
-5.36
-6.26
-7.13
-8.02
-8.95
-9.84
-10.52
-10.80
-10.49
-9.50
-7.85
-5.66
-3.14
-0.54
1.94
4.08
5.73
6.77
7.09
6.69
5.70
4.36
3.02
2.02
1.55
1.59
1.97
2.44
2.83
3.15
3.49
3.94
4.45
4.82
4.81
4.26
3.25
2.05
0.94
0.12
-0.46
-0.97
-1.64
-2.54
-3.60
-4.64
-5.55
-6.30
-6.99
-7.70
-8.41
-8.96
-9.08
-8.49
-7.12
-5.06
-2.62
-0.16
2.05
3.86
5.28
6.38
7.19
7.71
7.90
7.73
7.28
6.68
6.11
5.73
5.60
5.72
5.99
6.32
6.61
6.82
6.92
6.93
6.83
6.54
5.96
5.03
3.78
2.36
1.01
-0.05
-0.70
-0.98
-1.06
-1.19
-1.60
-2.44
-3.69
-5.23
-6.79
-8.07
-8.75
-8.64
-7.70
-6.05
-3.95
-1.67
0.52
2.46
4.01
5.11
5.73
5.88
5.62
5.10
4.46
3.80
3.18
2.58
2.00
1.47
1.06
0.87
0.94
1.24
1.64
1.97
2.07
1.81
1.19
0.27
-0.81
-1.89
-2.84
-3.55
-4.02
-4.33
-4.61
-5.00
-5.57
-6.33
-7.24
-8.17
-9.00
-9.59
-9.83
-9.60
-8.85
-7.57
-5.81
-3.74
-1.58
0.43
2.07
3.23
3.86
3.99
3.67
2.96
1.95
0.81
-0.24
-0.94
-1.10
-0.69
0.11
0.98
1.62
1.85
1.69
1.31
0.91
0.61
0.38
0.08
-0.42
-1.21
-2.23
-3.33
-4.38
-5.28
-6.03
-6.70
-7.43
-8.34
-9.44
-10.61
-11.60
-12.07
-11.77
-10.58
-8.58
-6.02
-3.20
-0.38
2.21
4.45
6.24
7.55
8.37
8.76
8.80
8.64
8.38
8.13
7.93
7.79
7.69
7.57
7.42
7.25
7.17
7.27
7.57
8.00
8.38
8.52
8.25
7.53
6.40
4.99
3.47
2.01
0.80
-0.04
-0.46
-0.58
-0.67
-1.05
-1.97
-3.46
-5.29
-7.08
-8.38
-8.88
-8.51
-7.33
-5.55
-3.40
-1.07
1.24
3.31
4.88
5.70
5.70
4.97
3.85
2.70
1.82
1.33
1.10
0.94
0.69
0.39
0.22
0.37
0.92
1.76
2.56
2.97
2.77
1.98
0.85
-0.30
-1.23
-1.87
-2.34
-2.84
-3.48
-4.23
-4.99
-5.66
-6.24
-6.81
-7.48
-8.28
-9.05
-9.54
-9.47
-8.66
-7.11
-4.99
-2.60
-0.19
2.00
3.83
5.20
6.01
6.17
5.65
4.55
3.11
1.67
0.57
-0.02
-0.08
0.20
0.60
0.94
1.14
1.25
1.33
1.43
1.51
1.49
1.31
0.96
0.47
-0.11
-0.73
-1.38
-2.08
-2.89
-3.78
-4.70
-5.57
-6.31
-6.96
-7.65
-8.50
-9.53
-10.53
-11.15
-11.01
-9.92
-7.97
-5.50
-2.91
-0.51
1.62
3.53
5.23
6.65
7.59
7.88
7.48
6.54
5.40
4.36
3.68
3.44
3.57
3.97
4.51
5.09
5.63
6.07
6.36
6.44
6.29
5.88
5.19
4.25
3.13
1.95
0.89
0.05
-0.54
-0.94
-1.29
-1.71
-2.29
-3.03
-3.88
-4.80
-5.70
-6.49
-7.03
-7.13
-6.59
-5.32
-3.38
-0.98
1.54
3.84
5.70
7.03
7.90
8.40
8.61
8.55
8.18
7.50
6.59
5.63
4.84
4.42
4.44
4.82
5.36
5.86
6.15
6.19
6.04
5.79
5.53
5.22
4.75
4.03
3.03
1.84
0.59
-0.61
-1.74
-2.87
-4.04
-5.21
-6.24
-6.99
-7.41
-7.65
-7.92
-8.37
-8.94
-9.36
-9.29
-8.47
-6.87
-4.72
-2.40
-0.27
1.45
2.70
3.53
4.01
4.18
3.96
3.31
2.23
0.88
-0.42
-1.30
-1.56
-1.17
-0.44
0.21
0.44
0.11
-0.58
-1.29
-1.68
-1.62
-1.32
-1.19
-1.67
-2.95
-4.90
-7.09
-8.97
-10.18
-10.71
-10.87
-11.10
-11.73
-12.81
-14.14
-15.43
-16.52
-17.40
-18.16
-18.78
-19.06
-18.68
-17.32
-14.87
-11.47
-7.55
-3.62
-0.13
2.72
4.92
6.68
8.27
9.89
11.61
13.32
14.83
15.96
16.65
16.93
16.92
16.75
16.51
16.21
15.85
15.38
14.77
13.99
13.03
11.91
10.65
9.30
7.89
6.42
4.88
3.30
1.73
0.27
-0.99
-2.01
-2.83
-3.53
-4.25
-5.04
-5.86
-6.56
-6.90
-6.64
-5.64
-3.91
-1.61
0.96
3.47
5.64
7.31
8.43
9.01
9.09
8.73
8.00
7.03
6.04
5.27
4.89
4.93
5.27
5.69
5.99
6.07
5.96
5.73
5.46
5.16
4.79
4.32
3.74
3.16
2.64
2.23
1.88
1.46
0.85
-0.02
-1.11
-2.28
-3.38
-4.29
-4.98
-5.56
-6.16
-6.86
-7.67
-8.45
-9.02
-9.15
-8.68
-7.57
-5.86
-3.72
-1.37
0.95
3.00
4.57
5.54
5.82
5.45
4.58
3.43
2.30
1.44
1.02
1.05
1.44
2.00
2.50
2.83
2.90
2.80
2.60
2.44
2.35
2.29
2.15
1.79
1.14
0.25
-0.76
-1.73
-2.55
-3.22
-3.82
-4.42
-5.06
-5.70
-6.28
-6.81
-7.36
-8.03
-8.84
-9.70
-10.38
-10.57
-10.04
-8.71
-6.68
-4.18
-1.55
0.91
2.97
4.50
5.47
5.91
5.89
5.48
4.78
3.91
3.01
2.27
1.88
1.95
2.47
3.27
4.08
4.64
4.80
4.62
4.28
4.01
3.90
3.84
3.62
3.03
2.04
0.83
-0.30
-1.15
-1.67
-2.04
-2.49
-3.17
-4.05
-4.96
-5.73
-6.30
-6.73
-7.17
-7.68
-8.18
-8.46
-8.23
-7.27
-5.55
-3.24
-0.63
1.92
4.10
5.74
6.82
7.39
7.55
7.38
6.94
6.28
5.51
4.77
4.21
3.90
3.86
3.96
4.08
4.13
4.09
4.03
4.01
4.05
4.05
3.89
3.47
2.77
1.89
0.98
0.17
-0.53
-1.15
-1.79
-2.49
-3.24
-3.93
-4.48
-4.89
-5.30
-5.89
-6.77
-7.92
-9.11
-10.05
-10.43
-10.10
-9.06
-7.48
-5.59
-3.62
-1.73
-0.06
1.38
2.56
3.50
4.16
4.46
4.30
3.64
2.57
1.35
0.31
-0.29
-0.34
0.03
0.57
1.07
1.42
1.68
1.88
2.03
2.03
1.79
1.28
0.63
0.04
-0.38
-0.66
-0.98
-1.50
-2.26
-3.12
-3.83
-4.22
-4.32
-4.38
-4.72
-5.55
-6.82
-8.21
-9.30
-9.71
-9.24
-7.96
-6.07
-3.86
-1.55
0.70
2.81
4.71
6.31
7.51
8.21
8.37
8.05
7.37
6.57
5.86
5.47
5.45
5.77
6.23
6.59
6.68
6.47
6.09
5.74
5.55
5.54
5.60
5.56
5.28
4.70
3.87
2.85
1.71
0.52
-0.66
-1.70
-2.49
-2.96
-3.19
-3.34
-3.62
-4.20
-5.11
-6.25
-7.41
-8.32
-8.78
-8.62
-7.78
-6.28
-4.25
-1.90
0.48
2.57
4.10
4.95
5.14
4.82
4.17
3.35
2.48
1.65
0.90
0.32
-0.03
-0.08
0.15
0.56
0.99
1.30
1.38
1.21
0.91
0.58
0.32
0.10
-0.19
-0.71
-1.51
-2.54
-3.58
-4.41
-4.96
-5.30
-5.65
-6.22
-7.05
-8.01
-8.83
-9.31
-9.39
-9.12
-8.66
-8.03
-7.17
-5.91
-4.13
-1.93
0.43
2.56
4.18
5.14
5.50
5.44
5.11
4.63
4.02
3.31
2.61
2.03
1.73
1.75
2.08
2.59
3.12
3.54
3.76
3.75
3.49
3.05
2.48
1.86
1.19
0.47
-0.37
-1.34
-2.34
-3.20
-3.71
-3.82
-3.64
-3.48
-3.70
-4.51
-5.84
-7.34
-8.61
-9.29
-9.22
-8.51
-7.30
-5.76
-3.93
-1.82
0.49
2.76
4.62
5.73
5.95
5.42
4.55
3.79
3.39
3.35
3.46
3.48
3.36
3.21
3.26
3.63
4.26
4.93
5.36
5.40
5.11
4.67
4.29
4.03
3.76
3.24
2.30
0.96
-0.57
-1.90
-2.75
-3.03
-2.94
-2.86
-3.11
-3.79
-4.78
-5.77
-6.54
-7.01
-7.29
-7.48
-7.55
-7.26
-6.28
-4.42
-1.76
1.33
4.25
6.47
7.71
8.02
7.70
7.11
6.55
6.13
5.83
5.58
5.36
5.23
5.32
5.68
6.24
6.83
7.21
7.26
6.95
6.40
5.76
5.12
4.52
3.97
3.41
2.82
2.16
1.38
0.44
-0.66
-1.82
-2.84
-3.53
-3.81
-3.80
-3.79
-4.07
-4.81
-5.96
-7.26
-8.35
-8.91
-8.75
-7.88
-6.38
-4.45
-2.31
-0.16
1.79
3.34
4.34
4.73
4.53
3.85
2.87
1.80
0.81
0.03
-0.49
-0.76
-0.82
-0.73
-0.52
-0.23
0.14
0.57
1.04
1.49
1.86
2.02
1.84
1.26
0.32
-0.80
-1.91
-2.86
-3.59
-4.16
-4.64
-5.08
-5.48
-5.82
-6.14
-6.55
-7.14
-7.95
-8.83
-9.51
-9.63
-8.93
-7.40
-5.23
-2.77
-0.34
1.81
3.60
5.03
6.10
6.77
6.97
6.63
5.81
4.69
3.52
2.60
2.15
2.26
2.85
3.75
4.64
5.25
5.45
5.26
4.89
4.55
4.39
4.37
4.35
4.12
3.62
2.92
2.18
1.52
0.98
0.47
-0.11
-0.81
-1.59
-2.35
-2.99
-3.50
-3.96
-4.47
-5.07
-5.70
-6.15
-6.17
-5.58
-4.36
-2.71
-0.93
0.72
2.08
3.18
4.11
4.97
5.72
6.26
6.41
6.07
5.28
4.24
3.26
2.60
2.40
2.65
3.22
3.92
4.59
5.11
5.43
5.51
5.29
4.72
3.83
2.75
1.67
0.80
0.23
-0.14
-0.49
-1.02
-1.77
-2.68
-3.56
-4.25
-4.74
-5.12
-5.58
-6.26
-7.15
-8.13
-8.96
-9.39
-9.22
-8.38
-6.91
-4.98
-2.84
-0.79
0.96
2.24
3.00
3.24
3.00
2.35
1.38
0.22
-0.92
-1.80
-2.23
-2.10
-1.46
-0.52
0.44
1.20
1.64
1.76
1.69
1.55
1.39
1.18
0.83
0.30
-0.39
-1.13
-1.78
-2.28
-2.66
-3.05
-3.53
-4.18
-4.96
-5.79
-6.56
-7.21
-7.75
-8.24
-8.71
-9.06
-9.05
-8.39
-6.86
-4.50
-1.63
1.25
3.66
5.34
6.29
6.71
6.80
6.66
6.27
5.58
4.64
3.65
2.86
2.51
2.66
3.19
3.87
4.47
4.87
5.06
5.09
5.02
4.88
4.61
4.16
3.49
2.62
1.64
0.68
-0.19
-0.93
-1.56
-2.11
-2.62
-3.06
-3.42
-3.70
-3.99
-4.43
-5.13
-6.07
-7.02
-7.63
-7.55
-6.60
-4.86
-2.69
-0.48
1.43
2.98
4.23
5.31
6.25
6.89
7.06
6.66
5.79
4.73
3.84
3.33
3.27
3.52
3.86
4.10
4.15
4.04
3.86
3.70
3.64
3.63
3.60
3.44
3.08
2.52
1.83
1.11
0.45
-0.13
-0.66
-1.22
-1.90
-2.73
-3.68
-4.67
-5.56
-6.25
-6.70
-6.93
-7.00
-6.95
-6.76
-6.29
-5.41
-4.04
-2.25
-0.21
1.79
3.52
4.77
5.47
5.62
5.31
4.65
3.80
2.89
2.01
1.22
0.54
-0.02
-0.43
-0.61
-0.54
-0.25
0.18
0.55
0.73
0.63
0.25
-0.34
-1.09
-1.95
-2.89
-3.87
-4.83
-5.63
-6.17
-6.43
-6.49
-6.56
-6.85
-7.48
-8.41
-9.46
-10.33
-10.72
-10.43
-9.38
-7.61
-5.35
-2.89
-0.53
1.50
3.06
4.10
4.63
4.68
4.29
3.57
2.69
1.84
1.23
0.97
1.03
1.32
1.69
2.04
2.38
2.75
3.16
3.57
3.88
3.95
3.69
3.08
2.18
1.12
0.07
-0.83
-1.52
-2.01
-2.42
-2.87
-3.47
-4.25
-5.11
-5.94
-6.64
-7.23
-7.75
-8.24
-8.59
-8.59
-8.01
-6.66
-4.64
-2.21
0.22
2.34
4.01
5.25
6.20
6.89
7.27
7.20
6.61
5.61
4.50
3.72
3.60
4.22
5.32
6.49
7.26
7.43
7.09
6.55
6.15
6.07
6.20
6.28
6.05
5.37
4.35
3.16
1.97
0.87
-0.15
-1.12
-1.96
-2.60
-2.97
-3.18
-3.47
-4.10
-5.18
-6.51
-7.68
-8.24
-7.93
-6.81
-5.21
-3.48
-1.88
-0.42
1.03
2.58
4.17
5.53
6.29
6.23
5.41
4.17
2.97
2.20
1.99
2.13
2.30
2.23
1.91
1.57
1.53
1.96
2.80
3.69
4.20
4.06
3.26
2.07
0.83
-0.18
-0.89
-1.40
-1.88
-2.46
-3.14
-3.83
-4.45
-4.97
-5.45
-5.97
-6.58
-7.27
-7.96
-8.53
-8.85
-8.78
-8.18
-6.96
-5.12
-2.82
-0.38
1.80
3.39
4.19
4.27
3.84
3.17
2.45
1.76
1.11
0.55
0.21
0.25
0.77
1.74
2.91
3.92
4.45
4.37
3.79
2.97
2.23
1.76
1.57
1.49
1.28
0.77
-0.08
-1.15
-2.23
-3.14
-3.78
-4.20
-4.54
-4.98
-5.62
-6.46
-7.41
-8.26
-8.82
-8.96
-8.59
-7.67
-6.21
-4.24
-1.90
0.63
3.03
4.98
6.20
6.63
6.37
5.68
4.90
4.28
3.94
3.89
4.05
4.32
4.65
4.98
5.30
5.62
5.92
6.20
6.45
6.65
6.74
6.69
6.46
6.03
5.41
4.63
3.73
2.77
1.77
0.78
-0.19
-1.06
-1.77
-2.30
-2.70
-3.12
-3.72
-4.57
-5.59
-6.54
-7.10
-7.04
-6.26
-4.88
-3.10
-1.13
0.89
2.81
4.53
5.86
6.66
6.79
6.24
5.17
3.84
2.59
1.69
1.30
1.38
1.77
2.26
2.69
3.00
3.22
3.39
3.49
3.41
3.00
2.20
1.09
-0.14
-1.25
-2.13
-2.77
-3.33
-3.95
-4.68
-5.45
-6.14
-6.64
-6.96
-7.20
-7.53
-8.01
-8.57
-9.00
-9.07
-8.61
-7.63
-6.25
-4.64
-2.96
-1.28
0.34
1.84
3.10
3.96
4.30
4.07
3.35
2.30
1.20
0.30
-0.22
-0.26
0.10
0.69
1.30
1.77
2.05
2.14
2.07
1.85
1.42
0.74
-0.18
-1.29
-2.48
-3.66
-4.76
-5.74
-6.63
-7.47
-8.33
-9.34
-10.58
-12.09
-13.78
-15.48
-16.97
-18.07
-18.70
-18.80
-18.35
-17.26
-15.46
-12.92
-9.72
-6.04
-2.10
1.87
5.69
9.22
12.33
14.88
16.76
17.90
18.39
18.40
18.19
17.99
17.96
18.12
18.40
18.64
18.69
18.43
17.83
16.92
15.77
14.47
13.07
11.60
10.09
8.60
7.23
6.06
5.17
4.47
3.83
3.06
2.04
0.78
-0.64
-2.07
-3.39
-4.56
-5.58
-6.44
-7.05
-7.26
-6.98
-6.18
-4.97
-3.52
-1.98
-0.42
1.16
2.74
4.23
5.40
6.02
5.91
5.12
3.92
2.71
1.82
1.40
1.36
1.50
1.68
1.84
2.10
2.53
3.14
3.69
3.91
3.56
2.63
1.36
0.09
-0.89
-1.45
-1.72
-1.94
-2.31
-2.88
-3.55
-4.16
-4.64
-5.05
-5.55
-6.31
-7.34
-8.47
-9.36
-9.67
-9.22
-8.00
-6.23
-4.22
-2.27
-0.54
0.90
2.09
3.02
3.65
3.87
3.61
2.92
1.97
1.00
0.25
-0.18
-0.30
-0.18
0.11
0.55
1.11
1.66
2.01
1.94
1.35
0.37
-0.76
-1.73
-2.41
-2.85
-3.22
-3.72
-4.35
-5.01
-5.51
-5.75
-5.79
-5.85
-6.17
-6.89
-7.94
-9.07
-9.95
-10.28
-9.92
-8.88
-7.32
-5.43
-3.38
-1.27
0.81
2.79
4.54
5.92
6.78
7.09
6.91
6.39
5.74
5.15
4.75
4.60
4.67
4.88
5.16
5.44
5.71
5.94
6.10
6.14
6.00
5.61
4.96
4.13
3.24
2.45
1.84
1.40
1.01
0.55
-0.04
-0.74
-1.44
-2.04
-2.53
-2.97
-3.46
-4.07
-4.78
-5.45
-5.88
-5.89
-5.37
-4.34
-2.95
-1.37
0.21
1.71
3.11
4.38
5.49
6.28
6.61
6.35
5.56
4.49
3.49
2.86
2.74
3.04
3.53
3.98
4.23
4.29
4.25
4.20
4.18
4.14
3.99
3.66
3.12
2.39
1.52
0.55
-0.49
-1.53
-2.49
-3.26
-3.74
-3.95
-3.97
-4.04
-4.37
-5.12
-6.26
-7.56
-8.62
-9.08
-8.72
-7.61
-5.98
-4.16
-2.40
-0.79
0.73
2.16
3.47
4.49
5.03
5.04
4.61
4.03
3.55
3.29
3.20
3.14
3.02
2.88
2.89
3.15
3.65
4.18
4.45
4.24
3.58
2.73
2.02
1.65
1.60
1.58
1.23
0.35
-0.97
-2.42
-3.55
-4.08
-3.98
-3.55
-3.22
-3.34
-4.04
-5.17
-6.44
-7.51
-8.17
-8.37
-8.16
-7.57
-6.59
-5.16
-3.28
-1.14
0.99
2.76
3.93
4.43
4.40
4.07
3.66
3.29
3.04
2.94
3.02
3.29
3.73
4.27
4.78
5.18
5.43
5.55
5.60
5.60
5.54
5.37
5.05
4.62
4.11
3.62
3.20
2.83
2.41
1.88
1.21
0.49
-0.13
-0.50
-0.57
-0.44
-0.35
-0.53
-1.18
-2.29
-3.69
-5.08
-6.17
-6.75
-6.75
-6.24
-5.33
-4.14
-2.78
-1.35
0.03
1.20
1.99
2.31
2.19
1.77
1.27
0.85
0.61
0.55
0.61
0.70
0.76
0.73
0.62
0.46
0.33
0.27
0.27
0.26
0.09
-0.32
-0.93
-1.60
-2.11
-2.34
-2.31
-2.19
-2.20
-2.47
-2.96
-3.52
-3.98
-4.27
-4.51
-4.89
-5.55
-6.55
-7.74
-8.90
-9.78
-10.19
-10.05
-9.35
-8.16
-6.56
-4.70
-2.74
-0.81
0.97
2.53
3.82
4.75
5.25
5.29
4.91
4.28
3.61
3.11
2.91
3.00
3.30
3.70
4.15
4.57
4.92
5.14
5.16
4.93
4.46
3.83
3.11
2.42
1.80
1.30
0.86
0.46
0.04
-0.41
-0.87
-1.30
-1.69
-2.09
-2.57
-3.22
-4.03
-4.95
-5.85
-6.63
-7.24
-7.68
-7.94
-7.96
-7.62
-6.77
-5.35
-3.43
-1.22
0.97
2.83
4.13
4.85
5.07
4.96
4.73
4.46
4.21
3.95
3.65
3.32
3.05
2.94
3.04
3.30
3.56
3.64
3.42
2.94
2.33
1.77
1.36
1.06
0.78
0.38
-0.16
-0.73
-1.21
-1.51
-1.68
-1.83
-2.10
-2.51
-2.98
-3.40
-3.70
-3.92
-4.22
-4.69
-5.35
-6.06
-6.57
-6.63
-6.11
-5.05
-3.60
-1.97
-0.32
1.21
2.55
3.62
4.38
4.75
4.72
4.36
3.74
2.99
2.27
1.70
1.38
1.36
1.58
1.95
2.28
2.44
2.35
2.05
1.63
1.21
0.85
0.53
0.16
-0.31
-0.88
-1.47
-1.98
-2.32
-2.49
-2.58
-2.74
-3.05
-3.54
-4.10
-4.59
-4.94
-5.16
-5.33
-5.55
-5.85
-6.14
-6.20
-5.81
-4.80
-3.18
-1.14
0.98
2.87
4.24
5.03
5.20
4.81
3.92
2.68
1.32
0.15
-0.49
-0.44
0.17
1.03
1.75
2.06
1.98
1.71
1.51
1.51
1.65
1.74
1.59
1.13
0.49
-0.14
-0.60
-0.85
-1.08
-1.49
-2.22
-3.21
-4.21
-4.92
-5.12
-4.88
-4.47
-4.26
-4.43
-4.91
-5.35
-5.33
-4.58
-3.09
-1.18
0.70
2.17
3.03
3.34
3.32
3.20
3.16
3.18
3.19
3.09
2.87
2.60
2.42
2.43
2.69
3.11
3.60
4.05
4.39
4.57
4.59
4.47
4.25
3.95
3.62
3.26
2.86
2.37
1.76
1.08
0.39
-0.19
-0.59
-0.80
-0.88
-0.94
-1.04
-1.15
-1.14
-0.83
-0.05
1.26
3.04
5.08
7.11
8.88
10.21
11.01
11.31
11.17
10.67
9.85
8.77
7.51
6.24
5.16
4.43
4.12
4.13
4.30
4.43
4.39
4.20
3.90
3.53
3.07
2.45
1.60
0.52
-0.70
-1.89
-2.93
-3.76
-4.36
-4.80
-5.14
-5.49
-5.91
-6.46
-7.12
-7.76
-8.20
-8.29
-7.90
-7.07
-5.93
-4.66
-3.39
-2.17
-0.99
0.16
1.27
2.23
2.89
3.14
2.97
2.47
1.81
1.18
0.67
0.31
0.05
-0.18
-0.38
-0.54
-0.63
-0.68
-0.77
-0.99
-1.43
-2.03
-2.69
-3.22
-3.53
-3.61
-3.61
-3.72
-4.03
-4.55
-5.13
-5.57
-5.76
-5.66
-5.39
-5.07
-4.77
-4.45
-4.01
-3.30
-2.26
-0.99
0.31
1.40
2.06
2.20
1.79
0.87
-0.48
-2.16
-4.00
-5.74
-7.12
-7.89
-8.02
-7.64
-7.02
-6.41
-5.97
-5.66
-5.39
-5.05
-4.65
-4.29
-4.06
-4.02
-4.11
-4.19
-4.14
-3.91
-3.66
-3.60
-3.96
-4.75
-5.73
-6.50
-6.60
-5.81
-4.25
-2.30
-0.37
1.28
2.67
4.03
5.56
7.25
8.86
10.04
10.55
10.43
9.97
9.65
9.80
10.56
11.71
12.85
13.61
13.78
13.41
12.75
12.06
11.46
10.88
10.13
9.06
7.61
5.92
4.17
2.52
1.02
-0.37
-1.78
-3.28
-4.89
-6.54
-8.11
-9.43
-10.30
-10.53
-10.04
-8.88
-7.22
-5.34
-3.50
-1.86
-0.48
0.65
1.53
2.11
2.32
2.14
1.64
0.99
0.41
0.08
0.06
0.26
0.54
0.69
0.64
0.41
0.14
-0.03
-0.04
0.07
0.13
-0.01
-0.44
-1.11
-1.83
-2.44
-2.86
-3.16
-3.53
-4.10
-4.95
-5.92
-6.74
-7.11
-6.83
-5.88
-4.37
-2.56
-0.67
1.12
2.76
4.21
5.40
6.23
6.55
6.26
5.38
4.06
2.52
1.01
-0.31
-1.40
-2.26
-2.94
-3.49
-3.92
-4.22
-4.34
-4.28
-4.04
-3.75
-3.54
-3.56
-3.89
-4.47
-5.15
-5.71
-5.97
-5.93
-5.70
-5.55
-5.69
-6.25
-7.23
-8.51
-9.89
-11.14
-12.01
-12.22
-11.58
-9.99
-7.56
-4.60
-1.54
1.19
3.33
4.79
5.69
6.21
6.50
6.65
6.65
6.51
6.21
5.85
5.52
5.37
5.46
5.79
6.23
6.61
6.75
6.49
5.81
4.75
3.43
1.95
0.44
-1.02
-2.35
-3.51
-4.47
-5.27
-5.96
-6.59
-7.18
-7.72
-8.24
-8.75
-9.27
-9.81
-10.29
-10.58
-10.50
-9.91
-8.78
-7.16
-5.21
-3.10
-0.99
1.01
2.82
4.37
5.61
6.49
6.99
7.19
7.22
7.24
7.38
7.71
8.21
8.81
9.43
10.04
10.61
11.11
11.47
11.60
11.41
10.89
10.11
9.18
8.22
7.26
6.26
5.13
3.84
2.39
0.91
-0.46
-1.55
-2.29
-2.68
-2.81
-2.83
-2.92
-3.21
-3.76
-4.55
-5.47
-6.42
-7.32
-8.09
-8.63
-8.80
-8.40
-7.27
-5.44
-3.14
-0.80
1.13
2.35
2.82
2.73
2.42
2.14
2.03
2.09
2.23
2.39
2.59
2.85
3.18
3.54
3.89
4.19
4.47
4.80
5.26
5.87
6.59
7.27
7.76
7.94
7.76
7.27
6.55
5.69
4.75
3.81
2.93
2.18
1.66
1.45
1.54
1.80
2.02
1.99
1.52
0.60
-0.66
-2.04
-3.27
-4.13
-4.48
-4.24
-3.43
-2.08
-0.33
1.66
3.64
5.33
6.50
7.03
6.96
6.46
5.78
5.11
4.58
4.14
3.67
3.07
2.33
1.59
1.05
0.83
0.93
1.16
1.25
1.03
0.51
-0.09
-0.49
-0.52
-0.22
0.11
0.12
-0.40
-1.37
-2.48
-3.38
-3.89
-4.06
-4.18
-4.50
-5.14
-6.02
-6.88
-7.54
-7.93
-8.13
-8.28
-8.44
-8.56
-8.50
-8.13
-7.37
-6.28
-4.94
-3.48
-1.99
-0.55
0.75
1.82
2.53
2.86
2.81
2.49
2.05
1.66
1.41
1.32
1.31
1.31
1.27
1.23
1.29
1.54
1.96
2.42
2.72
2.69
2.30
1.68
1.08
0.68
0.58
0.64
0.67
0.46
-0.04
-0.73
-1.41
-1.92
-2.25
-2.51
-2.95
-3.72
-4.82
-6.09
-7.30
-8.27
-8.96
-9.43
-9.75
-9.91
-9.79
-9.20
-8.06
-6.43
-4.56
-2.76
-1.27
-0.18
0.57
1.15
1.68
2.19
2.61
2.79
2.66
2.26
1.79
1.52
1.67
2.30
3.24
4.15
4.76
4.92
4.76
4.53
4.47
4.62
4.82
4.81
4.42
3.65
2.73
1.93
1.42
1.15
0.93
0.57
-0.00
-0.69
-1.30
-1.74
-2.01
-2.28
-2.76
-3.57
-4.71
-6.03
-7.29
-8.29
-8.84
-8.82
-8.16
-6.85
-4.96
-2.66
-0.16
2.27
4.42
6.12
7.31
7.97
8.18
8.05
7.71
7.28
6.85
6.46
6.11
5.75
5.35
4.89
4.40
3.96
3.65
3.46
3.34
3.19
2.91
2.51
2.08
1.75
1.59
1.54
1.42
1.03
0.32
-0.62
-1.56
-2.29
-2.79
-3.21
-3.78
-4.68
-5.87
-7.18
-8.35
-9.23
-9.75
-9.91
-9.65
-8.86
-7.42
-5.33
-2.79
-0.26
1.80
3.04
3.42
3.15
2.62
2.13
1.83
1.65
1.38
0.89
0.19
-0.52
-0.89
-0.64
0.30
1.68
3.04
3.98
4.26
3.98
3.46
3.03
2.84
2.75
2.49
1.87
0.91
-0.11
-0.86
-1.10
-0.78
-0.12
0.61
1.16
1.41
1.33
1.00
0.44
-0.25
-0.98
-1.64
-2.04
-2.03
-1.49
-0.44
0.97
2.53
4.04
5.32
6.30
6.94
7.25
7.24
6.91
6.36
5.72
5.15
4.77
4.60
4.53
4.43
4.19
3.86
3.57
3.41
3.41
3.40
3.17
2.58
1.64
0.54
-0.49
-1.31
-1.91
-2.39
-2.84
-3.23
-3.47
-3.49
-3.35
-3.22
-3.36
-3.92
-4.86
-5.95
-6.86
-7.30
-7.14
-6.37
-5.14
-3.61
-1.92
-0.17
1.55
3.16
4.55
5.62
6.24
6.39
6.13
5.54
4.75
3.83
2.83
1.74
0.58
-0.58
-1.65
-2.53
-3.14
-3.42
-3.34
-2.94
-2.31
-1.60
-1.00
-0.66
-0.64
-0.88
-1.28
-1.73
-2.16
-2.64
-3.24
-4.04
-5.05
-6.19
-7.31
-8.22
-8.78
-8.89
-8.53
-7.75
-6.64
-5.27
-3.77
-2.24
-0.84
0.27
1.00
1.28
1.15
0.68
-0.04
-0.91
-1.84
-2.70
-3.34
-3.61
-3.40
-2.75
-1.81
-0.82
-0.03
0.39
0.39
-0.00
-0.68
-1.52
-2.39
-3.23
-3.94
-4.50
-4.94
-5.31
-5.73
-6.32
-7.10
-7.99
-8.84
-9.41
-9.50
-8.99
-7.80
-5.97
-3.65
-1.08
1.40
3.43
4.76
5.30
5.15
4.57
3.82
3.11
2.51
2.01
1.59
1.27
1.11
1.20
1.55
2.09
2.70
3.18
3.36
3.18
2.67
1.99
1.32
0.79
0.41
0.10
-0.25
-0.71
-1.31
-2.01
-2.78
-3.61
-4.45
-5.23
-5.84
-6.07
-5.77
-4.81
-3.22
-1.17
1.06
3.13
4.77
5.79
6.18
6.10
5.81
5.53
5.35
5.18
4.83
4.19
3.32
2.49
2.00
2.04
2.57
3.30
3.85
3.93
3.46
2.57
1.51
0.47
-0.45
-1.29
-2.11
-2.94
-3.75
-4.49
-5.15
-5.78
-6.50
-7.38
-8.42
-9.41
-9.98
-9.77
-8.55
-6.38
-3.61
-0.81
1.52
3.05
3.76
3.88
3.70
3.45
3.19
2.84
2.32
1.59
0.78
0.05
-0.40
-0.47
-0.17
0.34
0.90
1.35
1.59
1.59
1.32
0.73
-0.15
-1.23
-2.35
-3.31
-3.96
-4.31
-4.53
-4.82
-5.41
-6.36
-7.56
-8.74
-9.52
-9.61
-8.85
-7.28
-5.07
-2.50
0.16
2.67
4.89
6.63
7.69
7.96
7.47
6.47
5.38
4.61
4.37
4.56
4.91
5.09
5.01
4.78
4.70
4.98
5.61
6.33
6.75
6.56
5.71
4.41
3.05
1.96
1.34
1.08
0.95
0.67
0.03
-0.99
-2.30
-3.72
-5.05
-6.11
-6.73
-6.79
-6.20
-4.94
-3.08
-0.76
1.78
4.32
6.63
8.55
9.97
10.84
11.18
11.05
10.55
9.82
9.01
8.26
7.68
7.30
7.12
7.10
7.18
7.32
7.45
7.52
7.41
7.04
6.35
5.34
4.14
2.92
1.87
1.09
0.56
0.14
-0.35
-1.08
-2.07
-3.26
-4.55
-5.84
-7.08
-8.21
-9.10
-9.52
-9.20
-7.89
-5.61
-2.62
0.53
3.27
5.19
6.16
6.37
6.15
5.76
5.31
4.70
3.85
2.75
1.60
0.69
0.30
0.52
1.19
2.00
2.64
2.93
2.88
2.63
2.32
1.97
1.48
0.71
-0.40
-1.76
-3.12
-4.20
-4.82
-5.01
-5.01
-5.12
-5.60
-6.48
-7.56
-8.50
-8.90
-8.48
-7.17
-5.10
-2.54
0.17
2.76
5.02
6.85
8.15
8.89
9.02
8.56
7.66
6.54
5.52
4.85
4.67
4.91
5.36
5.77
5.98
5.98
5.89
5.85
5.88
5.88
5.67
5.13
4.26
3.21
2.18
1.28
0.48
-0.34
-1.31
-2.46
-3.66
-4.73
-5.55
-6.12
-6.56
-7.01
-7.49
-7.87
-7.84
-7.10
-5.44
-2.91
0.22
3.52
6.53
8.89
10.43
11.17
11.29
10.96
10.30
9.41
8.35
7.25
6.32
5.76
5.70
6.04
6.53
6.84
6.76
6.27
5.59
4.99
4.64
4.50
4.29
3.71
2.61
1.07
-0.58
-1.96
-2.84
-3.32
-3.74
-4.48
-5.73
-7.33
-8.85
-9.83
-9.98
-9.40
-8.39
-7.30
-6.28
-5.26
-4.02
-2.42
-0.49
1.48
3.15
4.28
4.80
4.82
4.51
3.99
3.35
2.61
1.80
1.00
0.28
-0.31
-0.72
-0.99
-1.14
-1.24
-1.38
-1.66
-2.17
-2.97
-4.06
-5.34
-6.67
-7.90
-8.93
-9.77
-10.52
-11.33
-12.30
-13.51
-14.96
-16.55
-18.11
-19.43
-20.24
-20.28
-19.42
-17.66
-15.21
-12.37
-9.45
-6.67
-4.09
-1.65
0.69
2.89
4.87
6.47
7.68
8.58
9.36
10.19
11.15
12.17
13.12
13.86
14.35
14.58
14.58
14.34
13.78
12.86
11.62
10.15
8.64
7.19
5.85
4.55
3.26
1.96
0.71
-0.39
-1.38
-2.36
-3.50
-4.91
-6.49
-7.96
-8.93
-9.08
-8.30
-6.68
-4.47
-1.98
0.56
2.96
5.09
6.82
8.05
8.73
8.85
8.45
7.66
6.65
5.64
4.83
4.40
4.46
4.94
5.69
6.48
7.06
7.31
7.21
6.84
6.29
5.67
4.98
4.23
3.38
2.44
1.49
0.64
-0.03
-0.51
-0.87
-1.25
-1.77
-2.47
-3.30
-4.17
-4.99
-5.71
-6.25
-6.56
-6.50
-5.87
-4.57
-2.60
-0.14
2.45
4.79
6.58
7.74
8.34
8.56
8.52
8.22
7.61
6.66
5.48
4.31
3.48
3.18
3.44
4.03
4.64
4.95
4.81
4.23
3.37
2.44
1.62
0.95
0.39
-0.19
-0.88
-1.68
-2.50
-3.21
-3.74
-4.13
-4.51
-5.04
-5.76
-6.66
-7.59
-8.41
-9.04
-9.41
-9.51
-9.27
-8.60
-7.44
-5.80
-3.78
-1.58
0.55
2.39
3.79
4.70
5.09
4.99
4.43
3.51
2.39
1.28
0.40
-0.09
-0.16
0.08
0.44
0.76
0.92
0.89
0.71
0.47
0.24
0.04
-0.14
-0.38
-0.74
-1.29
-2.02
-2.88
-3.75
-4.54
-5.22
-5.83
-6.44
-7.18
-8.08
-9.12
-10.18
-11.06
-11.53
-11.36
-10.42
-8.70
-6.37
-3.72
-1.06
1.28
3.13
4.40
5.08
5.22
4.91
4.25
3.37
2.45
1.65
1.15
1.03
1.28
1.79
2.36
2.84
3.15
3.33
3.44
3.54
3.57
3.39
2.87
2.01
0.90
-0.27
-1.35
-2.30
-3.13
-3.89
-4.59
-5.23
-5.81
-6.40
-7.14
-8.12
-9.34
-10.62
-11.73
-12.41
-12.46
-11.80
-10.39
-8.26
-5.49
-2.22
1.35
4.95
8.24
10.94
12.85
13.91
14.23
14.07
13.72
13.42
13.24
13.13
12.97
12.66
12.23
11.81
11.50
11.35
11.18
10.76
9.87
8.46
6.64
4.70
2.89
1.38
0.19
-0.76
-1.53
-2.12
-2.44
-2.39
-1.90
-1.00
0.07
1.04
1.57
1.45
0.64
-0.73
-2.35
-3.86
-4.99
-5.55
-5.52
-5.00
-4.16
-3.20
-2.33
-1.70
-1.40
-1.49
-1.94
-2.70
-3.71
-4.86
-6.02
-7.00
-7.59
-7.59
-6.99
-5.91
-4.66
-3.60
-2.95
-2.77
-2.88
-3.06
-3.17
-3.25
-3.48
-4.06
-5.04
-6.29
-7.53
-8.52
-9.15
-9.47
-9.69
-10.02
-10.60
-11.44
-12.51
-13.71
-14.93
-16.07
-17.00
-17.57
-17.65
-17.16
-16.08
-14.48
-12.48
-10.24
-7.98
-5.87
-4.07
-2.62
-1.47
-0.50
0.44
1.45
2.58
3.80
5.12
6.55
8.16
9.98
11.93
13.82
15.38
16.39
16.72
16.44
15.76
14.92
14.09
13.25
12.28
11.03
9.45
7.67
5.93
4.49
3.45
2.70
1.98
1.03
-0.29
-1.89
-3.54
-5.00
-6.20
-7.17
-8.04
-8.77
-9.14
-8.80
-7.42
-5.01
-1.89
1.31
3.93
5.57
6.20
6.18
5.95
5.88
6.02
6.21
6.24
6.00
5.57
5.24
5.23
5.59
6.14
6.61
6.79
6.67
6.46
6.47
6.78
7.28
7.61
7.44
6.61
5.25
3.70
2.30
1.23
0.44
-0.24
-0.93
-1.67
-2.33
-2.82
-3.14
-3.47
-4.08
-5.13
-6.56
-8.06
-9.17
-9.48
-8.80
-7.26
-5.25
-3.18
-1.39
0.01
1.08
2.00
2.88
3.64
4.09
4.02
3.37
2.31
1.25
0.57
0.53
1.02
1.67
2.05
1.84
1.10
0.11
-0.72
-1.12
-1.13
-0.96
-0.93
-1.21
-1.80
-2.54
-3.25
-3.80
-4.21
-4.54
-4.88
-5.31
-5.84
-6.50
-7.29
-8.16
-9.08
-9.94
-10.65
-11.12
-11.26
-11.00
-10.27
-9.07
-7.46
-5.62
-3.78
-2.17
-0.94
-0.14
0.26
0.36
0.24
-0.04
-0.42
-0.84
-1.20
-1.32
-1.06
-0.32
0.85
2.24
3.55
4.46
4.74
4.33
3.36
2.02
0.54
-0.96
-2.41
-3.81
-5.15
-6.39
-7.47
-8.32
-8.95
-9.38
-9.70
-9.99
-10.27
-10.51
-10.64
-10.55
-10.15
-9.40
-8.29
-6.82
-4.96
-2.69
0.05
3.22
6.71
10.24
13.46
15.99
17.57
18.11
17.73
16.72
15.41
14.10
13.02
12.28
11.90
11.82
11.94
12.15
12.37
12.55
12.63
12.63
12.54
12.34
12.00
11.52
10.86
9.98
8.85
7.45
5.84
4.12
2.47
1.05
-0.03
-0.78
-1.37
-2.00
-2.86
-4.04
-5.50
-7.08
-8.58
-9.82
-10.64
-10.93
-10.63
-9.76
-8.38
-6.63
-4.68
-2.70
-0.89
0.59
1.60
2.05
1.92
1.34
0.50
-0.31
-0.85
-0.98
-0.70
-0.12
0.60
1.32
1.94
2.39
2.63
2.61
2.34
1.90
1.42
1.02
0.76
0.57
0.35
-0.03
-0.61
-1.33
-2.06
-2.70
-3.21
-3.65
-4.15
-4.84
-5.78
-6.97
-8.29
-9.52
-10.42
-10.74
-10.32
-9.10
-7.21
-4.88
-2.40
-0.02
2.09
3.82
5.09
5.82
5.96
5.52
4.69
3.72
2.93
2.54
2.59
2.95
3.36
3.60
3.54
3.27
2.91
2.66
2.57
2.58
2.55
2.34
1.89
1.27
0.65
0.17
-0.11
-0.25
-0.36
-0.60
-1.05
-1.68
-2.45
-3.29
-4.19
-5.18
-6.28
-7.47
-8.55
-9.28
-9.34
-8.53
-6.83
-4.45
-1.79
0.77
2.93
4.62
5.89
6.86
7.56
7.97
8.00
7.66
7.06
6.39
5.87
5.61
5.62
5.82
6.09
6.36
6.61
6.87
7.12
7.29
7.29
7.00
6.38
5.46
4.37
3.26
2.25
1.40
0.64
-0.09
-0.90
-1.76
-2.62
-3.39
-4.05
-4.66
-5.34
-6.18
-7.20
-8.28
-9.21
-9.75
-9.71
-9.03
-7.75
-6.05
-4.14
-2.24
-0.49
0.97
2.09
2.85
3.22
3.23
2.97
2.58
2.19
1.86
1.59
1.29
0.93
0.58
0.43
0.65
1.31
2.20
2.98
3.30
3.00
2.18
1.18
0.33
-0.19
-0.45
-0.67
-1.06
-1.66
-2.36
-3.00
-3.52
-3.99
-4.64
-5.70
-7.27
-9.29
-11.51
-13.66
-15.50
-16.83
-17.54
-17.55
-16.86
-15.57
-13.86
-12.04
-10.38
-9.04
-8.03
-7.22
-6.44
-5.61
-4.77
-4.04
-3.49
-3.03
-2.42
-1.40
0.22
2.40
4.90
7.41
9.66
11.56
13.13
14.44
15.52
16.32
16.76
16.80
16.43
15.77
14.95
14.13
13.40
12.79
12.23
11.60
10.73
9.48
7.82
5.80
3.53
1.16
-1.24
-3.64
-5.97
-8.07
-9.73
-10.74
-11.00
-10.62
-9.83
-8.91
-8.04
-7.20
-6.24
-5.00
-3.38
-1.41
0.73
2.85
4.74
6.30
7.51
8.40
9.05
9.58
10.09
10.65
11.30
12.05
12.80
13.42
13.75
13.63
12.99
11.85
10.35
8.69
7.01
5.41
3.88
2.38
0.85
-0.77
-2.48
-4.25
-6.00
-7.69
-9.24
-10.65
-11.94
-13.13
-14.21
-15.10
-15.64
-15.61
-14.88
-13.46
-11.52
-9.38
-7.38
-5.73
-4.54
-3.77
-3.34
-3.17
-3.25
-3.51
-3.91
-4.28
-4.46
-4.27
-3.61
-2.50
-1.02
0.67
2.39
3.98
5.30
6.29
6.88
7.06
6.81
6.14
5.10
3.85
2.58
1.48
0.68
0.11
-0.38
-0.96
-1.68
-2.45
-3.09
-3.49
-3.62
-3.66
-3.77
-4.06
-4.48
-4.81
-4.84
-4.44
-3.55
-2.17
-0.34
1.88
4.38
6.92
9.09
10.46
10.70
9.76
7.93
5.67
3.44
1.56
-0.03
-1.54
-3.22
-5.11
-6.99
-8.46
-9.19
-9.04
-8.27
-7.31
-6.60
-6.30
-6.25
-6.07
-5.43
-4.24
-2.75
-1.44
-0.76
-0.91
-1.75
-2.89
-3.87
-4.40
-4.48
-4.31
-4.19
-4.30
-4.57
-4.79
-4.67
-4.06
-3.02
-1.75
-0.48
0.73
2.03
3.70
6.00
9.06
12.68
16.44
19.81
22.29
23.62
23.79
23.03
21.68
20.07
18.42
16.79
15.17
13.54
11.96
10.54
9.45
8.79
8.55
8.58
8.67
8.58
8.18
7.43
6.37
5.11
3.73
2.29
0.76
-0.89
-2.68
-4.63
-6.62
-8.49
-10.08
-11.23
-11.93
-12.26
-12.37
-12.43
-12.49
-12.54
-12.50
-12.29
-11.83
-11.05
-9.95
-8.52
-6.78
-4.80
-2.68
-0.57
1.32
2.77
3.60
3.73
3.23
2.33
1.36
0.58
0.11
-0.07
-0.09
-0.09
-0.06
0.01
0.17
0.31
0.25
-0.21
-1.14
-2.40
-3.69
-4.67
-5.13
-5.11
-4.84
-4.62
-4.68
-5.06
-5.62
-6.14
-6.49
-6.69
-6.92
-7.40
-8.27
-9.44
-10.65
-11.48
-11.59
-10.81
-9.24
-7.17
-4.96
-2.88
-1.07
0.48
1.83
3.00
3.95
4.57
4.78
4.56
4.03
3.36
2.76
2.37
2.18
2.10
1.97
1.71
1.36
1.08
1.03
1.31
1.84
2.41
2.74
2.66
2.13
1.28
0.29
-0.69
-1.59
-2.43
-3.24
-4.01
-4.71
-5.31
-5.84
-6.41
-7.14
-8.05
-9.04
-9.84
-10.11
-9.62
-8.23
-6.09
-3.44
-0.64
1.98
4.19
5.86
7.01
7.66
7.87
7.70
7.18
6.34
5.22
3.93
2.62
1.47
0.61
0.14
0.02
0.20
0.56
1.00
1.47
1.90
2.27
2.52
2.56
2.32
1.72
0.80
-0.34
-1.50
-2.45
-3.05
-3.28
-3.26
-3.22
-3.37
-3.82
-4.53
-5.33
-6.06
-6.61
-6.95
-7.08
-6.95
-6.43
-5.39
-3.84
-1.92
0.07
1.81
3.10
3.92
4.38
4.62
4.70
4.59
4.27
3.78
3.27
2.93
2.90
3.17
3.62
4.02
4.20
4.09
3.79
3.44
3.18
3.03
2.87
2.52
1.87
0.94
-0.03
-0.76
-1.03
-0.84
-0.45
-0.22
-0.48
-1.29
-2.49
-3.82
-5.02
-5.97
-6.62
-6.94
-6.81
-6.04
-4.49
-2.23
0.47
3.18
5.44
6.97
7.73
7.83
7.47
6.83
6.02
5.12
4.21
3.43
2.89
2.68
2.79
3.04
3.23
3.13
2.64
1.83
0.86
-0.08
-0.86
-1.56
-2.28
-3.14
-4.08
-4.92
-5.42
-5.46
-5.13
-4.77
-4.79
-5.44
-6.70
-8.19
-9.39
-9.84
-9.33
-7.96
-6.06
-3.98
-1.92
0.05
2.00
3.94
5.79
7.32
8.27
8.49
8.02
7.05
5.90
4.83
4.03
3.52
3.27
3.20
3.26
3.42
3.61
3.75
3.76
3.53
3.05
2.34
1.49
0.58
-0.35
-1.28
-2.20
-3.07
-3.84
-4.49
-5.02
-5.50
-6.05
-6.73
-7.50
-8.23
-8.73
-8.83
-8.45
-7.63
-6.49
-5.10
-3.49
-1.66
0.37
2.48
4.42
5.98
6.98
7.44
7.56
7.55
7.60
7.75
7.90
7.93
7.79
7.54
7.34
7.34
7.59
8.06
8.57
8.94
9.01
8.74
8.20
7.52
6.83
6.17
5.48
4.66
3.70
2.63
1.58
0.68
-0.04
-0.68
-1.41
-2.36
-3.54
-4.83
-5.99
-6.79
-7.04
-6.67
-5.67
-4.16
-2.28
-0.29
1.58
3.11
4.21
4.87
5.13
5.07
4.76
4.29
3.75
3.27
2.94
2.74
2.63
2.47
2.18
1.77
1.33
1.01
0.92
1.07
1.36
1.63
1.68
1.42
0.82
-0.03
-0.99
-1.93
-2.74
-3.42
-3.97
-4.47
-4.97
-5.52
-6.18
-6.98
-7.88
-8.72
-9.25
-9.21
-8.44
-6.97
-5.02
-2.92
-1.00
0.54
1.62
2.27
2.61
2.74
2.77
2.75
2.70
2.60
2.40
2.09
1.75
1.48
1.39
1.54
1.87
2.27
2.61
2.78
2.79
2.57
2.05
1.15
-0.12
-1.64
-3.16
-4.35
-4.99
-5.12
-4.98
-4.90
-5.16
-5.81
-6.69
-7.53
-8.06
-8.22
-8.05
-7.67
-7.12
-6.27
-4.97
-3.12
-0.81
1.51
3.33
4.20
4.03
3.13
2.04
1.27
1.08
1.32
1.63
1.70
1.42
0.99
0.70
0.79
1.31
2.04
2.64
2.85
2.59
1.95
1.21
0.59
0.25
0.13
0.06
-0.15
-0.64
-1.38
-2.28
-3.18
-3.98
-4.68
-5.34
-6.02
-6.69
-7.22
-7.43
-7.12
-6.18
-4.64
-2.67
-0.50
1.61
3.45
4.87
5.80
6.21
6.15
5.71
5.05
4.33
3.67
3.15
2.78
2.60
2.62
2.87
3.34
3.92
4.44
4.75
4.78
4.57
4.26
3.98
3.74
3.41
2.83
1.93
0.77
-0.40
-1.29
-1.71
-1.72
-1.57
-1.62
-2.13
-3.11
-4.28
-5.22
-5.52
-4.98
-3.70
-1.98
-0.19
1.41
2.72
3.82
4.78
5.59
6.12
6.17
5.65
4.58
3.22
1.90
0.94
0.48
0.45
0.66
0.87
0.95
0.90
0.80
0.73
0.71
0.65
0.46
0.09
-0.46
-1.13
-1.84
-2.56
-3.29
-3.99
-4.62
-5.12
-5.46
-5.68
-5.87
-6.15
-6.58
-7.11
-7.56
-7.73
-7.44
-6.61
-5.29
-3.65
-1.86
-0.11
1.51
2.95
4.17
5.14
5.73
5.85
5.42
4.53
3.36
2.24
1.42
1.10
1.27
1.80
2.46
3.01
3.19
2.92
2.19
1.19
0.20
-0.51
-0.81
-0.76
-0.61
-0.64
-1.02
-1.72
-2.58
-3.40
-4.09
-4.69
-5.35
-6.17
-7.12
-8.03
-8.64
-8.71
-8.10
-6.87
-5.23
-3.43
-1.73
-0.24
1.01
2.05
2.88
3.48
3.76
3.70
3.36
2.92
2.57
2.43
2.53
2.76
3.01
3.16
3.23
3.27
3.37
3.62
4.01
4.44
4.75
4.77
4.40
3.71
2.88
2.14
1.68
1.51
1.48
1.43
1.23
0.90
0.54
0.24
0.01
-0.24
-0.64
-1.21
-1.85
-2.34
-2.42
-1.98
-1.01
0.33
1.85
3.35
4.68
5.80
6.64
7.13
7.20
6.78
5.89
4.67
3.35
2.18
1.36
0.97
0.97
1.24
1.66
2.10
2.49
2.76
2.88
2.80
2.50
1.96
1.22
0.33
-0.60
-1.42
-2.02
-2.37
-2.54
-2.69
-2.99
-3.51
-4.20
-4.91
-5.46
-5.78
-5.88
-5.85
-5.71
-5.39
-4.74
-3.66
-2.17
-0.50
1.06
2.30
3.15
3.72
4.16
4.48
4.58
4.29
3.52
2.39
1.25
0.50
0.38
0.80
1.45
1.92
1.95
1.57
1.03
0.64
0.57
0.66
0.61
0.10
-0.97
-2.41
-3.81
-4.77
-5.10
-4.94
-4.63
-4.52
-4.81
-5.46
-6.29
-7.08
-7.74
-8.24
-8.57
-8.66
-8.31
-7.37
-5.76
-3.63
-1.29
0.89
2.63
3.78
4.37
4.49
4.24
3.69
2.98
2.24
1.67
1.43
1.53
1.90
2.34
2.64
2.69
2.50
2.16
1.78
1.42
1.05
0.62
0.05
-0.67
-1.48
-2.29
-3.00
-3.56
-3.94
-4.19
-4.35
-4.46
-4.58
-4.74
-4.98
-5.31
-5.71
-6.10
-6.35
-6.30
-5.81
-4.84
-3.43
-1.76
-0.03
1.56
2.91
3.99
4.80
5.36
5.64
5.63
5.38
5.03
4.77
4.72
4.93
5.33
5.76
6.14
6.40
6.55
6.62
6.64
6.62
6.53
6.33
5.93
5.26
4.29
3.08
1.80
0.70
-0.01
-0.23
-0.05
0.30
0.54
0.45
-0.07
-0.95
-2.02
-3.06
-3.87
-4.33
-4.41
-4.13
-3.58
-2.79
-1.81
-0.71
0.44
1.52
2.41
3.05
3.41
3.47
3.24
2.71
1.90
0.87
-0.17
-0.98
-1.34
-1.19
-0.60
0.16
0.80
1.11
1.05
0.72
0.33
0.08
0.08
0.29
0.54
0.63
0.39
-0.23
-1.14
-2.17
-3.13
-3.92
-4.52
-5.05
-5.60
-6.25
-6.95
-7.60
-8.06
-8.21
-7.97
-7.31
-6.22
-4.74
-2.92
-0.92
1.08
2.76
3.83
4.07
3.47
2.23
0.79
-0.39
-0.95
-0.78
0.00
1.09
2.19
3.09
3.74
4.09
4.18
4.04
3.68
3.23
2.79
2.43
2.12
1.67
0.89
-0.33
-1.90
-3.52
-4.81
-5.51
-5.60
-5.39
-5.37
-5.95
-7.23
-8.89
-10.34
-10.99
-10.48
-8.92
-6.72
-4.43
-2.41
-0.77
0.58
1.77
2.84
3.65
4.07
4.05
3.72
3.33
3.14
3.28
3.74
4.39
5.04
5.57
5.88
5.97
5.86
5.60
5.28
4.95
4.65
4.36
4.03
3.60
2.99
2.22
1.38
0.66
0.19
0.00
-0.01
-0.08
-0.48
-1.34
-2.60
-4.03
-5.32
-6.18
-6.48
-6.22
-5.48
-4.42
-3.17
-1.87
-0.65
0.41
1.24
1.82
2.17
2.31
2.30
2.22
2.18
2.23
2.44
2.75
3.11
3.43
3.71
3.94
4.17
4.37
4.49
4.39
3.99
3.26
2.33
1.37
0.58
0.05
-0.27
-0.49
-0.78
-1.22
-1.80
-2.42
-3.00
-3.49
-3.96
-4.46
-5.00
-5.45
-5.61
-5.27
-4.34
-2.88
-1.09
0.79
2.52
3.98
5.13
5.99
6.59
6.94
6.99
6.66
5.92
4.81
3.48
2.21
1.22
0.67
0.49
0.46
0.31
-0.10
-0.75
-1.46
-2.02
-2.36
-2.51
-2.69
-3.07
-3.75
-4.65
-5.60
-6.42
-7.00
-7.38
-7.65
-7.94
-8.34
-8.85
-9.40
-9.90
-10.27
-10.45
-10.36
-9.91
-9.00
-7.49
-5.33
-2.61
0.40
3.31
5.68
7.22
7.89
7.87
7.54
7.24
7.14
7.24
7.38
7.39
7.21
6.87
6.50
6.26
6.20
6.29
6.40
6.37
6.09
5.53
4.75
3.90
3.13
2.53
2.10
1.75
1.39
0.95
0.45
-0.06
-0.58
-1.15
-1.90
-2.93
-4.21
-5.57
-6.71
-7.35
-7.34
-6.71
-5.61
-4.26
-2.83
-1.43
-0.16
0.88
1.59
1.89
1.80
1.45
1.03
0.69
0.52
0.53
0.67
0.90
1.23
1.63
2.10
2.58
2.99
3.30
3.49
3.62
3.72
3.80
3.83
3.72
3.43
2.98
2.45
2.01
1.78
1.80
1.97
2.12
2.05
1.67
0.96
0.02
-1.03
-2.04
-2.88
-3.42
-3.49
-2.97
-1.86
-0.30
1.40
2.85
3.74
3.95
3.63
3.04
2.48
2.11
1.94
1.85
1.73
1.54
1.32
1.17
1.15
1.25
1.40
1.53
1.61
1.63
1.60
1.43
1.01
0.22
-0.94
-2.31
-3.59
-4.51
-4.88
-4.78
-4.43
-4.18
-4.33
-4.99
-6.05
-7.22
-8.12
-8.39
-7.83
-6.44
-4.41
-2.06
0.23
2.12
3.42
4.07
4.18
3.94
3.56
3.22
2.99
2.84
2.69
2.49
2.25
2.04
1.99
2.14
2.44
2.71
2.73
2.37
1.63
0.69
-0.23
-0.91
-1.29
-1.50
-1.74
-2.19
-2.87
-3.67
-4.39
-4.88
-5.15
-5.38
-5.81
-6.58
-7.62
-8.63
-9.22
-9.08
-8.10
-6.44
-4.40
-2.31
-0.40
1.23
2.55
3.55
4.23
4.52
4.41
3.90
3.12
2.26
1.53
1.12
1.11
1.47
2.06
2.65
3.05
3.14
2.89
2.38
1.74
1.09
0.52
0.02
-0.45
-0.94
-1.51
-2.16
-2.83
-3.44
-3.98
-4.46
-5.04
-5.87
-7.03
-8.48
-9.99
-11.22
-11.81
-11.52
-10.28
-8.25
-5.73
-3.08
-0.62
1.41
2.91
3.84
4.24
4.21
3.88
3.39
2.88
2.45
2.15
1.98
1.91
1.92
2.01
2.13
2.26
2.36
2.45
2.60
2.89
3.32
3.77
4.06
3.99
3.53
2.81
2.08
1.52
1.17
0.88
0.42
-0.34
-1.38
-2.56
-3.72
-4.82
-5.91
-7.03
-8.11
-8.87
-9.00
-8.27
-6.71
-4.63
-2.44
-0.47
1.12
2.37
3.37
4.18
4.78
5.10
5.09
4.86
4.59
4.53
4.82
5.49
6.40
7.31
7.98
8.28
8.18
7.84
7.40
6.98
6.59
6.12
5.42
4.43
3.24
2.04
1.05
0.41
0.10
0.02
-0.05
-0.25
-0.64
-1.15
-1.71
-2.17
-2.48
-2.59
-2.48
-2.07
-1.27
0.01
1.70
3.60
5.39
6.75
7.52
7.75
7.64
7.45
7.32
7.24
7.12
6.91
6.69
6.63
6.90
7.55
8.37
9.08
9.41
9.28
8.83
8.38
8.20
8.37
8.67
8.70
8.10
6.69
4.65
2.38
0.29
-1.36
-2.64
-3.79
-5.08
-6.60
-8.25
-9.71
-10.74
-11.26
-11.45
-11.68
-12.22
-13.10
-14.06
-14.61
-14.28
-12.85
-10.49
-7.67
-5.00
-2.89
-1.47
-0.52
0.28
1.18
2.17
3.02
3.46
3.34
2.77
2.06
1.54
1.44
1.77
2.39
3.10
3.79
4.45
5.09
5.72
6.33
6.81
7.06
7.01
6.63
5.99
5.15
4.22
3.28
2.37
1.53
0.73
-0.09
-0.97
-1.95
-3.02
-4.18
-5.39
-6.65
-7.98
-9.42
-10.95
-12.52
-14.00
-15.19
-15.86
-15.85
-15.07
-13.58
-11.55
-9.18
-6.69
-4.26
-2.02
-0.09
1.46
2.51
3.04
3.07
2.72
2.23
1.83
1.74
2.00
2.53
3.13
3.58
3.77
3.68
3.43
3.15
2.97
2.90
2.90
2.91
2.88
2.83
2.79
2.76
2.71
2.56
2.27
1.83
1.33
0.89
0.61
0.55
0.67
0.87
0.98
0.89
0.51
-0.18
-1.13
-2.22
-3.27
-4.08
-4.43
-4.15
-3.15
-1.49
0.63
2.91
5.04
6.71
7.76
8.15
7.91
7.17
6.07
4.74
3.36
2.13
1.27
0.97
1.32
2.27
3.60
5.04
6.30
7.13
7.41
7.11
6.33
5.22
3.93
2.57
1.16
-0.32
-1.90
-3.47
-4.87
-5.83
-6.19
-5.93
-5.24
-4.46
-3.88
-3.64
-3.65
-3.68
-3.53
-3.13
-2.62
-2.27
-2.34
-2.95
-4.01
-5.26
-6.34
-6.94
-6.90
-6.20
-4.95
-3.30
-1.39
0.70
2.87
5.03
7.02
8.68
9.85
10.47
10.58
10.34
9.99
9.71
9.67
9.87
10.27
10.75
11.18
11.46
11.51
11.30
10.84
10.17
9.29
8.24
7.05
5.78
4.52
3.30
2.12
0.91
-0.43
-1.96
-3.66
-5.35
-6.77
-7.71
-8.10
-8.07
-7.91
-7.92
-8.24
-8.83
-9.48
-10.04
-10.44
-10.77
-11.12
-11.48
-11.65
-11.37
-10.41
-8.76
-6.67
-4.48
-2.52
-0.94
0.31
1.38
2.40
3.40
4.29
4.94
5.21
5.06
4.58
3.98
3.50
3.32
3.49
3.91
4.36
4.70
4.85
4.87
4.88
4.90
4.88
4.67
4.17
3.39
2.48
1.62
0.98
0.58
0.34
0.16
-0.05
-0.32
-0.66
-1.07
-1.62
-2.33
-3.17
-4.03
-4.77
-5.27
-5.53
-5.62
-5.62
-5.57
-5.40
-4.96
-4.15
-2.96
-1.51
-0.02
1.29
2.28
2.91
3.20
3.24
3.10
2.83
2.41
1.82
1.06
0.19
-0.63
-1.17
-1.26
-0.86
-0.17
0.52
0.91
0.89
0.56
0.18
-0.04
-0.06
-0.11
-0.48
-1.36
-2.69
-4.13
-5.29
-5.94
-6.11
-6.08
-6.23
-6.77
-7.71
-8.88
-10.04
-11.04
-11.83
-12.40
-12.76
-12.80
-12.40
-11.47
-10.03
-8.23
-6.22
-4.16
-2.13
-0.22
1.43
2.66
3.26
3.19
2.55
1.60
0.69
0.05
-0.25
-0.26
-0.09
0.20
0.61
1.19
1.90
2.65
3.24
3.52
3.47
3.16
2.78
2.48
2.31
2.21
2.04
1.68
1.09
0.31
-0.56
-1.49
-2.47
-3.52
-4.69
-5.92
-7.16
-8.28
-9.18
-9.72
-9.80
-9.32
-8.28
-6.71
-4.71
-2.46
-0.12
2.11
4.09
5.70
6.85
7.54
7.81
7.74
7.46
7.04
6.59
6.14
5.75
5.44
5.18
4.93
4.63
4.31
4.03
3.88
3.90
4.02
4.05
3.80
3.16
2.17
0.98
-0.21
-1.21
-1.94
-2.40
-2.62
-2.67
-2.61
-2.54
-2.58
-2.85
-3.45
-4.33
-5.32
-6.16
-6.63
-6.56
-5.94
-4.86
-3.43
-1.80
-0.08
1.56
2.95
3.97
4.57
4.81
4.88
4.97
5.25
5.75
6.40
7.03
7.44
7.50
7.15
6.44
5.53
4.63
3.91
3.40
3.01
2.53
1.74
0.47
-1.28
-3.41
-5.74
-8.03
-10.11
-11.83
-13.17
-14.13
-14.77
-15.09
-15.14
-14.94
-14.53
-13.95
-13.20
-12.20
-10.80
-8.87
-6.40
-3.56
-0.67
1.89
3.87
5.22
6.06
6.58
6.84
6.80
6.33
5.41
4.20
3.02
2.28
2.22
2.79
3.71
4.57
5.09
5.19
5.03
4.83
4.70
4.53
4.09
3.20
1.86
0.32
-1.07
-2.03
-2.53
-2.81
-3.27
-4.20
-5.64
-7.28
-8.61
-9.11
-8.46
-6.71
-4.16
-1.29
1.50
3.96
6.07
7.89
9.48
10.76
11.56
11.70
11.10
9.86
8.30
6.77
5.59
4.87
4.54
4.43
4.34
4.20
4.02
3.86
3.76
3.66
3.42
2.92
2.07
0.91
-0.40
-1.67
-2.74
-3.50
-3.98
-4.29
-4.57
-4.97
-5.54
-6.23
-6.93
-7.45
-7.62
-7.32
-6.52
-5.25
-3.62
-1.79
0.05
1.73
3.10
4.08
4.62
4.73
4.43
3.79
2.93
2.04
1.35
1.01
1.08
1.45
1.95
2.37
2.63
2.71
2.71
2.66
2.58
2.35
1.85
1.00
-0.15
-1.45
-2.70
-3.75
-4.58
-5.29
-5.96
-6.66
-7.31
-7.77
-7.88
-7.57
-6.87
-5.88
-4.72
-3.46
-2.13
-0.73
0.71
2.11
3.40
4.44
5.18
5.57
5.67
5.55
5.29
4.97
4.60
4.23
3.93
3.81
3.97
4.44
5.11
5.72
6.01
5.76
4.95
3.66
2.10
0.48
-1.05
-2.41
-3.57
-4.55
-5.42
-6.27
-7.16
-8.12
-9.15
-10.19
-11.16
-11.89
-12.22
-11.94
-10.94
-9.24
-7.09
-4.83
-2.84
-1.39
-0.51
-0.08
0.13
0.29
0.44
0.58
0.66
0.69
0.73
0.88
1.19
1.71
2.39
3.18
4.01
4.77
5.39
5.78
5.91
5.85
5.71
5.62
5.66
5.83
6.00
6.03
5.79
5.19
4.25
2.99
1.45
-0.31
-2.19
-4.03
-5.60
-6.64
-7.01
-6.66
-5.74
-4.47
-3.08
-1.74
-0.46
0.80
2.10
3.41
4.61
5.57
6.19
6.55
6.80
7.15
7.69
8.36
8.96
9.25
9.06
8.35
7.24
5.94
4.64
3.46
2.40
1.39
0.36
-0.73
-1.83
-2.83
-3.67
-4.37
-5.04
-5.82
-6.76
-7.79
-8.63
-8.96
-8.47
-7.06
-4.89
-2.25
0.44
2.87
4.83
6.26
7.10
7.34
6.97
6.04
4.76
3.42
2.33
1.69
1.56
1.83
2.30
2.82
3.30
3.69
3.95
4.04
3.87
3.43
2.75
1.88
0.88
-0.26
-1.56
-3.07
-4.79
-6.68
-8.64
-10.57
-12.37
-13.90
-15.05
-15.65
-15.55
-14.63
-12.85
-10.27
-7.10
-3.64
-0.26
2.65
4.83
6.22
6.98
7.37
7.66
7.94
8.15
8.14
7.78
7.15
6.48
6.07
6.10
6.53
7.12
7.53
7.50
6.99
6.15
5.21
4.32
3.52
2.64
1.52
0.10
-1.53
-3.13
-4.47
-5.46
-6.17
-6.87
-7.77
-8.87
-9.96
-10.63
-10.47
-9.27
-7.07
-4.18
-1.00
2.08
4.79
6.97
8.54
9.47
9.75
9.43
8.65
7.60
6.53
5.66
5.15
5.06
5.39
6.03
6.82
7.55
8.05
8.16
7.84
7.14
6.15
4.98
3.71
2.41
1.10
-0.14
-1.24
-2.12
-2.77
-3.26
-3.75
-4.46
-5.53
-6.99
-8.62
-10.10
-11.02
-11.05
-10.09
-8.26
-5.90
-3.41
-1.16
0.64
1.93
2.80
3.35
3.67
3.80
3.78
3.65
3.54
3.58
3.88
4.43
5.10
5.73
6.12
6.20
6.01
5.63
5.16
4.64
4.04
3.27
2.29
1.04
-0.47
-2.21
-4.12
-6.10
-8.01
-9.74
-11.14
-12.17
-12.84
-13.20
-13.28
-13.02
-12.33
-11.07
-9.18
-6.74
-3.99
-1.21
1.30
3.39
5.02
6.20
6.99
7.38
7.34
6.93
6.32
5.78
5.57
5.76
6.22
6.65
6.77
6.48
5.91
5.35
5.03
4.99
5.07
4.93
4.35
3.31
2.02
0.84
0.00
-0.46
-0.77
-1.29
-2.31
-3.89
-5.86
-7.86
-9.57
-10.78
-11.40
-11.38
-10.68
-9.19
-6.94
-4.06
-0.91
2.08
4.56
6.38
7.61
8.46
9.07
9.46
9.49
9.07
8.20
7.08
6.03
5.34
5.16
5.41
5.87
6.29
6.50
6.48
6.30
6.09
5.85
5.50
4.91
3.98
2.77
1.46
0.27
-0.63
-1.27
-1.86
-2.65
-3.82
-5.34
-7.00
-8.50
-9.57
-10.12
-10.21
-9.93
-9.33
-8.31
-6.72
-4.50
-1.78
1.09
3.60
5.35
6.17
6.20
5.79
5.29
4.89
4.55
4.12
3.50
2.76
2.15
1.97
2.38
3.27
4.27
4.94
4.97
4.35
3.34
2.27
1.41
0.85
0.42
-0.07
-0.72
-1.50
-2.26
-2.86
-3.29
-3.66
-4.16
-4.90
-5.87
-6.90
-7.73
-8.11
-7.85
-6.86
-5.17
-2.95
-0.45
2.01
4.13
5.71
6.67
7.07
7.01
6.58
5.82
4.79
3.60
2.49
1.72
1.49
1.82
2.51
3.23
3.69
3.75
3.46
3.00
2.52
2.09
1.65
1.08
0.29
-0.75
-1.98
-3.30
-4.61
-5.80
-6.81
-7.62
-8.28
-8.87
-9.51
-10.23
-10.99
-11.66
-12.00
-11.79
-10.88
-9.23
-6.97
-4.33
-1.57
1.03
3.27
5.04
6.31
7.06
7.32
7.16
6.66
5.98
5.31
4.86
4.74
4.95
5.38
5.84
6.14
6.13
5.82
5.31
4.74
4.24
3.80
3.37
2.81
2.02
1.01
-0.12
-1.21
-2.12
-2.82
-3.38
-3.89
-4.46
-5.14
-5.89
-6.67
-7.44
-8.15
-8.71
-9.00
-8.85
-8.11
-6.74
-4.83
-2.60
-0.31
1.80
3.64
5.14
6.27
6.95
7.06
6.53
5.45
4.06
2.77
1.93
1.70
2.00
2.53
2.97
3.09
2.89
2.51
2.10
1.77
1.45
1.04
0.45
-0.31
-1.15
-1.94
-2.63
-3.24
-3.84
-4.50
-5.21
-5.89
-6.47
-6.92
-7.28
-7.61
-7.98
-8.36
-8.63
-8.64
-8.22
-7.28
-5.81
-3.88
-1.62
0.75
2.95
4.75
5.94
6.49
6.53
6.25
5.81
5.33
4.82
4.26
3.70
3.27
3.15
3.40
3.98
4.68
5.25
5.53
5.47
5.14
4.68
4.15
3.55
2.82
1.91
0.81
-0.38
-1.55
-2.55
-3.30
-3.80
-4.17
-4.59
-5.28
-6.36
-7.80
-9.36
-10.67
-11.32
-11.03
-9.72
-7.58
-4.96
-2.25
0.27
2.42
4.12
5.37
6.13
6.37
6.13
5.51
4.70
3.90
3.25
2.84
2.66
2.66
2.83
3.17
3.65
4.18
4.61
4.79
4.65
4.21
3.59
2.94
2.33
1.74
1.08
0.29
-0.64
-1.62
-2.52
-3.22
-3.70
-4.08
-4.50
-5.13
-6.02
-7.13
-8.23
-9.12
-9.53
-9.31
-8.42
-6.89
-4.86
-2.49
0.00
2.37
4.38
5.86
6.72
6.97
6.76
6.21
5.45
4.56
3.57
2.57
1.70
1.15
1.08
1.52
2.34
3.22
3.82
3.93
3.54
2.87
2.23
1.86
1.83
1.90
1.81
1.33
0.46
-0.60
-1.53
-2.11
-2.33
-2.46
-2.84
-3.70
-5.04
-6.58
-7.91
-8.71
-8.83
-8.39
-7.60
-6.64
-5.56
-4.32
-2.84
-1.11
0.76
2.58
4.16
5.36
6.12
6.42
6.26
5.70
4.89
4.06
3.52
3.51
4.05
5.00
6.02
6.78
7.11
7.05
6.75
6.38
6.01
5.55
4.85
3.84
2.53
1.09
-0.29
-1.44
-2.28
-2.83
-3.16
-3.39
-3.59
-3.80
-4.05
-4.35
-4.73
-5.19
-5.68
-6.05
-6.05
-5.44
-4.07
-1.95
0.66
3.41
5.90
7.82
8.98
9.36
9.07
8.28
7.21
6.05
4.96
4.05
3.40
3.03
2.94
3.08
3.34
3.60
3.81
3.94
4.02
4.11
4.17
4.14
3.87
3.26
2.31
1.09
-0.20
-1.39
-2.34
-3.00
-3.43
-3.70
-3.91
-4.17
-4.56
-5.13
-5.88
-6.76
-7.60
-8.21
-8.39
-7.98
-6.95
-5.33
-3.29
-1.07
1.02
2.69
3.72
4.02
3.67
2.90
2.00
1.23
0.72
0.45
0.36
0.39
0.54
0.85
1.30
1.81
2.19
2.23
1.84
1.02
-0.08
-1.29
-2.44
-3.49
-4.40
-5.23
-5.94
-6.52
-6.87
-6.94
-6.73
-6.32
-5.93
-5.77
-6.05
-6.78
-7.73
-8.56
-8.85
-8.37
-7.09
-5.16
-2.86
-0.41
1.96
4.07
5.71
6.70
6.96
6.56
5.80
5.00
4.43
4.11
3.92
3.65
3.17
2.49
1.78
1.22
0.93
0.82
0.70
0.36
-0.31
-1.20
-2.09
-2.74
-3.02
-3.06
-3.12
-3.45
-4.16
-5.07
-5.84
-6.13
-5.80
-5.11
-4.52
-4.50
-5.17
-6.29
-7.25
-7.47
-6.57
-4.67
-2.18
0.38
2.65
4.52
6.07
7.40
8.47
9.06
8.95
8.08
6.63
4.97
3.55
2.69
2.48
2.77
3.25
3.61
3.65
3.37
2.88
2.33
1.86
1.47
1.10
0.63
-0.03
-0.91
-1.97
-3.08
-4.13
-5.00
-5.61
-5.98
-6.17
-6.31
-6.56
-7.01
-7.65
-8.37
-8.95
-9.17
-8.88
-8.05
-6.75
-5.12
-3.28
-1.34
0.61
2.46
4.04
5.20
5.78
5.77
5.26
4.49
3.68
3.03
2.59
2.32
2.18
2.12
2.16
2.35
2.69
3.10
3.39
3.36
2.86
1.87
0.54
-0.84
-1.99
-2.76
-3.15
-3.33
-3.51
-3.85
-4.40
-5.12
-5.98
-7.00
-8.18
-9.45
-10.60
-11.26
-11.07
-9.86
-7.71
-4.96
-2.09
0.51
2.64
4.27
5.45
6.25
6.65
6.64
6.21
5.48
4.62
3.82
3.19
2.79
2.56
2.46
2.41
2.40
2.42
2.44
2.43
2.30
1.96
1.35
0.46
-0.63
-1.75
-2.75
-3.51
-3.98
-4.23
-4.33
-4.45
-4.69
-5.10
-5.66
-6.27
-6.79
-7.07
-6.99
-6.49
-5.55
-4.17
-2.43
-0.43
1.66
3.61
5.22
6.33
6.89
6.94
6.62
6.10
5.54
5.07
4.77
4.67
4.72
4.86
4.95
4.96
4.86
4.71
4.56
4.43
4.24
3.88
3.29
2.47
1.55
0.69
-0.02
-0.56
-0.98
-1.40
-1.84
-2.26
-2.58
-2.76
-2.84
-3.01
-3.46
-4.27
-5.34
-6.35
-6.92
-6.75
-5.77
-4.14
-2.17
-0.20
1.56
3.02
4.19
5.03
5.49
5.50
5.05
4.27
3.40
2.71
2.42
2.56
3.01
3.53
3.90
4.00
3.86
3.64
3.48
3.43
3.37
3.13
2.53
1.59
0.45
-0.61
-1.37
-1.78
-1.95
-2.14
-2.55
-3.25
-4.14
-5.02
-5.76
-6.32
-6.77
-7.16
-7.46
-7.51
-7.05
-5.87
-3.98
-1.64
0.71
2.62
3.81
4.29
4.28
4.04
3.76
3.49
3.14
2.63
1.99
1.36
0.94
0.88
1.15
1.59
1.99
2.16
2.09
1.90
1.76
1.74
1.82
1.85
1.66
1.15
0.35
-0.62
-1.59
-2.47
-3.23
-3.88
-4.46
-4.97
-5.41
-5.79
-6.14
-6.48
-6.78
-6.92
-6.74
-6.06
-4.82
-3.07
-1.03
1.01
2.75
4.01
4.70
4.89
4.74
4.40
4.01
3.60
3.13
2.58
2.00
1.55
1.43
1.79
2.61
3.60
4.38
4.63
4.28
3.52
2.73
2.21
2.06
2.09
2.01
1.61
0.93
0.23
-0.17
-0.06
0.49
1.22
1.76
1.79
1.22
0.13
-1.26
-2.68
-3.90
-4.79
-5.24
-5.20
-4.65
-3.59
-2.13
-0.45
1.19
2.56
3.47
3.84
3.69
3.08
2.13
1.01
-0.12
-1.03
-1.56
-1.64
-1.30
-0.71
-0.01
0.66
1.24
1.75
2.16
2.43
2.49
2.29
1.82
1.14
0.35
-0.43
-1.08
-1.54
-1.81
-1.95
-2.10
-2.40
-2.94
-3.71
-4.58
-5.40
-6.03
-6.43
-6.59
-6.50
-6.10
-5.31
-4.10
-2.54
-0.87
0.64
1.81
2.57
3.01
3.26
3.41
3.43
3.23
2.78
2.10
1.36
0.77
0.55
0.78
1.40
2.24
3.06
3.61
3.76
3.49
2.91
2.19
1.42
0.65
-0.12
-0.91
-1.65
-2.26
-2.65
-2.83
-2.91
-3.04
-3.33
-3.78
-4.29
-4.72
-4.97
-5.02
-4.91
-4.71
-4.41
-3.96
-3.25
-2.16
-0.65
1.22
3.27
5.22
6.80
7.79
8.10
7.77
6.91
5.74
4.43
3.16
2.06
1.26
0.85
0.86
1.24
1.82
2.39
2.74
2.78
2.52
2.10
1.65
1.28
0.94
0.56
0.05
-0.61
-1.38
-2.12
-2.73
-3.12
-3.29
-3.30
-3.30
-3.45
-3.86
-4.53
-5.28
-5.88
-6.11
-5.84
-5.10
-4.00
-2.67
-1.23
0.27
1.67
2.75
3.30
3.21
2.56
1.64
0.79
0.27
0.10
0.15
0.23
0.21
0.10
0.02
0.05
0.21
0.35
0.29
-0.12
-0.92
-2.00
-3.13
-4.02
-4.50
-4.57
-4.46
-4.49
-4.87
-5.65
-6.61
-7.47
-8.02
-8.25
-8.32
-8.37
-8.46
-8.42
-8.02
-7.04
-5.43
-3.36
-1.13
0.93
2.56
3.64
4.11
4.05
3.63
3.06
2.47
1.97
1.54
1.14
0.78
0.57
0.63
1.07
1.86
2.82
3.72
4.33
4.58
4.56
4.42
4.30
4.24
4.17
3.96
3.52
2.87
2.09
1.35
0.72
0.21
-0.30
-0.96
-1.82
-2.84
-3.80
-4.46
-4.57
-4.03
-2.90
-1.34
0.40
2.07
3.47
4.46
5.05
5.29
5.33
5.28
5.19
5.01
4.67
4.16
3.57
3.06
2.85
3.03
3.55
4.22
4.79
5.07
4.95
4.43
3.60
2.55
1.35
0.09
-1.13
-2.16
-2.87
-3.16
-3.09
-2.87
-2.78
-3.08
-3.88
-5.06
-6.32
-7.31
-7.76
-7.59
-6.89
-5.83
-4.59
-3.30
-2.06
-0.96
-0.10
0.42
0.56
0.36
-0.01
-0.31
-0.35
-0.06
0.53
1.25
1.92
2.44
2.77
2.97
3.11
3.21
3.21
3.06
2.71
2.23
1.72
1.27
0.90
0.51
-0.04
-0.86
-1.95
-3.18
-4.33
-5.22
-5.78
-6.10
-6.32
-6.60
-6.96
-7.26
-7.31
-6.85
-5.77
-4.08
-1.94
0.37
2.53
4.27
5.40
5.89
5.81
5.34
4.68
4.02
3.45
3.04
2.79
2.72
2.83
3.10
3.46
3.80
3.99
3.93
3.58
3.02
2.36
1.75
1.29
0.95
0.64
0.19
-0.45
-1.24
-2.01
-2.55
-2.74
-2.63
-2.45
-2.44
-2.75
-3.32
-3.85
-4.02
-3.59
-2.51
-0.98
0.73
2.34
3.71
4.82
5.73
6.45
6.94
7.11
6.86
6.21
5.36
4.54
3.99
3.82
3.98
4.28
4.54
4.67
4.68
4.65
4.66
4.66
4.56
4.18
3.46
2.43
1.24
0.10
-0.82
-1.46
-1.86
-2.12
-2.34
-2.55
-2.76
-2.97
-3.25
-3.68
-4.32
-5.09
-5.77
-6.04
-5.63
-4.45
-2.69
-0.67
1.22
2.73
3.81
4.54
5.04
5.32
5.31
4.91
4.07
2.90
1.64
0.61
0.06
0.10
0.62
1.36
2.02
2.39
2.44
2.23
1.86
1.37
0.72
-0.14
-1.19
-2.24
-3.07
-3.49
-3.52
-3.38
-3.38
-3.74
-4.48
-5.45
-6.38
-7.09
-7.52
-7.70
-7.67
-7.41
-6.82
-5.87
-4.60
-3.20
-1.93
-0.99
-0.44
-0.21
-0.13
-0.04
0.16
0.49
0.89
1.30
1.69
2.12
2.68
3.51
4.62
5.91
7.15
8.07
8.51
8.48
8.13
7.68
7.26
6.82
6.15
5.03
3.37
1.36
-0.69
-2.41
-3.61
-4.34
-4.88
-5.54
-6.53
-7.88
-9.39
-10.76
-11.69
-11.93
-11.38
-10.08
-8.16
-5.88
-3.55
-1.45
0.22
1.35
2.00
2.26
2.27
2.14
1.94
1.74
1.59
1.56
1.70
2.00
2.41
2.79
3.03
3.07
3.01
3.01
3.25
3.80
4.57
5.37
5.98
6.26
6.25
6.07
5.86
5.69
5.51
5.26
4.83
4.19
3.32
2.28
1.08
-0.21
-1.55
-2.86
-4.01
-4.89
-5.35
-5.32
-4.77
-3.80
-2.58
-1.36
-0.38
0.17
0.20
-0.27
-1.10
-2.09
-3.01
-3.64
-3.86
-3.63
-3.05
-2.27
-1.45
-0.70
-0.10
0.31
0.55
0.62
0.58
0.50
0.45
0.49
0.59
0.69
0.67
0.46
0.07
-0.41
-0.88
-1.28
-1.61
-1.98
-2.52
-3.30
-4.20
-4.98
-5.30
-4.91
-3.74
-2.02
-0.15
1.50
2.68
3.37
3.71
3.89
4.00
4.02
3.89
3.58
3.16
2.74
2.42
2.26
2.23
2.23
2.22
2.17
2.15
2.25
2.52
2.94
3.35
3.55
3.32
2.55
1.34
-0.10
-1.48
-2.59
-3.40
-4.00
-4.57
-5.24
-6.00
-6.75
-7.36
-7.76
-7.90
-7.80
-7.43
-6.71
-5.54
-3.88
-1.84
0.32
2.28
3.71
4.46
4.56
4.25
3.79
3.36
3.01
2.68
2.34
2.03
1.88
2.03
2.52
3.16
3.68
3.81
3.44
2.72
1.95
1.45
1.33
1.43
1.44
1.02
0.07
-1.24
-2.51
-3.33
-3.46
-3.05
-2.46
-2.12
-2.32
-3.02
-3.96
-4.76
-5.11
-4.93
-4.35
-3.56
-2.67
-1.70
-0.55
0.84
2.44
4.01
5.27
5.95
5.97
5.44
4.62
3.83
3.34
3.27
3.53
3.93
4.23
4.30
4.14
3.93
3.86
4.02
4.37
4.71
4.81
4.54
3.95
3.15
2.36
1.70
1.19
0.77
0.39
-0.02
-0.45
-0.85
-1.19
-1.46
-1.70
-2.01
-2.51
-3.22
-4.03
-4.68
-4.82
-4.21
-2.86
-1.00
0.95
2.60
3.71
4.31
4.54
4.58
4.48
4.22
3.70
2.90
1.90
0.91
0.14
-0.23
-0.20
0.14
0.56
0.90
1.04
0.99
0.84
0.65
0.43
0.09
-0.48
-1.31
-2.34
-3.38
-4.18
-4.60
-4.64
-4.49
-4.42
-4.64
-5.27
-6.19
-7.17
-7.90
-8.14
-7.77
-6.80
-5.35
-3.60
-1.71
0.12
1.69
2.84
3.45
3.51
3.12
2.46
1.73
1.15
0.84
0.85
1.11
1.49
1.82
1.99
1.95
1.80
1.63
1.51
1.40
1.19
0.75
0.07
-0.72
-1.45
-1.98
-2.29
-2.47
-2.63
-2.81
-2.95
-2.99
-2.90
-2.74
-2.62
-2.70
-3.01
-3.46
-3.86
-3.92
-3.45
-2.39
-0.86
0.87
2.49
3.76
4.63
5.14
5.38
5.36
5.02
4.30
3.25
2.07
1.09
0.62
0.78
1.50
2.47
3.37
3.89
3.92
3.48
2.71
1.84
1.02
0.35
-0.18
-0.66
-1.17
-1.74
-2.31
-2.78
-3.08
-3.23
-3.32
-3.49
-3.85
-4.43
-5.14
-5.80
-6.20
-6.16
-5.65
-4.80
-3.81
-2.89
-2.08
-1.30
-0.37
0.79
2.08
3.20
3.84
3.84
3.31
2.59
2.02
1.80
1.92
2.20
2.48
2.67
2.83
3.07
3.45
3.89
4.26
4.34
3.97
3.15
2.04
0.93
0.09
-0.29
-0.26
-0.04
0.04
-0.28
-1.05
-2.16
-3.37
-4.44
-5.20
-5.59
-5.56
-5.07
-4.11
-2.71
-1.01
0.77
2.35
3.49
4.07
4.07
3.60
2.85
1.99
1.20
0.58
0.20
0.08
0.20
0.48
0.84
1.12
1.23
1.10
0.78
0.35
-0.11
-0.53
-0.94
-1.36
-1.81
-2.29
-2.77
-3.24
-3.67
-4.06
-4.42
-4.77
-5.17
-5.67
-6.29
-6.98
-7.57
-7.83
-7.58
-6.76
-5.50
-4.01
-2.49
-1.01
0.45
1.98
3.55
4.97
6.02
6.50
6.39
5.87
5.17
4.55
4.06
3.65
3.20
2.67
2.20
1.98
2.20
2.85
3.62
4.12
4.00
3.18
1.92
0.68
-0.13
-0.29
-0.00
0.35
0.40
-0.02
-0.78
-1.60
-2.21
-2.53
-2.68
-2.88
-3.22
-3.62
-3.83
-3.58
-2.79
-1.56
-0.17
1.10
2.07
2.74
3.22
3.56
3.78
3.79
3.53
3.03
2.42
1.89
1.58
1.54
1.71
2.00
2.32
2.65
2.97
3.27
3.48
3.51
3.32
2.94
2.47
2.00
1.60
1.24
0.86
0.39
-0.17
-0.77
-1.36
-1.88
-2.34
-2.81
-3.32
-3.87
-4.41
-4.82
-5.02
-4.94
-4.64
-4.25
-3.92
-3.79
-3.89
-4.13
-4.37
-4.47
-4.37
-4.12
-3.81
-3.55
-3.32
-3.03
-2.57
-1.87
-1.01
-0.20
0.37
0.58
0.47
0.25
0.11
0.18
0.40
0.58
0.45
-0.12
-1.13
-2.40
-3.70
-4.85
-5.76
-6.46
-7.05
-7.59
-8.14
-8.64
-8.97
-8.97
-8.47
-7.38
-5.69
-3.49
-0.97
1.63
4.06
6.12
7.63
8.53
8.84
8.66
8.12
7.39
6.57
5.76
5.04
4.46
4.10
3.96
4.01
4.17
4.32
4.39
4.34
4.17
3.88
3.48
2.96
2.37
1.76
1.20
0.77
0.49
0.33
0.19
-0.06
-0.56
-1.40
-2.60
-4.01
-5.36
-6.36
-6.75
-6.43
-5.45
-4.01
-2.30
-0.47
1.40
3.26
5.03
6.57
7.75
8.42
8.49
7.98
7.00
5.71
4.36
3.15
2.30
1.87
1.85
2.11
2.53
3.02
3.55
4.15
4.79
5.36
5.61
5.33
4.40
2.92
1.19
-0.41
-1.59
-2.33
-2.84
-3.43
-4.34
-5.55
-6.77
-7.63
-7.83
-7.38
-6.51
-5.53
-4.65
-3.81
-2.81
-1.42
0.37
2.32
4.01
5.07
5.31
4.82
3.89
2.84
1.91
1.17
0.62
0.16
-0.22
-0.51
-0.67
-0.66
-0.46
-0.08
0.43
1.00
1.51
1.89
2.09
2.11
1.99
1.79
1.49
1.05
0.41
-0.47
-1.56
-2.76
-3.92
-4.96
-5.82
-6.51
-7.04
-7.36
-7.36
-6.87
-5.76
-4.04
-1.83
0.54
2.72
4.39
5.42
5.88
5.98
5.97
6.01
6.09
6.11
5.92
5.51
4.96
4.48
4.26
4.38
4.81
5.38
5.91
6.28
6.45
6.50
6.54
6.67
6.89
7.12
7.20
6.99
6.46
5.70
4.87
4.11
3.42
2.66
1.62
0.11
-1.88
-4.19
-6.50
-8.48
-9.86
-10.47
-10.33
-9.53
-8.26
-6.73
-5.10
-3.49
-1.96
-0.60
0.49
1.18
1.38
1.13
0.60
0.09
-0.15
-0.03
0.40
0.94
1.45
1.85
2.22
2.66
3.17
3.67
4.01
4.03
3.69
3.09
2.41
1.82
1.44
1.23
1.07
0.80
0.29
-0.48
-1.39
-2.28
-3.05
-3.65
-4.19
-4.77
-5.40
-5.94
-6.10
-5.65
-4.51
-2.86
-1.10
0.36
1.27
1.64
1.69
1.71
1.91
2.27
2.63
2.77
2.59
2.15
1.65
1.31
1.23
1.37
1.56
1.63
1.54
1.34
1.20
1.23
1.40
1.55
1.45
0.96
0.11
-0.90
-1.80
-2.41
-2.72
-2.92
-3.26
-3.93
-4.92
-6.06
-7.10
-7.82
-8.09
-7.93
-7.40
-6.55
-5.40
-3.98
-2.35
-0.70
0.75
1.73
2.11
1.88
1.21
0.41
-0.22
-0.48
-0.33
0.15
0.78
1.39
1.91
2.33
2.68
2.97
3.17
3.22
3.05
2.69
2.19
1.62
1.07
0.52
-0.07
-0.73
-1.46
-2.22
-2.92
-3.47
-3.80
-3.91
-3.89
-3.87
-3.97
-4.24
-4.64
-4.98
-5.00
-4.50
-3.39
-1.77
0.08
1.80
3.09
3.80
4.00
3.86
3.57
3.30
3.05
2.84
2.66
2.60
2.77
3.22
3.89
4.60
5.10
5.22
4.97
4.50
4.03
3.67
3.43
3.17
2.73
2.05
1.22
0.41
-0.21
-0.58
-0.77
-0.93
-1.24
-1.75
-2.39
-3.04
-3.57
-3.91
-4.14
-4.40
-4.75
-5.18
-5.51
-5.55
-5.17
-4.37
-3.29
-2.09
-0.91
0.16
1.07
1.69
1.90
1.62
0.91
-0.03
-0.86
-1.28
-1.18
-0.63
0.12
0.85
1.41
1.80
2.09
2.39
2.73
3.01
3.06
2.75
2.05
1.11
0.19
-0.49
-0.79
-0.84
-0.86
-1.12
-1.70
-2.52
-3.35
-4.01
-4.43
-4.73
-5.03
-5.40
-5.73
-5.77
-5.30
-4.23
-2.63
-0.78
0.96
2.28
3.02
3.18
2.92
2.42
1.85
1.31
0.80
0.32
-0.12
-0.44
-0.55
-0.41
-0.07
0.36
0.74
1.02
1.14
1.12
0.95
0.58
0.00
-0.74
-1.51
-2.17
-2.63
-2.90
-3.16
-3.55
-4.20
-5.03
-5.86
-6.49
-6.80
-6.85
-6.80
-6.80
-6.89
-6.93
-6.69
-5.98
-4.76
-3.16
-1.42
0.26
1.73
2.98
4.03
4.88
5.43
5.58
5.25
4.48
3.45
2.41
1.63
1.29
1.43
1.99
2.78
3.63
4.35
4.87
5.13
5.14
4.91
4.45
3.78
3.00
2.20
1.50
0.96
0.55
0.17
-0.29
-0.89
-1.59
-2.27
-2.84
-3.29
-3.67
-4.07
-4.52
-4.93
-5.13
-4.94
-4.25
-3.06
-1.53
0.12
1.68
3.01
4.06
4.83
5.40
5.79
5.97
5.87
5.45
4.73
3.88
3.14
2.77
2.88
3.40
4.10
4.69
4.95
4.83
4.42
3.88
3.31
2.72
2.05
1.25
0.33
-0.62
-1.44
-2.07
-2.47
-2.73
-3.00
-3.35
-3.82
-4.36
-4.91
-5.45
-6.00
-6.56
-7.04
-7.26
-6.94
-5.89
-4.12
-1.92
0.28
2.02
3.09
3.50
3.50
3.38
3.28
3.16
2.82
2.12
1.14
0.14
-0.52
-0.61
-0.14
0.54
1.04
1.07
0.62
-0.07
-0.65
-0.96
-1.01
-1.08
-1.47
-2.34
-3.60
-4.97
-6.06
-6.62
-6.60
-6.25
-5.98
-6.17
-6.97
-8.19
-9.41
-10.15
-10.06
-9.15
-7.68
-5.99
-4.34
-2.76
-1.16
0.51
2.21
3.70
4.75
5.21
5.13
4.68
4.10
3.57
3.21
3.04
3.07
3.25
3.53
3.80
3.95
3.90
3.65
3.28
2.88
2.53
2.22
1.87
1.38
0.69
-0.14
-1.00
-1.73
-2.23
-2.56
-2.84
-3.24
-3.90
-4.79
-5.79
-6.70
-7.31
-7.50
-7.19
-6.39
-5.13
-3.47
-1.52
0.58
2.68
4.54
5.97
6.78
6.90
6.43
5.57
4.63
3.88
3.47
3.37
3.45
3.55
3.58
3.57
3.63
3.83
4.18
4.53
4.68
4.49
3.87
2.95
1.88
0.87
0.03
-0.66
-1.31
-2.06
-2.95
-3.96
-5.02
-6.04
-7.01
-7.95
-8.84
-9.57
-9.90
-9.55
-8.33
-6.28
-3.68
-1.00
1.35
3.09
4.20
4.85
5.28
5.60
5.83
5.84
5.49
4.79
3.94
3.27
3.09
3.50
4.35
5.28
5.88
5.96
5.60
5.05
4.59
4.25
3.90
3.26
2.19
0.78
-0.64
-1.75
-2.38
-2.64
-2.90
-3.54
-4.75
-6.39
-8.04
-9.19
-9.45
-8.71
-7.14
-5.09
-2.92
-0.86
0.95
2.48
3.68
4.46
4.77
4.60
4.08
3.40
2.77
2.35
2.18
2.25
2.47
2.74
2.97
3.11
3.17
3.22
3.30
3.41
3.48
3.34
2.88
2.08
1.08
0.09
-0.72
-1.25
-1.61
-1.95
-2.48
-3.29
-4.34
-5.48
-6.50
-7.21
-7.46
-7.15
-6.24
-4.77
-2.83
-0.61
1.65
3.69
5.25
6.21
6.57
6.45
6.04
5.50
4.96
4.44
3.98
3.58
3.31
3.19
3.24
3.47
3.81
4.24
4.70
5.12
5.40
5.40
5.04
4.32
3.32
2.22
1.17
0.24
-0.59
-1.35
-2.08
-2.75
-3.35
-3.85
-4.35
-4.94
-5.66
-6.44
-7.08
-7.26
-6.72
-5.37
-3.33
-0.93
1.39
3.24
4.39
4.82
4.73
4.39
4.00
3.67
3.35
3.01
2.64
2.36
2.27
2.40
2.67
2.92
2.99
2.86
2.60
2.36
2.21
2.12
1.97
1.64
1.12
0.49
-0.16
-0.79
-1.45
-2.23
-3.15
-4.14
-5.05
-5.71
-6.04
-6.05
-5.83
-5.43
-4.84
-4.00
-2.81
-1.26
0.51
2.26
3.70
4.63
4.96
4.75
4.20
3.51
2.84
2.21
1.63
1.07
0.62
0.41
0.55
1.05
1.72
2.27
2.45
2.16
1.53
0.81
0.25
-0.07
-0.30
-0.70
-1.45
-2.56
-3.79
-4.78
-5.27
-5.23
-4.92
-4.78
-5.13
-6.03
-7.23
-8.26
-8.64
-8.12
-6.72
-4.67
-2.29
0.11
2.32
4.17
5.56
6.40
6.68
6.46
5.91
5.24
4.63
4.20
3.98
3.98
4.16
4.52
4.95
5.35
5.58
5.55
5.23
4.73
4.21
3.78
3.48
3.19
2.78
2.13
1.24
0.28
-0.53
-1.01
-1.13
-1.02
-0.92
-1.07
-1.60
-2.48
-3.50
-4.40
-4.91
-4.90
-4.32
-3.26
-1.88
-0.32
1.26
2.74
3.99
4.86
5.22
5.06
4.43
3.52
2.60
1.87
1.47
1.41
1.60
1.91
2.25
2.57
2.86
3.12
3.32
3.38
3.25
2.85
2.19
1.36
0.50
-0.29
-0.89
-1.34
-1.69
-2.05
-2.48
-3.00
-3.56
-4.13
-4.69
-5.24
-5.78
-6.25
-6.58
-6.61
-6.24
-5.39
-4.09
-2.43
-0.61
1.16
2.65
3.70
4.22
4.26
3.90
3.31
2.67
2.09
1.68
1.45
1.38
1.45
1.59
1.77
1.91
1.96
1.87
1.61
1.23
0.80
0.39
0.01
-0.40
-0.95
-1.68
-2.53
-3.34
-3.93
-4.20
-4.25
-4.31
-4.58
-5.16
-5.93
-6.68
-7.19
-7.34
-7.11
-6.57
-5.76
-4.67
-3.24
-1.53
0.35
2.12
3.50
4.30
4.49
4.26
3.88
3.55
3.35
3.18
2.89
2.45
1.97
1.70
1.85
2.46
3.38
4.37
5.21
5.87
6.46
7.12
7.83
8.40
8.52
7.98
6.78
5.17
3.56
2.30
1.54
1.09
0.63
-0.16
-1.40
-2.98
-4.61
-6.02
-7.04
-7.73
-8.20
-8.49
-8.49
-7.99
-6.77
-4.85
-2.50
-0.21
1.56
2.53
2.74
2.45
1.97
1.58
1.36
1.28
1.23
1.14
0.96
0.73
0.50
0.34
0.32
0.45
0.71
1.02
1.26
1.34
1.23
0.95
0.59
0.20
-0.19
-0.62
-1.11
-1.66
-2.22
-2.70
-3.03
-3.20
-3.28
-3.38
-3.65
-4.17
-4.93
-5.84
-6.67
-7.19
-7.19
-6.56
-5.33
-3.68
-1.86
-0.12
1.35
2.44
3.12
3.41
3.32
2.93
2.33
1.68
1.11
0.76
0.66
0.81
1.10
1.43
1.71
1.84
1.76
1.47
1.03
0.58
0.26
0.11
0.12
0.17
0.15
-0.02
-0.30
-0.65
-1.01
-1.38
-1.79
-2.29
-2.89
-3.56
-4.27
-5.00
-5.72
-6.39
-6.93
-7.21
-7.10
-6.50
-5.43
-3.98
-2.30
-0.60
0.95
2.23
3.18
3.82
4.21
4.41
4.46
4.35
4.07
3.69
3.33
3.18
3.36
3.86
4.48
4.96
5.11
4.88
4.44
4.01
3.75
3.67
3.64
3.50
3.17
2.68
2.12
1.56
1.00
0.37
-0.37
-1.26
-2.21
-3.14
-3.92
-4.55
-5.06
-5.55
-6.09
-6.71
-7.33
-7.80
-7.94
-7.56
-6.58
-5.04
-3.09
-0.99
0.96
2.58
3.77
4.51
4.86
4.86
4.53
3.94
3.20
2.47
1.93
1.69
1.76
2.06
2.45
2.83
3.12
3.29
3.30
3.14
2.80
2.32
1.74
1.11
0.43
-0.29
-1.06
-1.84
-2.57
-3.19
-3.71
-4.21
-4.80
-5.51
-6.30
-7.06
-7.72
-8.24
-8.68
-9.06
-9.29
-9.21
-8.61
-7.38
-5.59
-3.46
-1.28
0.63
2.09
3.02
3.44
3.42
3.06
2.49
1.82
1.20
0.73
0.52
0.63
1.08
1.81
2.66
3.42
3.87
3.90
3.53
2.92
2.26
1.72
1.40
1.25
1.18
1.06
0.81
0.39
-0.19
-0.87
-1.57
-2.23
-2.82
-3.35
-3.85
-4.35
-4.88
-5.45
-6.05
-6.64
-7.16
-7.49
-7.46
-6.89
-5.67
-3.87
-1.68
0.53
2.44
3.81
4.62
4.97
5.06
5.03
4.92
4.71
4.40
4.04
3.78
3.73
3.91
4.29
4.73
5.16
5.58
6.04
6.54
6.98
7.16
6.88
6.08
4.88
3.58
2.46
1.71
1.29
1.04
0.74
0.26
-0.38
-1.07
-1.69
-2.20
-2.69
-3.33
-4.24
-5.41
-6.71
-7.85
-8.55
-8.61
-8.05
-6.99
-5.64
-4.17
-2.66
-1.10
0.52
2.13
3.57
4.59
4.99
4.71
3.91
2.90
2.08
1.73
1.96
2.66
3.57
4.41
4.99
5.24
5.18
4.94
4.64
4.35
4.09
3.82
3.46
2.92
2.18
1.23
0.15
-0.98
-2.05
-2.93
-3.57
-3.92
-4.02
-3.99
-4.03
-4.31
-4.95
-5.94
-7.09
-8.09
-8.59
-8.34
-7.21
-5.31
-2.95
-0.51
1.63
3.24
4.23
4.66
4.66
4.39
3.96
3.46
2.93
2.41
1.94
1.60
1.52
1.77
2.37
3.23
4.09
4.67
4.76
4.31
3.48
2.55
1.78
1.28
1.00
0.72
0.26
-0.42
-1.24
-1.99
-2.51
-2.75
-2.86
-3.02
-3.44
-4.18
-5.18
-6.31
-7.43
-8.40
-9.16
-9.59
-9.57
-8.94
-7.58
-5.53
-2.98
-0.28
2.21
4.14
5.36
5.86
5.82
5.47
5.04
4.70
4.52
4.54
4.73
5.07
5.52
6.00
6.45
6.78
6.94
6.96
6.92
6.88
6.87
6.79
6.47
5.80
4.79
3.59
2.45
1.58
1.04
0.73
0.45
0.05
-0.53
-1.22
-1.95
-2.64
-3.30
-3.98
-4.70
-5.47
-6.24
-6.93
-7.39
-7.46
-7.00
-5.96
-4.44
-2.62
-0.76
0.93
2.32
3.38
4.09
4.43
4.37
3.95
3.28
2.55
1.95
1.65
1.72
2.16
2.87
3.71
4.51
5.10
5.37
5.31
5.00
4.57
4.15
3.80
3.51
3.18
2.76
2.22
1.54
0.72
-0.23
-1.26
-2.28
-3.15
-3.75
-4.06
-4.23
-4.50
-5.11
-6.11
-7.31
-8.34
-8.82
-8.55
-7.66
-6.46
-5.29
-4.25
-3.18
-1.83
-0.04
2.07
4.05
5.36
5.68
5.04
3.82
2.58
1.72
1.41
1.53
1.84
2.13
2.30
2.40
2.49
2.65
2.87
3.09
3.16
2.97
2.44
1.57
0.45
-0.75
-1.86
-2.76
-3.41
-3.90
-4.38
-4.96
-5.72
-6.61
-7.54
-8.42
-9.23
-10.05
-11.00
-12.14
-13.44
-14.69
-15.55
-15.73
-15.07
-13.65
-11.78
-9.87
-8.28
-7.21
-6.61
-6.26
-5.90
-5.37
-4.66
-3.87
-3.09
-2.32
-1.38
-0.04
1.91
4.46
7.37
10.25
12.70
14.46
15.53
16.05
16.21
16.12
15.74
15.03
13.99
12.74
11.48
10.38
9.46
8.60
7.66
6.53
5.23
3.90
2.68
1.62
0.68
-0.26
-1.30
-2.46
-3.71
-4.94
-5.99
-6.70
-6.89
-6.41
-5.22
-3.43
-1.29
0.86
2.74
4.17
5.06
5.47
5.46
5.13
4.58
3.91
3.29
2.84
2.65
2.72
2.97
3.28
3.55
3.75
3.91
4.09
4.29
4.48
4.53
4.36
3.92
3.25
2.50
1.83
1.36
1.13
1.06
0.97
0.70
0.16
-0.59
-1.45
-2.29
-3.07
-3.87
-4.82
-6.05
-7.57
-9.25
-10.87
-12.23
-13.18
-13.72
-13.92
-13.89
-13.71
-13.46
-13.25
-13.19
-13.42
-14.10
-15.29
-16.97
-19.00
-21.20
-23.33
-25.22
-26.70
-27.69
-28.15
-28.07
-27.45
-26.29
-24.57
-22.26
-19.36
-15.91
-12.06
-7.99
-3.90
0.09
4.01
7.95
12.04
16.25
20.48
24.55
28.27
31.58
34.53
37.23
39.78
42.14
44.07
45.33
45.80
45.60
45.00
44.37
44.06
44.18
44.61
44.99
45.02
44.52
43.48
41.95
39.95
37.52
34.66
31.29
27.22
22.56
17.58
12.61
7.83
3.21
-1.11
-5.03
-8.56
-12.15
-16.02
-20.23
-24.76
-29.64
-34.83
-39.76
-43.68
-46.03
-47.10
-46.93
-45.49
-42.69
-38.60
-33.28
-26.16
-16.60
-4.37
9.45
23.92
38.16
51.47
63.16
69.78
68.82
60.48
51.42
44.01
38.78
34.46
30.73
27.24
23.68
20.30
17.53
15.74
14.41
13.45
12.81
12.37
11.58
9.87
7.23
3.92
0.11
-4.78
-10.76
-17.28
-23.27
-27.60
-29.55
-28.97
-26.57
-23.75
-22.37
-23.35
-26.63
-31.37
-36.56
-41.40
-45.22
-47.57
-48.14
-46.93
-43.98
-39.53
-34.04
-28.23
-22.87
-18.57
-15.74
-14.50
-14.87
-16.62
-19.35
-22.58
-25.74
-28.23
-29.48
-29.06
-26.92
-23.33
-18.85
-14.13
-9.77
-6.16
-3.51
-1.86
-1.14
-1.12
-1.40
-1.42
-0.65
1.29
4.41
8.50
13.17
18.07
22.99
27.82
32.35
36.23
38.97
40.13
39.55
37.41
34.21
30.53
26.83
23.33
20.13
17.26
14.76
12.69
11.04
9.79
8.94
8.64
9.11
10.49
12.57
14.77
16.26
16.34
14.77
11.89
8.43
5.19
2.66
0.96
-0.14
-0.99
-1.83
-2.79
-3.84
-4.91
-5.93
-6.86
-7.65
-8.28
-8.71
-8.96
-9.01
-8.91
-8.73
-8.60
-8.72
-9.27
-10.32
-11.77
-13.28
-14.40
-14.64
-13.73
-11.60
-8.46
-4.68
-0.67
3.21
6.66
9.47
11.40
12.22
11.73
9.85
6.66
2.51
-2.09
-6.46
-10.04
-12.45
-13.73
-14.33
-14.98
-16.45
-19.25
-23.34
-28.18
-32.86
-36.50
-38.59
-39.13
-38.50
-37.23
-35.66
-33.86
-31.75
-29.26
-26.49
-23.74
-21.36
-19.53
-18.27
-17.47
-17.05
-17.09
-17.77
-19.24
-21.51
-24.40
-27.73
-31.32
-35.06
-38.79
-42.22
-44.91
-46.37
-46.24
-44.42
-41.18
-37.01
-32.44
-27.91
-23.59
-19.49
-15.50
-11.54
-7.57
-3.53
0.61
4.96
9.61
14.59
19.81
25.03
29.89
34.00
37.00
38.65
38.95
38.18
36.94
35.93
35.73
36.50
37.86
39.14
39.69
39.26
38.06
36.38
34.37
31.81
28.36
24.00
19.18
14.62
10.85
7.59
3.91
-1.24
-8.22
-16.21
-23.47
-28.15
-29.22
-27.13
-23.36
-19.64
-17.03
-15.43
-13.89
-11.35
-7.39
-2.71
1.30
3.32
2.84
0.53
-2.07
-3.35
-2.41
0.50
4.39
8.13
11.10
13.36
15.32
17.10
18.30
18.12
15.98
12.17
7.93
5.08
5.15
8.61
14.58
21.13
26.06
27.81
25.99
21.33
15.26
9.24
4.24
0.48
-2.35
-4.75
-7.02
-9.14
-10.85
-11.90
-12.16
-11.74
-10.88
-9.77
-8.47
-6.97
-5.24
-3.38
-1.57
-0.07
0.96
1.56
1.93
2.39
3.15
4.28
5.73
7.39
9.23
11.28
13.54
15.86
17.98
19.53
20.28
20.26
19.75
19.16
18.79
18.71
18.77
18.75
18.57
18.31
18.09
17.89
17.42
16.22
13.89
10.32
5.72
0.55
-4.76
-9.87
-14.49
-18.17
-20.29
-20.17
-17.43
-12.30
-5.80
0.61
5.44
7.77
7.49
5.25
2.17
-0.69
-2.68
-3.76
-4.34
-4.93
-5.80
-6.79
-7.39
-7.17
-6.04
-4.40
-2.97
-2.39
-2.91
-4.30
-5.97
-7.33
-7.93
-7.55
-6.15
-3.78
-0.61
2.95
6.30
8.74
9.67
8.87
6.57
3.39
0.12
-2.56
-4.28
-5.09
-5.42
-5.89
-7.01
-8.99
-11.64
-14.49
-16.99
-18.76
-19.67
-19.81
-19.38
-18.55
-17.40
-15.98
-14.31
-12.53
-10.83
-9.47
-8.65
-8.52
-9.04
-9.96
-10.84
-11.27
-11.00
-10.05
-8.71
-7.33
-6.14
-5.11
-4.00
-2.62
-0.96
0.72
1.97
2.43
2.03
1.02
-0.07
-0.73
-0.68
-0.02
0.78
1.09
0.35
-1.64
-4.66
-8.21
-11.72
-14.79
-17.20
-18.90
-19.86
-20.01
-19.25
-17.59
-15.25
-12.62
-10.16
-8.25
-7.05
-6.51
-6.44
-6.60
-6.81
-6.89
-6.63
-5.70
-3.70
-0.30
4.63
10.82
17.59
24.03
29.17
32.33
33.25
32.08
29.34
25.68
21.79
18.29
15.68
14.31
14.29
15.43
17.29
19.20
20.51
20.73
19.77
17.93
15.88
14.48
14.59
16.75
20.99
26.71
32.78
37.93
41.17
42.17
41.38
39.75
38.25
37.49
37.52
38.04
38.63
39.04
39.19
38.96
38.21
36.73
34.47
31.72
29.08
27.26
26.66
27.22
28.36
29.30
29.36
28.26
26.09
23.21
19.95
16.56
13.10
9.54
5.79
1.78
-2.59
-7.35
-12.42
-17.53
-22.36
-26.66
-30.43
-33.95
-37.61
-41.66
-45.98
-50.00
-52.84
-53.63
-51.86
-47.54
-41.29
-33.99
-26.66
-20.06
-14.61
-10.29
-6.89
-4.09
-1.65
0.63
2.95
5.59
8.93
13.31
18.77
25.06
31.58
37.60
42.33
45.19
45.97
44.87
42.57
39.91
37.66
36.17
35.28
34.65
34.09
33.82
34.45
36.64
40.62
45.99
51.74
56.64
59.55
59.70
56.64
50.27
40.78
28.72
14.83
-0.16
-15.78
-31.81
-48.02
-63.84
-78.22
-89.76
-97.21
-99.87
-97.79
-91.70
-82.75
-72.29
-61.70
-52.19
-44.64
-39.41
-36.33
-34.85
-34.39
-34.57
-35.34
-36.67
-38.27
-39.50
-39.59
-38.07
-35.25
-32.10
-29.88
-29.39
-30.51
-32.16
-32.90
-31.69
-28.43
-23.93
-19.47
-16.08
-14.11
-13.32
-13.21
-13.52
-14.32
-15.85
-18.16
-20.90
-23.38
-24.92
-25.17
-24.31
-22.95
-21.90
-21.71
-22.49
-23.81
-24.91
-24.99
-23.60
-20.73
-16.74
-12.14
-7.51
-3.55
-1.17
-1.40
-4.93
-11.43
-19.28
-25.80
-28.25
-25.04
-16.47
-4.63
7.56
17.64
24.49
28.43
30.53
31.78
32.47
32.21
30.39
26.72
21.53
15.64
10.00
5.27
1.63
-1.05
-2.98
-4.14
-4.23
-2.85
0.07
4.09
8.20
11.12
11.80
9.81
5.51
-0.20
-6.16
-11.42
-15.47
-18.20
-19.62
-19.67
-18.08
-14.70
-9.88
-4.82
-1.31
-1.09
-4.88
-11.86
-19.88
-26.37
-29.45
-28.71
-25.02
-19.77
-14.04
-8.17
-2.05
4.37
10.68
16.19
20.34
23.18
25.32
27.43
29.69
31.51
31.94
30.35
26.98
23.04
20.10
19.21
20.29
22.07
22.80
21.09
16.65
10.43
4.20
-0.13
-1.15
1.66
7.91
16.42
25.62
33.97
40.26
43.94
45.02
43.83
40.72
35.91
29.63
22.43
15.37
9.88
7.30
8.37
13.06
20.71
30.51
41.78
53.84
65.64
75.59
81.76
82.62
77.68
67.91
55.43
42.78
32.12
24.74
20.91
20.14
21.42
23.46
24.93
24.64
21.79
16.13
8.03
-1.60
-11.67
-21.06
-28.91
-34.82
-38.92
-41.85
-44.51
-47.71
-51.71
-56.05
-59.61
-61.05
-59.39
-54.50
-47.13
-38.61
-30.27
-22.91
-16.67
-11.18
-6.00
-1.04
3.34
6.54
8.18
8.42
8.08
8.31
10.11
13.84
18.97
24.28
28.40
30.45
30.48
29.52
29.13
30.74
35.07
41.99
50.56
59.36
66.80
71.40
72.11
68.54
61.19
51.52
41.58
33.40
28.20
25.88
25.04
23.54
19.46
11.89
1.35
-10.48
-21.52
-30.11
-35.62
-38.48
-39.71
-40.31
-40.70
-40.65
-39.60
-37.11
-33.24
-28.64
-24.27
-20.98
-19.17
-18.67
-18.86
-19.01
-18.62
-17.62
-16.46
-15.93
-16.84
-19.65
-24.29
-30.15
-36.33
-41.88
-46.01
-48.21
-48.40
-46.63
-42.97
-37.49
-30.37
-22.22
-14.08
-7.21
-2.59
-0.67
-0.96
-2.28
-3.33
-3.33
-2.14
-0.02
2.95
7.13
12.70
19.70
27.89
36.58
44.79
51.68
56.98
61.11
64.86
67.76
68.93
67.80
64.29
58.58
50.98
41.69
30.82
18.29
2.40
-17.79
-41.61
-66.97
-92.12
-115.95
-137.87
-156.98
-171.73
-182.60
-190.47
-196.38
-201.56
-208.48
-219.37
-235.45
-256.29
-266.34
-254.63
-219.00
-167.74
-113.13
-65.86
-31.29
-10.79
-1.91
1.02
3.54
11.72
28.37
55.92
90.96
126.99
156.96
176.76
186.35
187.42
179.62
168.63
165.53
171.58
183.47
194.91
199.76
193.78
169.74
127.24
67.71
2.21
-56.14
-97.76
-121.67
-132.84
-138.41
-144.97
-155.95
-171.36
-187.83
-203.02
-210.78
-205.12
-182.12
-143.58
-97.93
-57.23
-32.73
-30.40
-49.88
-83.70
-123.85
-157.83
-175.01
-170.37
-144.75
-102.77
-50.43
6.03
62.15
115.31
165.08
211.93
256.33
298.44
338.53
375.41
405.39
423.64
426.17
411.99
383.69
345.80
303.22
261.39
223.61
189.87
157.86
125.20
90.75
55.98
23.15
-5.37
-25.36
-33.65
-29.88
-16.26
4.12
27.83
53.11
78.17
87.59
72.45
36.14
-8.34
-48.61
-73.15
-85.80
-90.57
-91.07
-90.33
-90.03
-89.62
-88.78
-87.78
-86.92
-86.97
-87.36
-88.03
-89.35
-90.02
-88.60
-85.02
-80.61
-76.85
-75.08
-74.76
-75.00
-74.97
-73.16
-68.42
-61.13
-52.55
-43.84
-35.91
-28.37
-20.94
-13.87
-7.48
-2.57
-0.11
-0.65
-3.68
-7.71
-10.55
-10.72
-8.22
-4.67
-2.55
-4.19
-10.52
-20.43
-31.21
-39.69
-43.69
-43.04
-39.20
-34.23
-29.63
-25.76
-22.08
-17.92
-13.23
-8.91
-6.22
-5.96
-7.92
-10.79
-12.86
-12.80
-10.19
-5.78
-0.91
3.10
5.57
6.58
6.78
6.96
7.66
8.90
10.28
11.25
11.39
10.61
9.15
7.42
5.85
4.64
3.86
3.46
3.41
3.73
4.48
5.75
7.53
9.72
12.14
14.53
16.56
17.99
18.61
18.38
17.39
15.84
13.96
11.91
9.82
7.73
5.73
3.93
2.47
1.49
0.97
0.77
0.59
0.11
-0.90
-2.47
-4.33
-6.05
-7.20
-7.53
-7.11
-6.28
-5.56
-5.35
-5.79
-6.72
-7.78
-8.58
-8.88
-8.59
-7.72
-6.31
-4.41
-2.09
0.45
2.90
4.93
6.24
6.78
6.73
6.39
6.10
6.00
6.07
6.12
5.93
5.37
4.49
3.49
2.61
2.04
1.74
1.56
1.24
0.58
-0.48
-1.81
-3.22
-4.51
-5.61
-6.59
-7.59
-8.80
-10.29
-12.01
-13.76
-15.29
-16.31
-16.59
-16.01
-14.52
-12.21
-9.22
-5.80
-2.29
0.95
3.55
5.30
6.18
6.38
6.29
6.26
6.50
7.06
7.78
8.43
8.87
9.11
9.27
9.47
9.73
9.88
9.69
8.95
7.71
6.19
4.72
3.51
2.54
1.58
0.27
-1.66
-4.24
-7.26
-10.29
-12.88
-14.70
-15.58
-15.53
-14.70
-13.24
-11.29
-8.88
-6.06
-2.98
0.08
2.77
4.81
6.12
6.82
7.17
7.33
7.32
7.00
6.27
5.12
3.76
2.48
1.56
1.06
0.87
0.72
0.36
-0.34
-1.29
-2.36
-3.35
-4.22
-5.07
-6.06
-7.28
-8.63
-9.90
-10.83
-11.29
-11.41
-11.49
-11.84
-12.56
-13.53
-14.38
-14.66
-14.01
-12.33
-9.75
-6.59
-3.25
-0.09
2.69
4.96
6.77
8.15
9.14
9.79
10.20
10.51
10.91
11.60
12.76
14.39
16.39
18.52
20.46
21.95
22.81
23.01
22.72
22.16
21.50
20.73
19.66
18.07
15.84
13.09
10.14
7.39
5.08
3.25
1.74
0.42
-0.71
-1.44
-1.41
-0.31
1.98
5.28
9.11
12.84
15.85
17.70
18.21
17.53
16.01
14.14
12.32
10.80
9.66
8.79
7.98
7.02
5.79
4.30
2.71
1.28
0.21
-0.42
-0.72
-0.96
-1.47
-2.53
-4.35
-6.95
-10.30
-14.20
-18.31
-22.18
-25.34
-27.46
-28.42
-28.37
-27.61
-26.38
-24.78
-22.75
-20.20
-17.12
-13.65
-10.05
-6.60
-3.49
-0.77
1.58
3.59
5.22
6.38
7.02
7.17
6.97
6.63
6.37
6.35
6.56
6.88
7.10
7.03
6.66
6.20
5.94
6.04
6.27
5.92
4.06
0.04
-6.01
-12.96
-18.99
-22.32
-22.04
-18.51
-13.13
-7.63
-3.19
-0.01
2.56
5.39
8.92
12.83
16.20
18.05
17.87
15.97
13.26
10.82
9.42
9.17
9.63
10.12
10.07
9.29
7.96
6.34
4.63
2.83
0.82
-1.44
-3.75
-5.69
-6.80
-6.84
-5.91
-4.41
-2.91
-1.88
-1.60
-2.08
-3.22
-4.92
-7.19
-10.13
-13.78
-17.91
-21.96
-25.12
-26.58
-25.91
-23.24
-19.24
-14.78
-10.64
-7.23
-4.63
-2.74
-1.57
-1.24
-2.01
-4.02
-7.17
-11.06
-14.93
-17.95
-19.36
-18.71
-16.10
-12.14
-7.85
-4.29
-2.19
-1.75
-2.69
-4.45
-6.48
-8.46
-10.26
-11.80
-12.95
-13.57
-13.64
-13.45
-13.58
-14.68
-17.17
-20.92
-25.17
-28.79
-30.62
-29.85
-26.23
-20.06
-11.95
-2.59
7.40
17.40
26.70
34.47
39.87
42.35
41.93
39.31
35.66
32.13
29.47
27.77
26.63
25.57
24.33
23.02
21.88
21.05
20.32
19.23
17.36
14.60
11.30
8.06
5.53
4.02
3.35
3.01
2.27
0.61
-2.10
-5.51
-9.03
-11.95
-13.82
-14.59
-14.49
-13.81
-12.68
-11.04
-8.91
-6.40
-3.78
-1.36
0.81
3.04
5.77
9.24
13.02
16.25
17.93
17.61
15.72
13.44
12.09
12.38
13.97
15.84
16.92
16.79
15.97
15.44
15.86
17.10
17.84
16.55
12.38
5.79
-1.50
-7.37
-10.50
-11.00
-10.56
-11.34
-14.74
-20.61
-27.26
-32.35
-34.12
-32.13
-27.45
-21.85
-16.82
-12.87
-9.54
-5.96
-1.57
3.51
8.43
12.21
14.26
14.64
13.93
12.82
11.77
10.83
9.71
8.07
5.79
3.13
0.52
-1.54
-2.77
-3.17
-3.03
-2.78
-2.82
-3.42
-4.60
-6.27
-8.22
-10.24
-12.17
-13.95
-15.58
-17.08
-18.44
-19.57
-20.26
-20.26
-19.36
-17.54
-14.97
-11.98
-8.92
-6.02
-3.39
-0.96
1.37
3.63
5.70
7.31
8.14
7.97
6.77
4.79
2.47
0.24
-1.59
-2.97
-4.04
-5.01
-6.01
-6.98
-7.79
-8.31
-8.59
-8.87
-9.45
-10.57
-12.27
-14.39
-16.62
-18.66
-20.28
-21.33
-21.65
-21.14
-19.67
-17.20
-13.83
-9.75
-5.27
-0.72
3.61
7.49
10.78
13.37
15.26
16.44
16.92
16.76
16.01
14.81
13.34
11.82
10.40
9.15
8.03
6.92
5.75
4.52
3.33
2.32
1.55
0.96
0.37
-0.52
-1.94
-4.03
