1552592367.00
64.000000
-0.00
-0.00
-0.00
-0.00
-0.00
-0.00
-0.00
-0.00
-0.00
-0.00
0.00
0.01
0.01
-0.00
-0.03
-0.05
-0.05
0.00
0.13
0.36
0.66
1.01
1.37
1.72
2.06
2.40
2.79
3.24
3.80
4.42
5.06
5.66
6.20
6.68
7.15
7.68
8.31
9.14
10.09
11.04
11.88
12.56
13.14
13.76
14.65
15.96
17.91
20.32
22.90
25.38
27.58
29.57
31.68
34.32
37.81
42.54
48.15
54.10
59.83
64.97
69.58
74.14
79.34
85.71
93.76
103.00
112.62
121.73
129.77
136.75
143.30
150.75
157.77
166.64
177.95
191.79
206.97
220.57
228.25
225.36
208.53
176.87
132.76
80.05
23.07
-34.94
-92.44
-149.16
-205.23
-260.37
-313.74
-363.87
-409.83
-450.91
-486.50
-515.74
-537.23
-549.22
-549.96
-538.37
-514.21
-478.67
-433.88
-382.45
-327.02
-269.84
-212.63
-156.66
-102.95
-52.37
-5.90
35.58
71.43
101.35
125.50
144.38
158.69
169.15
176.37
180.75
182.57
182.07
179.51
175.23
169.65
163.18
156.15
148.81
141.30
133.69
126.02
118.33
110.69
103.16
95.80
88.68
81.83
75.25
68.95
62.95
57.25
51.86
46.78
42.03
37.59
33.45
29.61
26.07
22.81
19.83
17.11
14.67
12.48
10.54
8.83
7.35
6.07
4.97
4.05
3.27
2.62
2.09
1.65
1.30
1.01
0.79
0.61
0.48
0.37
0.29
0.24
0.20
0.18
0.17
0.17
0.19
0.21
0.23
0.27
0.30
0.34
0.38
0.43
0.47
0.52
0.57
0.62
0.67
0.73
0.80
0.86
0.94
1.02
1.11
1.21
1.32
1.45
1.59
1.75
1.92
2.12
2.34
2.58
2.85
3.14
3.46
3.82
4.20
4.63
5.08
5.58
6.11
6.68
7.30
7.96
8.66
9.40
10.19
11.03
11.91
12.84
13.81
14.85
15.95
17.11
18.33
19.60
20.87
22.11
23.23
24.13
24.69
24.81
24.36
23.23
21.40
18.86
15.66
11.87
7.67
3.25
-1.20
-5.45
-9.31
-12.60
-15.23
-17.11
-18.26
-18.72
-18.63
-18.12
-17.29
-16.26
-15.06
-13.74
-12.31
-10.79
-9.21
-7.63
-6.10
-4.63
-3.20
-1.72
-0.12
1.64
3.60
5.76
7.91
9.93
11.80
13.55
15.31
17.23
19.42
21.91
24.63
27.18
29.30
30.91
32.21
33.56
35.35
37.84
41.02
44.71
48.05
50.46
51.68
51.98
51.90
52.10
53.00
54.62
56.57
57.53
56.49
52.99
47.08
39.16
29.52
17.77
2.29
-14.61
-33.15
-53.95
-77.80
-105.34
-136.42
-169.49
-201.22
-226.85
-241.44
-242.30
-229.46
-205.96
-176.82
-147.16
-120.60
-98.56
-80.61
-65.52
-52.67
-41.65
-32.04
-23.27
-14.47
-4.96
5.39
15.94
25.70
33.32
38.08
39.89
39.21
36.78
33.36
29.58
25.95
22.75
19.84
16.85
13.38
9.21
4.46
-0.41
-4.85
-8.66
-12.08
-15.79
-20.22
-25.10
-29.30
-31.08
-28.89
-22.11
-11.32
1.72
14.83
26.20
34.87
40.87
44.81
47.29
48.61
48.48
46.47
42.53
37.28
32.01
28.20
26.84
28.05
30.86
33.85
35.81
36.20
35.30
33.83
32.36
31.07
29.49
27.01
23.17
18.04
12.18
6.44
1.51
-2.24
-4.94
-7.06
-9.23
-12.07
-16.03
-21.33
-27.86
-35.07
-42.01
-47.45
-50.09
-49.04
-43.97
-35.30
-24.01
-11.41
1.19
12.65
22.06
28.87
32.81
33.95
32.70
29.81
26.11
22.50
19.65
17.94
17.44
18.02
19.44
21.46
23.84
26.33
28.63
30.39
31.32
31.21
30.05
27.95
25.11
21.62
17.50
12.77
7.51
2.00
-3.42
-8.42
-12.88
-16.97
-21.02
-25.48
-30.67
-36.63
-43.01
-48.96
-53.28
-54.71
-52.23
-45.50
-35.04
-22.11
-8.39
4.55
15.56
24.05
29.90
33.27
34.40
33.59
31.24
27.93
24.37
21.32
19.33
18.66
19.21
20.61
22.33
23.92
25.06
25.51
25.20
24.06
22.06
19.19
15.48
11.06
6.14
1.05
-3.80
-8.02
-11.31
-13.60
-15.02
-15.96
-16.93
-18.52
-21.21
-25.28
-30.65
-36.73
-42.48
-46.55
-47.62
-44.79
-37.90
-27.68
-15.44
-2.79
8.83
18.48
25.75
30.63
33.34
34.12
33.22
30.96
27.79
24.34
21.33
19.38
18.85
19.72
21.59
23.82
25.77
27.01
27.43
27.21
26.57
25.59
24.14
21.94
18.75
14.56
9.64
4.45
-0.54
-5.07
-9.10
-12.74
-16.19
-19.63
-23.27
-27.43
-32.40
-38.41
-45.31
-52.31
-58.11
-61.06
-59.80
-53.66
-43.05
-29.39
-14.59
-0.58
11.22
20.19
26.26
29.77
31.10
30.59
28.53
25.30
21.45
17.65
14.60
12.88
12.75
14.12
16.60
19.65
22.68
25.29
27.23
28.46
29.02
28.90
28.02
26.24
23.50
19.92
15.73
11.30
6.93
2.72
-1.35
-5.41
-9.49
-13.52
-17.41
-21.14
-24.93
-29.24
-34.46
-40.69
-47.44
-53.63
-57.76
-58.45
-54.82
-46.90
-35.51
-22.11
-8.28
4.64
15.70
24.40
30.56
34.19
35.49
34.85
32.86
30.24
27.68
25.70
24.58
24.32
24.84
25.97
27.59
29.52
31.49
33.08
33.84
33.37
31.50
28.33
24.23
19.60
14.82
10.14
5.75
1.78
-1.62
-4.38
-6.55
-8.35
-10.14
-12.25
-14.86
-17.94
-21.34
-24.95
-28.84
-33.25
-38.39
-44.11
-49.75
-54.09
-55.70
-53.43
-46.85
-36.59
-24.05
-11.01
0.91
10.69
18.00
22.92
25.79
26.81
26.14
23.99
20.85
17.50
14.91
13.83
14.52
16.63
19.41
22.10
24.25
25.83
27.14
28.36
29.42
29.87
29.18
27.09
23.74
19.64
15.45
11.58
8.16
4.92
1.49
-2.36
-6.63
-11.07
-15.35
-19.21
-22.53
-25.49
-28.38
-31.65
-35.71
-40.76
-46.63
-52.56
-57.33
-59.50
-57.82
-51.79
-41.78
-29.09
-15.49
-2.76
7.81
15.64
20.78
23.61
24.62
24.15
22.52
20.12
17.49
15.37
14.40
14.94
16.88
19.63
22.49
24.88
26.57
27.68
28.46
29.03
29.17
28.49
26.57
23.29
18.93
14.09
9.47
5.51
2.25
-0.64
-3.60
-6.93
-10.63
-14.41
-17.84
-20.67
-22.87
-24.73
-26.72
-29.30
-32.88
-37.62
-43.37
-49.62
-55.44
-59.58
-60.75
-57.95
-50.89
-40.11
-26.92
-13.02
-0.03
10.88
19.21
25.03
28.76
30.93
31.92
32.01
31.42
30.37
29.19
28.19
27.65
27.74
28.45
29.65
31.07
32.43
33.47
33.97
33.85
32.99
31.37
28.94
25.70
21.79
17.47
13.08
8.93
5.18
1.76
-1.57
-5.09
-8.99
-13.31
-17.82
-22.12
-25.80
-28.60
-30.58
-32.21
-34.21
-37.31
-41.87
-47.56
-53.40
-57.84
-59.33
-56.77
-49.84
-39.11
-25.84
-11.68
1.69
12.88
21.08
26.10
28.31
28.47
27.42
25.87
24.31
23.03
22.19
21.88
22.14
22.89
24.02
25.38
26.82
28.14
29.16
29.57
29.15
27.77
25.49
22.57
19.19
15.47
11.40
7.03
2.59
-1.49
-4.77
-7.09
-8.77
-10.40
-12.56
-15.43
-18.69
-21.74
-24.15
-25.98
-27.99
-31.21
-36.35
-43.23
-50.52
-56.17
-58.17
-55.26
-47.64
-36.66
-24.24
-12.17
-1.52
7.34
14.49
20.02
23.70
25.21
24.34
21.35
17.02
12.47
8.81
6.85
6.79
8.42
11.13
14.27
17.31
19.89
21.89
23.29
24.10
24.22
23.51
21.81
19.11
15.61
11.66
7.72
4.11
0.83
-2.29
-5.57
-9.18
-13.11
-17.19
-21.15
-24.98
-28.80
-33.02
-38.05
-43.99
-50.53
-56.78
-61.40
-63.00
-60.49
-53.55
-42.80
-29.66
-15.93
-3.30
7.09
14.80
19.93
22.90
24.16
24.06
22.94
21.14
19.19
17.65
17.00
17.49
19.10
21.55
24.44
27.36
30.01
32.16
33.62
34.23
33.81
32.28
29.69
26.21
22.13
17.76
13.36
9.06
4.92
0.86
-3.17
-7.21
-11.22
-15.15
-18.98
-22.74
-26.66
-31.09
-36.32
-42.47
-49.21
-55.62
-60.39
-62.14
-59.84
-53.23
-42.90
-30.18
-16.61
-3.63
7.75
17.00
23.91
28.50
30.93
31.50
30.73
29.23
27.63
26.34
25.56
25.32
25.60
26.40
27.78
29.69
31.87
33.90
35.22
35.33
34.04
31.49
28.08
24.31
20.56
16.99
13.49
9.82
5.80
1.40
-3.13
-7.48
-11.33
-14.61
-17.45
-20.21
-23.27
-26.95
-31.42
-36.68
-42.51
-48.35
-53.26
-55.99
-55.32
-50.41
-41.25
-28.80
-14.73
-0.95
10.91
19.88
25.67
28.57
29.11
27.86
25.36
22.06
18.45
15.05
12.40
10.91
10.81
12.09
14.44
17.35
20.29
22.76
24.43
25.12
24.86
23.76
21.96
19.62
16.88
13.80
10.42
6.77
2.98
-0.80
-4.34
-7.49
-10.18
-12.49
-14.59
-16.65
-18.85
-21.37
-24.41
-28.16
-32.61
-37.37
-41.60
-44.04
-43.43
-38.90
-30.40
-18.80
-5.65
7.23
18.30
26.62
31.94
34.54
34.86
33.35
30.27
25.88
20.57
15.04
10.24
7.09
6.17
7.40
10.14
13.35
16.04
17.59
17.89
17.19
15.88
14.22
12.28
9.98
7.25
4.10
0.66
-2.91
-6.41
-9.76
-12.96
-16.07
-19.15
-22.26
-25.35
-28.45
-31.67
-35.31
-39.63
-44.59
-49.67
-53.72
-55.27
-53.00
-46.34
-35.73
-22.52
-8.53
4.52
15.46
23.74
29.30
32.33
33.08
31.83
29.00
25.22
21.27
17.88
15.55
14.50
14.61
15.65
17.38
19.59
22.02
24.27
25.86
26.36
25.63
23.81
21.37
18.77
16.22
13.54
10.44
6.66
2.32
-2.19
-6.32
-9.75
-12.52
-15.05
-17.90
-21.44
-25.80
-30.86
-36.44
-42.36
-48.28
-53.61
-57.35
-58.25
-55.15
-47.56
-35.93
-21.66
-6.74
6.78
17.39
24.40
27.99
28.89
28.03
26.20
23.96
21.68
19.58
17.98
17.24
17.62
19.19
21.68
24.67
27.60
29.96
31.48
32.06
31.70
30.47
28.49
25.92
22.95
19.80
16.64
13.47
10.17
6.60
2.73
-1.27
-5.08
-8.45
-11.31
-13.90
-16.63
-20.00
-24.35
-29.79
-36.10
-42.73
-48.82
-53.25
-54.93
-52.98
-47.06
-37.50
-25.29
-11.94
1.02
12.28
21.04
27.01
30.36
31.51
31.02
29.38
27.10
24.62
22.41
20.91
20.44
21.17
23.01
25.63
28.53
31.11
32.81
33.24
32.27
30.02
26.86
23.17
19.28
15.35
11.33
7.15
2.87
-1.32
-5.13
-8.30
-10.80
-12.81
-14.66
-16.70
-19.19
-22.25
-25.97
-30.42
-35.61
-41.30
-46.81
-51.08
-52.81
-50.93
-44.99
-35.37
-23.26
-10.28
1.96
12.23
19.95
25.06
27.93
29.03
28.75
27.44
25.40
22.97
20.62
18.91
18.31
19.01
20.76
22.98
24.93
26.03
26.07
25.23
23.83
22.12
20.11
17.53
14.07
9.54
4.11
-1.74
-7.41
-12.33
-16.28
-19.37
-21.97
-24.54
-27.43
-30.93
-35.25
-40.53
-46.71
-53.41
-59.66
-64.02
-64.95
-61.36
-53.11
-41.21
-27.50
-13.95
-2.08
7.48
14.78
20.25
24.05
26.05
26.04
24.05
20.73
17.19
14.66
14.04
15.35
18.01
21.04
23.67
25.59
26.94
28.01
28.91
29.30
28.65
26.51
22.85
18.13
13.19
8.74
5.18
2.24
-0.60
-3.91
-7.81
-12.05
-16.07
-19.52
-22.47
-25.57
-29.66
-35.23
-42.00
-48.75
-53.67
-55.06
-51.90
-44.33
-33.50
-21.14
-8.93
1.94
10.93
17.89
22.93
26.06
27.33
26.87
24.99
22.28
19.44
17.19
16.05
16.21
17.55
19.71
22.22
24.64
26.65
28.09
29.00
29.44
29.43
28.89
27.60
25.30
21.86
17.37
12.16
6.74
1.61
-2.92
-6.86
-10.50
-14.18
-18.24
-22.77
-27.74
-33.01
-38.43
-43.72
-48.40
-51.67
-52.49
-49.88
-43.34
-33.17
-20.53
-7.16
5.19
15.24
22.46
27.01
29.40
30.15
29.59
27.89
25.28
22.19
19.27
17.24
16.61
17.45
19.41
21.79
23.92
25.34
25.88
25.63
24.76
23.35
21.31
18.42
14.56
9.81
4.51
-0.79
-5.51
-9.23
-11.86
-13.64
-14.97
-16.32
-18.10
-20.58
-23.87
-27.89
-32.31
-36.49
-39.51
-40.42
-38.41
-33.21
-25.21
-15.40
-5.10
4.38
12.14
17.76
21.30
23.05
23.34
22.36
20.27
17.31
13.95
10.84
8.71
8.06
8.99
11.19
14.04
16.80
18.95
20.22
20.63
20.35
19.53
18.28
16.50
14.02
10.76
6.78
2.38
-1.94
-5.72
-8.77
-11.22
-13.53
-16.34
-20.16
-25.22
-31.41
-38.24
-44.87
-50.29
-53.42
-53.37
-49.63
-42.33
-32.17
-20.37
-8.31
2.73
11.85
18.55
22.70
24.42
24.10
22.24
19.49
16.52
13.94
12.22
11.60
12.12
13.65
15.82
18.19
20.22
21.51
21.88
21.40
20.40
19.19
17.88
16.33
14.19
11.17
7.16
2.46
-2.37
-6.67
-9.96
-12.17
-13.64
-15.01
-17.01
-20.14
-24.58
-30.04
-35.85
-41.10
-44.76
-45.88
-43.80
-38.41
-30.10
-19.83
-8.81
1.77
11.00
18.36
23.65
26.93
28.37
28.24
26.92
24.91
22.80
21.09
20.25
20.47
21.71
23.71
26.08
28.29
29.85
30.42
29.86
28.21
25.74
22.72
19.38
15.84
12.10
8.16
4.08
-0.04
-4.02
-7.67
-10.84
-13.50
-15.75
-17.86
-20.23
-23.35
-27.56
-32.91
-38.95
-44.78
-49.09
-50.61
-48.45
-42.37
-32.89
-21.24
-8.97
2.47
11.96
18.97
23.41
25.53
25.71
24.37
22.01
19.17
16.36
14.04
12.52
11.94
12.31
13.55
15.42
17.53
19.36
20.44
20.51
19.66
18.24
16.51
14.47
11.84
8.32
3.83
-1.17
-5.95
-9.78
-12.41
-14.13
-15.64
-17.65
-20.61
-24.53
-29.14
-33.98
-38.55
-42.23
-44.29
-43.95
-40.65
-34.26
-25.28
-14.81
-4.21
5.23
12.61
17.62
20.37
21.20
20.49
18.54
15.72
12.43
9.28
6.90
5.82
6.22
7.87
10.22
12.65
14.67
16.09
16.96
17.38
17.39
16.85
15.53
13.23
9.92
5.77
1.18
-3.34
-7.33
-10.52
-12.93
-14.86
-16.77
-19.09
-22.13
-25.90
-30.14
-34.21
-37.31
-38.51
-37.04
-32.45
-24.97
-15.38
-4.89
5.18
13.76
20.29
24.60
26.84
27.19
25.82
23.00
19.10
14.72
10.65
7.64
6.25
6.52
8.04
10.13
12.02
13.28
13.84
13.90
13.66
13.15
12.11
10.10
6.85
2.43
-2.66
-7.68
-11.93
-15.03
-17.09
-18.59
-20.14
-22.30
-25.20
-28.61
-31.92
-34.37
-35.20
-33.86
-30.06
-23.83
-15.58
-6.09
3.60
12.35
19.22
23.69
25.68
25.57
23.92
21.22
17.87
14.06
10.01
6.11
2.83
0.68
-0.05
0.65
2.44
4.71
6.79
8.13
8.35
7.34
5.22
2.29
-1.05
-4.48
-7.68
-10.55
-13.09
-15.48
-17.99
-20.91
-24.49
-28.72
-33.22
-37.14
-39.40
-38.93
-35.07
-27.95
-18.37
-7.73
2.46
10.91
16.96
20.48
21.78
21.30
19.50
16.65
13.05
9.01
5.00
1.67
-0.40
-0.87
0.22
2.37
4.81
6.82
7.89
7.90
6.85
4.91
2.20
-1.16
-4.91
-8.68
-12.10
-14.95
-17.43
-20.11
-23.65
-28.39
-33.94
-39.21
-42.70
-43.06
-39.76
-33.14
-24.25
-14.43
-4.76
4.09
11.74
17.89
22.04
23.72
22.73
19.44
14.85
10.25
6.74
4.92
4.68
5.49
6.84
8.40
10.21
12.39
14.91
17.41
19.21
19.65
18.30
15.23
11.02
6.39
1.93
-2.09
-5.87
-9.82
-14.41
-19.87
-26.11
-32.60
-38.53
-42.77
-44.31
-42.39
-36.81
-28.04
-17.14
-5.39
5.94
15.91
23.94
29.72
33.14
34.18
33.03
30.12
26.14
22.00
18.54
16.35
15.68
16.41
18.19
20.55
22.97
24.98
26.19
26.33
25.31
23.19
20.17
16.52
12.56
8.55
4.68
1.09
-2.28
-5.64
-9.39
-13.94
-19.47
-25.65
-31.58
-35.98
-37.56
-35.52
-29.92
-21.57
-11.91
-2.39
5.87
12.30
16.82
19.57
20.71
20.28
18.36
15.20
11.32
7.47
4.39
2.60
2.19
2.86
4.03
5.13
5.71
5.62
4.96
3.88
2.52
0.93
-0.91
-2.98
-5.14
-7.19
-8.99
-10.61
-12.40
-14.89
-18.51
-23.25
-28.50
-33.16
-35.89
-35.67
-32.07
-25.41
-16.64
-6.94
2.54
10.88
17.48
22.01
24.32
24.46
22.76
19.78
16.29
13.03
10.59
9.22
8.91
9.52
10.81
12.64
14.78
16.94
18.70
19.60
19.22
17.45
14.46
10.65
6.52
2.49
-1.20
-4.50
-7.54
-10.50
-13.67
-17.33
-21.71
-26.82
-32.35
-37.52
-41.16
-42.09
-39.46
-33.14
-23.81
-12.82
-1.75
8.01
15.56
20.61
23.34
24.24
23.86
22.75
21.34
19.95
18.83
18.17
18.10
18.80
20.29
22.45
24.88
27.02
28.28
28.26
26.90
24.47
21.30
17.66
13.58
9.00
3.89
-1.55
-6.83
-11.43
-14.93
-17.33
-19.02
-20.69
-23.05
-26.52
-30.97
-35.68
-39.46
-41.09
-39.64
-34.87
-27.31
-18.05
-8.44
0.41
7.79
13.44
17.37
19.62
20.17
19.07
16.61
13.40
10.31
8.17
7.47
8.15
9.75
11.56
13.00
13.82
14.09
14.03
13.82
13.44
12.71
11.37
9.28
6.48
3.19
-0.31
-3.74
-6.85
-9.54
-11.75
-13.56
-15.24
-17.19
-19.95
-23.86
-28.93
-34.65
-39.96
-43.57
-44.30
-41.51
-35.31
-26.47
-16.27
-5.96
3.52
11.71
18.50
23.98
28.19
31.07
32.51
32.60
31.65
30.25
29.09
28.78
29.57
31.36
33.74
36.20
38.29
39.77
40.56
40.77
40.54
40.00
39.22
38.20
36.90
35.33
33.55
31.74
30.25
29.47
29.64
30.76
32.39
33.72
33.70
31.42
26.57
19.76
12.50
6.87
4.76
7.06
13.09
20.82
27.45
30.48
28.60
22.04
12.34
1.63
-8.17
-15.76
-20.50
-22.11
-20.27
-14.24
-2.88
15.16
41.06
75.25
117.01
164.24
213.71
261.50
303.64
336.76
358.44
367.51
364.14
349.80
326.98
298.84
268.45
238.30
209.72
182.84
156.99
131.18
104.51
76.36
46.40
14.61
-18.62
-52.20
-84.17
-111.94
-132.83
-144.80
-146.96
-139.66
-124.09
-101.84
-74.74
-44.88
-14.87
12.39
34.42
50.20
60.72
68.66
77.14
88.15
101.78
116.23
129.01
138.26
143.35
144.84
143.71
140.80
136.64
131.69
126.59
122.11
118.80
116.58
114.80
112.53
109.07
104.35
98.87
93.38
88.51
84.52
81.27
78.35
75.23
71.38
66.26
59.41
50.39
38.83
24.36
6.80
-13.85
-37.28
-62.88
-89.75
-116.85
-143.28
-168.44
-192.11
-214.50
-235.98
-256.87
-277.28
-297.12
-316.24
-334.59
-352.42
-370.25
-388.76
-408.81
-431.36
-457.38
-487.44
-521.11
-556.38
-589.75
-616.96
-634.23
-639.56
-633.26
-617.69
-596.15
-571.74
-546.60
-521.76
-497.58
-474.22
-451.97
-431.08
-411.68
-393.59
-376.48
-360.06
-344.17
-328.80
-314.08
-300.02
-286.48
-273.04
-259.23
-244.60
-229.00
-212.63
-196.16
-180.36
-165.99
-153.38
-142.27
-131.91
-121.32
-109.89
-97.79
-86.15
-76.59
-70.43
-68.00
-68.27
-69.30
-68.96
-65.89
-59.82
-51.49
-41.98
-32.05
-21.85
-11.07
0.64
13.25
26.36
39.33
51.65
63.24
74.35
85.45
96.89
108.71
120.66
132.16
142.59
151.44
158.55
164.11
168.65
172.79
177.01
181.46
185.96
190.10
193.45
195.88
197.73
199.77
203.02
208.44
216.50
227.10
239.55
253.01
266.91
281.02
295.77
311.84
329.91
350.72
375.11
403.83
436.94
472.91
508.30
538.41
558.85
567.19
563.94
551.81
534.13
513.00
488.74
460.55
427.89
391.33
352.48
313.14
274.53
237.09
201.04
166.72
134.74
105.52
78.80
53.98
30.63
8.87
-10.45
-26.15
-37.45
-44.22
-46.86
-45.83
-41.33
-33.53
-23.05
-11.15
0.37
9.74
16.07
19.58
21.58
23.64
26.76
30.77
34.37
35.80
33.77
28.13
20.05
11.33
3.65
-2.12
-6.08
-8.86
-11.18
-13.35
-15.22
-16.56
-17.32
-17.86
-18.87
-20.96
-24.39
-28.90
-33.75
-38.08
-41.38
-43.71
-45.68
-48.31
-52.37
-58.12
-65.06
-72.25
-78.60
-83.39
-86.50
-88.28
-89.34
-90.23
-91.21
-92.34
-93.69
-95.49
-98.15
-102.07
-107.39
-113.82
-120.43
-125.91
-129.03
-129.20
-127.05
-124.08
-122.06
-121.90
-123.04
-123.43
-120.62
-113.13
-101.20
-86.80
-72.49
-60.07
-49.73
-40.34
-30.33
-18.84
-6.28
5.97
16.16
23.03
26.01
25.18
20.98
13.89
4.55
-6.19
-17.13
-26.78
-33.67
-36.98
-36.80
-34.33
-31.63
-30.61
-32.17
-35.51
-38.39
-38.28
-33.71
-25.22
-15.27
-6.81
-1.55
1.09
3.76
9.49
19.99
34.64
50.73
65.02
75.24
81.04
83.71
85.18
87.07
90.04
94.03
98.74
103.84
108.97
113.62
116.74
117.04
113.57
106.16
95.85
84.54
74.35
66.93
62.74
60.65
58.16
51.97
38.72
16.09
-16.47
-57.09
-101.95
-146.18
-185.40
-216.87
-240.21
-256.88
-269.39
-280.01
-290.03
-299.14
-305.23
-304.81
-293.80
-269.06
-229.96
-179.46
-124.11
-72.75
-33.99
-13.67
-13.18
-29.24
-55.21
-82.75
-103.94
-112.96
-107.62
-90.34
-67.61
-48.05
-39.32
-45.04
-63.43
-87.93
-110.05
-122.52
-121.55
-107.23
-82.37
-50.80
-16.23
17.85
48.03
71.08
84.74
88.59
84.45
75.89
67.02
61.11
59.88
63.33
70.24
78.92
87.83
96.01
103.23
109.89
116.59
123.51
129.91
134.19
134.57
130.14
121.78
112.11
104.59
101.85
104.67
111.80
120.91
130.07
138.48
146.35
154.12
161.67
168.28
173.07
175.54
175.31
171.54
162.23
144.69
116.88
79.19
35.11
-9.39
-48.03
-76.29
-92.62
-98.03
-94.75
-84.76
-69.20
-48.62
-23.80
3.82
32.22
59.25
83.23
103.16
118.50
129.04
134.60
135.26
131.56
124.70
116.48
108.93
103.41
100.10
97.72
94.37
88.59
80.43
71.78
65.65
64.62
69.70
79.77
92.26
104.38
114.22
121.10
125.38
127.56
127.73
125.20
118.61
106.26
86.42
57.91
20.86
-23.03
-70.46
-117.37
-160.22
-197.12
-228.01
-254.22
-277.18
-297.51
-314.65
-327.41
-334.72
-336.05
-331.52
-321.82
-308.04
-291.61
-274.02
-256.29
-238.35
-218.60
-194.20
-162.38
-121.93
-74.48
-24.68
21.15
57.13
80.28
91.58
95.30
96.95
100.65
107.32
114.76
119.19
117.66
109.79
97.96
85.88
76.58
71.08
68.36
66.58
64.49
62.16
60.76
61.49
64.46
68.36
71.05
70.56
66.17
58.84
50.75
44.29
40.96
40.81
42.61
44.44
44.72
42.71
38.68
33.53
28.35
23.81
20.07
16.74
13.12
8.47
2.36
-5.20
-13.73
-22.45
-30.62
-37.77
-43.77
-48.77
-52.93
-56.31
-58.87
-60.58
-61.61
-62.37
-63.40
-65.14
-67.69
-70.76
-73.81
-76.27
-77.83
-78.64
-79.18
-79.97
-81.22
-82.69
-83.59
-82.92
-79.91
-74.31
-66.58
-57.72
-48.89
-41.02
-34.54
-29.26
-24.66
-20.13
-15.23
-9.93
-4.44
0.88
5.73
9.94
13.45
16.25
18.40
20.09
21.78
24.21
28.24
34.72
44.10
56.23
70.28
84.95
98.81
110.64
119.72
125.84
129.11
129.73
127.87
123.63
117.28
109.32
100.53
91.79
83.79
76.88
71.14
66.53
63.00
60.49
58.83
57.66
56.36
54.22
50.73
45.64
39.17
31.82
24.23
16.96
10.20
3.85
-2.43
-9.07
-16.29
-24.02
-31.93
-39.45
-46.27
-52.18
-57.14
-61.07
-63.72
-64.68
-63.65
-60.66
-56.28
-51.41
-46.99
-43.67
-41.49
-40.02
-38.62
-36.79
-34.41
-31.76
-29.12
-26.61
-23.98
-20.77
-16.58
-11.37
-5.75
-0.64
3.11
5.12
5.71
5.71
5.96
6.97
8.54
9.94
10.39
9.34
6.83
3.23
-0.99
-5.49
-10.24
-15.26
-20.38
-25.04
-28.39
-29.65
-28.48
-25.13
-20.39
-15.27
-10.60
-6.80
-3.90
-1.75
-0.17
0.88
1.25
0.72
-0.86
-3.44
-6.71
-10.06
-12.81
-14.27
-14.14
-12.55
-10.03
-7.45
-5.60
-4.94
-5.47
-6.73
-8.13
-9.23
-9.97
-10.72
-12.00
-14.25
-17.54
-21.59
-25.88
-29.89
-33.35
-36.11
-38.03
-38.83
-38.09
-35.39
-30.73
-24.56
-17.70
-11.04
-5.13
-0.06
4.51
9.02
13.66
18.18
22.02
24.57
25.43
24.74
23.09
21.43
20.65
21.33
23.62
27.15
31.27
35.32
38.79
41.41
43.08
43.79
43.57
42.43
40.55
38.15
35.58
33.16
31.03
29.09
26.92
24.01
19.99
14.90
9.38
4.55
1.64
1.47
4.15
9.01
14.86
20.50
25.04
28.15
29.86
30.35
29.68
27.75
24.46
19.89
14.46
8.90
3.98
0.20
-2.36
-4.03
-5.31
-6.62
-8.05
-9.41
-10.39
-10.86
-10.96
-11.17
-12.00
-13.81
-16.62
-20.10
-23.79
-27.37
-30.78
-34.31
-38.37
-43.28
-49.02
-55.17
-60.98
-65.63
-68.44
-69.02
-67.43
-63.95
-59.02
-53.04
-46.36
-39.34
-32.42
-26.21
-21.29
-17.99
-16.21
-15.33
-14.49
-12.97
-10.44
-7.08
-3.32
0.43
4.02
7.65
11.58
15.83
20.03
23.46
25.38
25.36
23.45
20.20
16.37
12.56
9.00
5.51
1.74
-2.64
-7.77
-13.52
-19.67
-25.94
-31.98
-37.27
-41.07
-42.46
-40.71
-35.45
-27.00
-16.34
-4.83
6.12
15.46
22.63
27.57
30.54
31.86
31.82
30.57
28.27
25.14
21.57
18.14
15.44
13.88
13.52
14.03
14.84
15.39
15.34
14.69
13.66
12.47
11.20
9.71
7.79
5.25
2.13
-1.41
-5.25
-9.39
-14.07
-19.63
-26.25
-33.63
-40.96
-46.91
-50.15
-49.66
-45.12
-37.04
-26.48
-14.81
-3.26
7.30
16.36
23.68
29.13
32.55
33.87
33.23
31.18
28.61
26.52
25.63
26.12
27.56
29.28
30.74
31.74
32.60
33.62
34.94
36.19
36.65
35.62
32.84
28.65
23.85
19.07
14.66
10.45
6.01
1.04
-4.46
-10.30
-16.26
-22.39
-28.78
-35.17
-40.74
-44.02
-43.46
-38.23
-28.68
-16.62
-4.44
5.85
13.28
18.18
21.65
24.74
27.78
30.09
30.70
29.06
25.61
21.76
19.30
19.36
22.01
25.96
29.51
31.36
31.30
30.14
29.13
29.08
29.90
30.52
29.61
26.39
21.07
14.71
8.71
3.98
0.69
-1.85
-4.69
-8.73
-14.23
-20.83
-27.62
-33.52
-37.39
-38.42
-36.19
-30.76
-22.66
-12.82
-2.25
8.09
17.51
25.60
32.08
36.68
39.20
39.47
37.67
34.33
30.40
26.90
24.62
23.86
24.32
25.34
26.22
26.52
26.21
25.62
25.09
24.79
24.51
23.81
22.24
19.60
16.05
12.08
8.22
4.82
1.89
-0.88
-3.98
-7.86
-12.75
-18.62
-25.18
-31.94
-38.18
-43.07
-45.66
-45.12
-40.94
-33.12
-22.28
-9.58
3.48
15.45
25.18
32.02
35.85
36.97
35.90
33.20
29.41
25.05
20.64
16.73
13.80
12.17
11.92
12.80
14.33
15.98
17.33
18.10
18.25
17.77
16.59
14.56
11.54
7.49
2.69
-2.33
-6.90
-10.50
-13.00
-14.77
-16.60
-19.37
-23.62
-29.32
-35.66
-41.35
-44.98
-45.44
-42.38
-36.14
-27.58
-17.79
-7.69
2.01
10.80
18.26
23.98
27.65
29.17
28.86
27.37
25.52
24.10
23.54
23.87
24.72
25.53
25.89
25.67
24.99
24.20
23.53
23.01
22.38
21.34
19.62
17.14
13.90
9.98
5.47
0.57
-4.42
-9.03
-12.90
-15.90
-18.43
-21.21
-25.04
-30.36
-36.84
-43.43
-48.64
-50.97
-49.59
-44.45
-36.31
-26.39
-15.99
-6.08
2.72
10.20
16.05
19.96
21.56
20.78
18.05
14.38
11.00
8.97
8.60
9.47
10.76
11.69
11.98
11.92
12.01
12.52
13.19
13.28
11.92
8.61
3.47
-2.81
-9.31
-15.25
-20.33
-24.60
-28.32
-31.63
-34.58
-37.15
-39.55
-42.10
-45.30
-49.34
-53.85
-57.81
-59.74
-58.20
-52.30
-41.98
-28.13
-12.28
3.88
18.91
31.79
42.06
49.58
54.39
56.58
56.29
53.78
49.61
44.62
39.92
36.61
35.50
36.85
40.25
44.77
49.26
52.77
54.75
55.15
54.30
52.59
50.26
47.28
43.48
38.70
33.05
26.95
21.00
15.77
11.49
7.96
4.61
0.75
-4.11
-10.11
-16.92
-23.92
-30.24
-35.06
-37.62
-37.40
-34.21
-28.21
-19.92
-10.20
-0.08
9.38
17.21
22.74
25.60
25.87
24.03
20.82
17.11
13.65
10.95
9.27
8.65
9.07
10.44
12.61
15.27
17.98
20.22
21.59
21.87
21.13
19.67
17.76
15.56
13.03
10.06
6.61
2.82
-1.00
-4.47
-7.48
-10.19
-13.03
-16.54
-21.06
-26.53
-32.40
-37.65
-41.10
-41.77
-39.14
-33.36
-25.12
-15.53
-5.70
3.52
11.57
18.13
22.95
25.72
26.28
24.65
21.29
17.09
13.11
10.27
9.13
9.63
11.38
13.79
16.35
18.81
21.14
23.31
25.21
26.47
26.59
25.14
21.98
17.36
11.93
6.41
1.47
-2.67
-6.17
-9.43
-12.89
-16.81
-21.27
-26.16
-31.31
-36.41
-40.98
-44.24
-45.27
-43.18
-37.56
-28.79
-17.96
-6.69
3.45
11.40
16.80
20.00
21.60
22.15
21.94
20.97
19.23
16.95
14.63
13.05
12.87
14.29
16.97
20.05
22.56
23.79
23.58
22.33
20.63
18.95
17.32
15.40
12.70
8.92
4.26
-0.65
-5.04
-8.34
-10.42
-11.64
-12.63
-14.00
-16.13
-19.04
-22.61
-26.68
-31.02
-35.41
-39.33
-41.98
-42.35
-39.55
-33.26
-24.00
-13.02
-2.02
7.49
14.61
19.18
21.65
22.59
22.41
21.24
19.05
15.99
12.54
9.52
7.75
7.73
9.36
12.04
14.90
17.17
18.49
18.94
18.85
18.57
18.14
17.39
15.97
13.59
10.26
6.24
1.93
-2.21
-5.95
-9.20
-12.05
-14.59
-16.91
-19.06
-21.22
-23.70
-26.93
-31.28
-36.82
-43.03
-48.89
-53.05
-54.31
-52.02
-46.27
-37.81
-27.80
-17.38
-7.48
1.37
8.88
14.89
19.24
21.76
22.41
21.38
19.21
16.72
14.70
13.76
14.11
15.51
17.46
19.46
21.15
22.38
22.91
22.52
21.02
18.42
15.11
11.88
9.51
8.43
8.29
8.27
7.45
5.42
2.52
-0.33
-2.25
-3.04
-3.36
-4.43
-7.24
-12.06
-18.29
-24.82
-30.68
-35.38
-39.09
-41.98
-43.82
-43.72
-40.57
-33.63
-23.19
-10.65
1.83
12.20
19.30
23.07
24.30
24.02
22.97
21.47
19.41
16.71
13.59
10.55
8.21
7.02
7.14
8.43
10.57
13.14
15.72
17.90
19.35
19.81
19.21
17.77
15.79
13.56
11.23
8.76
6.00
2.82
-0.75
-4.49
-8.06
-11.19
-13.79
-16.04
-18.31
-21.00
-24.41
-28.60
-33.39
-38.36
-42.92
-46.39
-48.01
-47.19
-43.51
-36.97
-28.04
-17.62
-6.85
3.12
11.41
17.51
21.34
23.14
23.33
22.32
20.51
18.23
15.83
13.68
12.17
11.63
12.19
13.68
15.63
17.41
18.43
18.31
17.02
14.86
12.28
9.68
7.20
4.74
2.05
-1.12
-4.79
-8.72
-12.53
-15.85
-18.46
-20.46
-22.10
-23.73
-25.61
-27.88
-30.54
-33.60
-37.02
-40.66
-44.11
-46.65
-47.35
-45.31
-39.99
-31.55
-20.83
-9.20
1.82
11.02
17.76
22.02
24.11
24.58
23.83
22.13
19.61
16.47
13.08
10.03
7.96
7.31
8.17
10.13
12.48
14.45
15.55
15.69
15.13
14.28
13.36
12.36
11.01
9.04
6.37
3.23
0.00
-2.96
-5.54
-7.87
-10.25
-12.96
-16.05
-19.34
-22.64
-25.88
-29.29
-33.22
-37.96
-43.25
-48.26
-51.71
-52.41
-49.75
-43.93
-35.90
-26.92
-18.03
-9.83
-2.48
3.92
9.18
12.93
14.88
15.06
14.07
12.78
12.09
12.39
13.56
15.10
16.55
17.76
18.92
20.29
21.91
23.30
23.74
22.67
20.05
16.47
12.84
9.88
7.79
6.00
3.69
0.24
-4.34
-9.36
-13.85
-17.08
-18.93
-20.04
-21.35
-23.68
-27.31
-31.93
-36.81
-41.06
-43.82
-44.51
-42.70
-38.32
-31.62
-23.22
-14.03
-5.04
3.00
9.60
14.63
18.08
19.97
20.33
19.26
17.09
14.41
11.95
10.34
9.91
10.58
12.01
13.72
15.34
16.68
17.78
18.72
19.50
19.93
19.73
18.64
16.62
13.88
10.84
7.83
5.03
2.31
-0.60
-3.89
-7.49
-11.09
-14.33
-17.06
-19.50
-22.15
-25.58
-30.01
-35.12
-39.97
-43.34
-44.13
-41.72
-36.21
-28.37
-19.30
-10.16
-1.85
5.13
10.52
14.24
16.24
16.51
15.12
12.43
9.05
5.78
3.32
2.13
2.24
3.38
5.03
6.74
8.22
9.38
10.21
10.79
11.07
10.99
10.40
9.17
7.24
4.69
1.68
-1.51
-4.65
-7.57
-10.27
-12.78
-15.17
-17.50
-19.87
-22.44
-25.49
-29.23
-33.58
-37.99
-41.38
-42.51
-40.40
-34.77
-26.23
-15.99
-5.55
3.89
11.61
17.46
21.57
24.12
25.13
24.59
22.49
19.11
15.09
11.32
8.69
7.70
8.32
10.00
11.93
13.46
14.32
14.62
14.69
14.70
14.54
13.82
12.16
9.39
5.72
1.58
-2.51
-6.24
-9.53
-12.49
-15.27
-17.95
-20.48
-22.82
-25.04
-27.38
-30.09
-33.25
-36.52
-39.13
-40.01
-38.21
-33.27
-25.47
-15.82
-5.69
3.64
11.31
17.14
21.33
24.23
26.08
26.85
26.50
25.13
23.16
21.32
20.33
20.63
22.15
24.40
26.63
28.22
28.88
28.67
27.88
26.75
25.41
23.79
21.77
19.29
16.51
13.82
11.67
10.36
9.89
9.80
9.28
7.40
3.52
-2.52
-10.35
-19.28
-28.58
-37.73
-46.42
-54.31
-60.86
-65.25
-66.61
-64.37
-58.59
-50.03
-39.91
-29.51
-19.81
-11.33
-4.22
1.49
5.77
8.56
9.85
9.87
9.10
8.22
7.91
8.63
10.49
13.19
16.19
18.88
20.87
21.99
22.32
22.01
21.14
19.70
17.64
14.98
11.92
8.77
5.80
3.13
0.66
-1.81
-4.43
-7.11
-9.55
-11.46
-12.75
-13.76
-15.16
-17.57
-21.11
-25.21
-28.68
-30.23
-28.98
-24.78
-18.22
-10.22
-1.66
6.79
14.64
21.25
25.91
27.97
27.25
24.21
19.95
15.72
12.55
10.73
10.08
10.16
10.63
11.48
12.87
14.82
17.07
18.82
19.33
18.18
15.61
12.43
9.66
7.86
6.95
5.96
3.81
-0.12
-5.58
-11.43
-16.22
-18.97
-19.69
-19.47
-19.87
-22.16
-26.63
-32.52
-38.40
-42.82
-44.80
-44.16
-41.18
-36.30
-29.77
-21.77
-12.51
-2.54
7.25
15.74
21.98
25.50
26.44
25.38
23.12
20.42
17.93
15.96
14.74
14.31
14.57
15.34
16.45
17.73
19.08
20.38
21.45
21.99
21.65
20.17
17.55
14.11
10.35
6.76
3.59
0.79
-1.87
-4.68
-7.70
-10.75
-13.50
-15.63
-17.13
-18.31
-19.79
-22.24
-26.06
-31.17
-36.85
-41.96
-45.22
-45.61
-42.66
-36.58
-28.11
-18.32
-8.27
1.22
9.56
16.45
21.74
25.35
27.27
27.62
26.71
25.04
23.17
21.62
20.68
20.41
20.64
21.12
21.63
22.06
22.35
22.45
22.19
21.39
19.89
17.70
15.00
12.10
9.30
6.74
4.38
2.04
-0.47
-3.21
-6.07
-8.81
-11.18
-13.14
-14.86
-16.79
-19.41
-23.05
-27.66
-32.75
-37.46
-40.80
-41.89
-40.26
-35.85
-29.07
-20.66
-11.48
-2.39
5.88
12.77
17.94
21.25
22.78
22.82
21.79
20.20
18.47
16.90
15.71
15.03
14.98
15.59
16.76
18.19
19.39
19.86
19.26
17.58
15.13
12.34
9.51
6.65
3.53
-0.07
-4.15
-8.28
-11.82
-14.16
-15.06
-14.83
-14.15
-13.83
-14.50
-16.41
-19.44
-23.18
-27.13
-30.67
-33.20
-34.12
-32.95
-29.45
-23.69
-16.10
-7.55
0.93
8.35
13.95
17.41
18.90
18.84
17.80
16.11
13.94
11.36
8.52
5.86
4.03
3.59
4.80
7.22
9.97
12.09
12.95
12.54
11.37
10.08
9.09
8.17
6.75
4.24
0.48
-4.02
-8.32
-11.54
-13.22
-13.76
-14.06
-15.10
-17.49
-21.25
-25.93
-30.95
-35.73
-39.95
-43.22
-45.01
-44.63
-41.49
-35.36
-26.68
-16.35
-5.68
4.13
12.17
18.02
21.65
23.31
23.37
22.34
20.71
18.98
17.57
16.74
16.59
17.06
18.01
19.28
20.67
21.98
22.93
23.28
22.85
21.58
19.57
17.03
14.19
11.16
7.93
4.46
0.75
-3.06
-6.67
-9.77
-12.15
-13.92
-15.49
-17.47
-20.37
-24.38
-29.13
-33.77
-37.18
-38.27
-36.40
-31.50
-24.15
-15.31
-6.12
2.49
9.88
15.74
19.96
22.51
23.39
22.71
20.79
18.15
15.48
13.39
12.23
12.02
12.55
13.45
14.43
15.33
16.11
16.73
17.14
17.19
16.72
15.62
13.87
11.57
8.88
5.99
3.08
0.29
-2.27
-4.56
-6.56
-8.32
-9.95
-11.68
-13.82
-16.67
-20.41
-24.89
-29.57
-33.50
-35.56
-34.85
-31.04
-24.46
-16.06
-7.08
1.39
8.66
14.47
18.83
21.79
23.29
23.26
21.70
18.96
15.72
12.85
11.13
10.90
11.96
13.73
15.49
16.76
17.46
17.79
18.04
18.28
18.24
17.50
15.65
12.59
8.60
4.29
0.26
-3.03
-5.52
-7.42
-9.15
-11.09
-13.46
-16.32
-19.63
-23.34
-27.38
-31.55
-35.37
-38.05
-38.61
-36.24
-30.68
-22.40
-12.58
-2.67
6.07
12.88
17.62
20.54
21.98
22.15
21.09
18.85
15.68
12.12
8.98
7.03
6.79
8.21
10.74
13.50
15.62
16.60
16.39
15.35
13.94
12.47
10.96
9.23
7.06
4.42
1.56
-1.13
-3.34
-4.95
-6.12
-7.18
-8.40
-9.93
-11.76
-13.90
-16.44
-19.59
-23.55
-28.27
-33.19
-37.30
-39.33
-38.23
-33.57
-25.79
-16.07
-5.88
3.40
10.92
16.40
19.96
21.92
22.51
21.87
20.22
17.89
15.41
13.42
12.44
12.72
14.16
16.36
18.79
20.99
22.68
23.78
24.32
24.36
23.89
22.80
20.98
18.43
15.32
11.95
8.65
5.64
2.93
0.36
-2.21
-4.88
-7.59
-10.25
-12.82
-15.40
-18.24
-21.58
-25.47
-29.63
-33.41
-35.84
-36.05
-33.43
-28.01
-20.40
-11.72
-3.09
4.66
11.15
16.38
20.44
23.30
24.72
24.52
22.72
19.81
16.33
12.88
9.83
7.37
5.73
5.25
6.22
8.67
11.95
15.01
16.70
16.41
14.35
11.45
8.83
7.18
6.33
5.53
3.93
1.22
-2.22
-5.49
-7.78
-8.78
-9.12
-9.80
-11.68
-14.90
-18.86
-22.47
-24.99
-26.37
-27.40
-29.01
-31.48
-34.02
-35.01
-32.74
-26.44
-16.72
-5.51
4.83
12.55
17.08
19.01
19.47
19.44
19.34
18.95
17.87
15.97
13.57
11.35
10.01
9.94
11.14
13.09
15.15
16.71
17.41
17.10
15.90
14.04
11.81
9.43
7.04
4.63
2.08
-0.78
-3.96
-7.32
-10.51
-13.16
-15.13
-16.52
-17.78
-19.41
-21.77
-24.94
-28.70
-32.62
-36.15
-38.77
-39.98
-39.33
-36.48
-31.33
-24.03
-15.14
-5.51
3.85
11.92
17.94
21.54
22.82
22.28
20.58
18.38
16.13
14.10
12.35
10.99
10.14
10.01
10.68
12.02
13.68
15.18
16.08
16.14
15.41
14.18
12.79
11.51
10.40
9.34
8.13
6.57
4.61
2.34
-0.03
-2.30
-4.34
-6.18
-8.00
-10.03
-12.50
-15.54
-19.15
-23.25
-27.61
-31.88
-35.59
-38.12
-38.79
-36.94
-32.26
-24.94
-15.76
-5.96
3.13
10.45
15.48
18.29
19.33
19.16
18.18
16.65
14.78
12.84
11.24
10.41
10.66
12.00
14.14
16.53
18.63
20.06
20.69
20.63
20.07
19.13
17.82
16.02
13.62
10.64
7.29
3.95
0.99
-1.33
-2.99
-4.25
-5.36
-6.54
-7.80
-9.05
-10.30
-11.75
-13.79
-16.88
-21.19
-26.43
-31.81
-36.24
-38.69
-38.52
-35.63
-30.34
-23.35
-15.43
-7.31
0.35
7.00
12.15
15.54
17.09
17.04
15.83
14.07
12.38
11.17
10.67
10.88
11.68
12.93
14.50
16.27
18.11
19.70
20.65
20.64
19.51
17.47
14.95
12.48
10.37
8.57
6.72
4.39
1.38
-2.12
-5.66
-8.71
-11.06
-12.88
-14.64
-16.80
-19.58
-22.91
-26.48
-29.97
-33.13
-35.79
-37.70
-38.45
-37.48
-34.25
-28.63
-20.97
-12.08
-3.09
5.00
11.48
16.06
18.79
19.88
19.61
18.34
16.40
14.18
12.09
10.44
9.42
9.04
9.26
9.99
11.08
12.34
13.45
14.08
13.91
12.80
10.86
8.39
5.77
3.27
0.96
-1.31
-3.73
-6.43
-9.34
-12.22
-14.75
-16.74
-18.20
-19.42
-20.86
-22.96
-25.98
-29.86
-34.18
-38.18
-40.97
-41.75
-39.96
-35.46
-28.54
-19.84
-10.19
-0.53
8.28
15.50
20.65
23.55
24.31
23.38
21.37
18.92
16.55
14.53
13.02
12.00
11.47
11.48
12.04
13.08
14.39
15.64
16.49
16.65
16.01
14.69
12.92
10.93
8.87
6.68
4.23
1.43
-1.69
-4.88
-7.81
-10.22
-12.06
-13.57
-15.13
-17.19
-20.04
-23.72
-28.07
-32.67
-36.89
-39.99
-41.16
-39.72
-35.29
-28.00
-18.52
-7.97
2.40
11.41
18.35
22.94
25.39
26.15
25.73
24.52
22.80
20.73
18.53
16.47
14.94
14.24
14.53
15.67
17.30
18.92
20.09
20.58
20.37
19.64
18.62
17.40
15.92
13.97
11.31
7.85
3.81
-0.32
-3.99
-6.81
-8.76
-10.17
-11.54
-13.36
-15.89
-19.15
-23.00
-27.21
-31.47
-35.29
-37.98
-38.81
-37.17
-32.84
-26.23
-18.25
-10.02
-2.54
3.55
8.01
10.98
12.68
13.30
13.01
11.87
10.12
8.06
6.20
5.08
5.08
6.28
8.41
10.90
13.11
14.54
15.04
14.76
14.05
13.22
12.35
11.29
9.72
7.42
4.36
0.74
-3.00
-6.41
-9.19
-11.29
-12.95
-14.60
-16.66
-19.39
-22.78
-26.57
-30.28
-33.40
-35.42
-35.84
-34.29
-30.55
-24.60
-16.80
-7.96
0.86
8.54
14.25
17.65
18.99
18.92
18.13
17.14
16.16
15.19
14.19
13.29
12.79
13.03
14.14
15.92
17.79
19.06
19.19
18.01
15.84
13.15
10.45
7.96
5.58
3.03
0.15
-3.02
-6.20
-9.12
-11.68
-13.96
-16.18
-18.48
-20.78
-23.00
-25.14
-27.43
-30.22
-33.61
-37.22
-40.06
-40.85
-38.54
-32.75
-23.97
-13.44
-2.67
6.99
14.63
19.86
22.73
23.69
23.18
21.72
19.71
17.43
15.14
13.21
12.04
12.06
13.28
15.34
17.58
19.36
20.44
21.07
21.75
22.82
24.01
24.52
23.55
20.74
16.52
11.91
7.93
5.07
2.96
0.81
-2.10
-5.90
-10.02
-13.64
-16.31
-18.22
-20.32
-23.62
-28.45
-34.11
-38.92
-40.96
-38.95
-32.76
-23.61
-13.42
-3.97
3.65
9.30
13.36
16.36
18.54
19.75
19.73
18.35
15.92
13.02
10.44
8.91
8.89
10.42
13.15
16.40
19.37
21.41
22.20
21.83
20.72
19.29
17.76
16.07
13.95
11.17
7.71
3.85
0.03
-3.32
-5.98
-8.01
-9.78
-11.76
-14.41
-18.02
-22.60
-27.89
-33.36
-38.30
-41.93
-43.49
-42.45
-38.57
-32.03
-23.39
-13.50
-3.30
6.20
14.17
19.98
23.32
24.26
23.22
20.89
18.02
15.29
13.17
11.89
11.53
12.07
13.40
15.30
17.39
19.22
20.37
20.62
20.01
18.79
17.26
15.60
13.78
11.59
8.82
5.38
1.44
-2.63
-6.38
-9.55
-12.11
-14.43
-17.09
-20.63
-25.36
-31.06
-37.03
-42.22
-45.51
-46.00
-43.21
-37.25
-28.67
-18.39
-7.48
2.97
12.08
19.21
24.07
26.73
27.43
26.64
24.88
22.68
20.54
18.90
18.05
18.11
18.95
20.26
21.66
22.74
23.24
23.02
22.07
20.46
18.32
15.82
13.14
10.36
7.50
4.51
1.35
-1.91
-5.03
-7.70
-9.72
-11.14
-12.30
-13.81
-16.27
-20.01
-24.92
-30.37
-35.41
-38.96
-40.12
-38.38
-33.66
-26.29
-16.95
-6.51
3.98
13.49
21.21
26.64
29.77
30.99
30.86
29.92
28.42
26.41
23.90
21.09
18.46
16.62
16.06
16.85
18.45
20.01
20.73
20.19
18.54
16.36
14.30
12.77
11.56
10.05
7.62
4.01
-0.43
-4.83
-8.29
-10.32
-11.20
-11.79
-13.05
-15.55
-19.20
-23.44
-27.58
-31.12
-33.92
-35.93
-36.88
-36.16
-33.04
-27.08
-18.49
-8.20
2.28
11.46
18.23
22.27
23.82
23.54
22.11
20.07
17.72
15.27
12.96
11.14
10.20
10.44
11.90
14.35
17.22
19.89
21.79
22.58
22.23
20.92
18.96
16.69
14.27
11.76
9.07
6.16
3.08
-0.05
-3.03
-5.70
-8.07
-10.37
-12.98
-16.33
-20.73
-26.15
-32.11
-37.67
-41.67
-43.04
-41.18
-36.14
-28.57
-19.52
-10.10
-1.17
6.67
13.06
17.80
20.69
21.67
20.84
18.53
15.38
12.16
9.59
8.16
8.00
8.93
10.56
12.44
14.28
15.94
17.38
18.52
19.19
19.22
18.47
16.92
14.71
12.07
9.18
6.11
2.88
-0.46
-3.77
-6.89
-9.63
-11.97
-14.12
-16.47
-19.50
-23.51
-28.46
-33.80
-38.52
-41.37
-41.32
-37.83
-31.20
-22.32
-12.45
-2.78
5.89
13.15
18.91
23.10
25.64
26.47
25.69
23.72
21.22
18.95
17.54
17.28
18.10
19.66
21.51
23.26
24.69
25.73
26.36
26.59
26.32
25.43
23.79
21.33
18.13
14.39
10.34
6.23
2.18
-1.75
-5.54
-9.15
-12.51
-15.58
-18.37
-21.10
-24.14
-27.80
-32.18
-36.94
-41.20
-43.87
-43.85
-40.55
-34.09
-25.31
-15.46
-5.87
2.47
9.02
13.69
16.62
18.04
18.13
17.12
15.31
13.20
11.39
10.45
10.70
12.11
14.32
16.80
19.00
20.60
21.46
21.58
20.99
19.69
17.64
14.89
11.58
8.04
4.57
1.41
-1.39
-3.94
-6.44
-8.94
-11.35
-13.46
-15.12
-16.39
-17.65
-19.44
-22.25
-26.17
-30.75
-34.95
-37.53
-37.39
-34.02
-27.71
-19.40
-10.36
-1.76
5.67
11.62
16.09
19.08
20.55
20.39
18.64
15.65
12.11
8.85
6.59
5.70
6.16
7.62
9.62
11.77
13.82
15.62
17.07
18.02
18.29
17.81
16.54
14.63
12.29
9.70
6.99
4.20
1.36
-1.50
-4.31
-6.96
-9.39
-11.68
-14.11
-17.08
-20.94
-25.79
-31.24
-36.29
-39.65
-40.09
-36.93
-30.38
-21.50
-11.82
-2.74
4.85
10.62
14.66
17.16
18.18
17.73
15.99
13.39
10.63
8.32
6.89
6.36
6.51
7.16
8.30
9.97
12.17
14.49
16.30
16.96
16.21
14.37
12.14
10.21
8.91
7.80
6.18
3.50
-0.16
-4.04
-7.02
-8.38
-8.12
-7.31
-7.39
-9.50
-13.91
-19.84
-25.84
-30.43
-32.64
-32.48
-30.48
-27.27
-23.15
-17.98
-11.45
-3.60
4.93
12.83
18.65
21.46
21.30
19.18
16.58
14.77
14.38
15.12
16.26
17.18
17.75
18.28
19.27
20.97
23.20
25.29
26.55
26.51
25.16
22.79
19.81
16.51
13.03
9.35
5.49
1.53
-2.33
-5.94
-9.17
-12.02
-14.56
-16.96
-19.42
-22.20
-25.49
-29.30
-33.29
-36.75
-38.68
-38.11
-34.51
-27.98
-19.31
-9.71
-0.44
7.51
13.66
17.90
20.36
21.23
20.61
18.64
15.55
11.86
8.29
5.60
4.36
4.68
6.20
8.22
10.03
11.20
11.68
11.71
11.58
11.35
10.80
9.55
7.28
4.01
0.10
-3.86
-7.33
-9.99
-11.92
-13.44
-14.96
-16.88
-19.37
-22.47
-26.04
-29.79
-33.26
-35.81
-36.72
-35.35
-31.37
-24.96
-16.74
-7.74
0.98
8.50
14.28
18.12
20.12
20.55
19.73
17.94
15.51
12.76
10.10
8.02
6.99
7.28
8.85
11.37
14.17
16.58
18.04
18.35
17.64
16.17
14.26
12.03
9.41
6.26
2.50
-1.72
-6.03
-9.95
-13.09
-15.37
-17.02
-18.56
-20.53
-23.26
-26.77
-30.77
-34.77
-38.18
-40.43
-40.97
-39.27
-35.01
-28.19
-19.28
-9.32
0.38
8.66
14.74
18.53
20.38
20.97
20.83
20.26
19.38
18.19
16.81
15.54
14.79
14.91
15.91
17.53
19.23
20.41
20.69
20.04
18.77
17.27
15.69
13.90
11.48
8.10
3.83
-0.82
-5.04
-8.20
-10.19
-11.39
-12.44
-13.90
-15.92
-18.28
-20.66
-22.93
-25.35
-28.25
-31.63
-34.91
-36.92
-36.32
-32.26
-24.82
-15.18
-5.13
3.70
10.38
14.93
18.05
20.54
22.83
24.63
25.36
24.50
22.05
18.64
15.23
12.82
11.92
12.43
13.76
15.11
15.83
15.65
14.68
13.29
11.90
10.69
9.61
8.41
6.75
4.48
1.69
-1.32
-4.14
-6.44
-8.10
-9.25
-10.22
-11.35
-12.95
-15.16
-17.94
-21.15
-24.57
-28.00
-31.11
-33.43
-34.30
-33.05
-29.20
-22.77
-14.38
-5.18
3.47
10.43
15.07
17.36
17.80
16.99
15.48
13.59
11.48
9.26
7.19
5.66
5.08
5.70
7.41
9.78
12.14
13.88
14.66
14.47
13.60
12.37
11.02
9.54
7.69
5.25
2.17
-1.35
-4.82
-7.77
-9.85
-11.07
-11.82
-12.65
-14.18
-16.79
-20.53
-25.12
-30.00
-34.45
-37.73
-39.13
-38.11
-34.46
-28.29
-20.16
-10.96
-1.76
6.47
13.00
17.44
19.80
20.37
19.63
18.05
16.05
13.93
11.89
10.16
9.01
8.74
9.46
11.05
13.10
14.95
16.07
16.17
15.36
14.04
12.63
11.31
9.93
8.11
5.49
2.00
-2.03
-6.03
-9.37
-11.72
-13.19
-14.29
-15.65
-17.84
-21.08
-25.22
-29.80
-34.14
-37.52
-39.25
-38.84
-36.02
-30.85
-23.67
-15.11
-5.92
3.08
11.13
17.57
22.04
24.38
24.81
23.76
21.83
19.61
17.56
15.96
14.94
14.56
14.83
15.66
16.86
18.14
19.09
19.39
18.93
17.82
16.36
14.81
13.22
11.38
8.95
5.63
1.46
-3.22
-7.81
-11.73
-14.69
-16.78
-18.39
-20.09
-22.31
-25.22
-28.67
-32.24
-35.32
-37.25
-37.43
-35.46
-31.18
-24.76
-16.65
-7.59
1.50
9.70
16.19
20.50
22.54
22.64
21.39
19.43
17.31
15.36
13.71
12.42
11.52
11.09
11.17
11.73
12.60
13.50
14.12
14.24
13.83
13.05
12.24
11.64
11.33
11.11
10.69
9.73
8.12
5.99
3.65
1.29
-1.02
-3.50
-6.39
-9.94
-14.16
-18.88
-23.84
-28.71
-33.14
-36.60
-38.46
-38.06
-34.93
-29.03
-20.93
-11.69
-2.61
5.18
10.97
14.58
16.28
16.59
16.03
14.96
13.58
11.99
10.30
8.75
7.67
7.48
8.37
10.28
12.77
15.18
16.90
17.61
17.31
16.23
14.47
11.97
8.57
4.29
-0.45
-4.84
-8.05
-9.59
-9.83
-9.68
-10.23
-12.13
-15.30
-19.08
-22.76
-25.92
-28.69
-31.29
-33.58
-34.87
-34.03
-30.04
-22.73
-12.89
-2.39
6.83
13.42
17.16
18.80
19.61
20.50
21.63
22.32
21.66
19.23
15.50
11.81
9.67
10.00
12.67
16.41
19.57
20.86
19.95
17.47
14.51
11.99
10.22
8.74
6.82
3.89
-0.03
-4.41
-8.43
-11.48
-13.35
-14.37
-15.15
-16.32
-18.29
-21.21
-24.95
-29.16
-33.29
-36.67
-38.53
-38.19
-35.24
-29.73
-22.18
-13.46
-4.55
3.70
10.67
15.99
19.53
21.33
21.60
20.72
19.20
17.59
16.38
15.85
16.08
16.94
18.16
19.46
20.58
21.34
21.65
21.42
20.58
19.02
16.72
13.78
10.41
6.91
3.50
0.30
-2.76
-5.73
-8.59
-11.15
-13.13
-14.35
-14.93
-15.35
-16.26
-18.27
-21.61
-25.98
-30.52
-34.03
-35.32
-33.60
-28.75
-21.36
-12.52
-3.48
4.72
11.46
16.55
20.04
22.01
22.55
21.72
19.72
16.99
14.14
11.82
10.52
10.41
11.26
12.64
14.05
15.13
15.73
15.86
15.64
15.11
14.22
12.90
11.08
8.83
6.32
3.76
1.30
-1.03
-3.27
-5.48
-7.63
-9.62
-11.36
-12.90
-14.48
-16.58
-19.61
-23.72
-28.60
-33.36
-36.82
-37.87
-35.84
-30.78
-23.37
-14.64
-5.67
2.80
10.31
16.64
21.57
24.83
26.16
25.55
23.31
20.16
16.92
14.36
12.89
12.53
13.04
14.09
15.38
16.74
18.04
19.06
19.55
19.27
18.09
16.03
13.28
10.20
7.05
4.05
1.29
-1.23
-3.53
-5.58
-7.36
-8.89
-10.41
-12.31
-15.06
-18.99
-24.01
-29.48
-34.34
-37.38
-37.77
-35.21
-30.07
-23.12
-15.20
-6.98
1.03
8.45
14.77
19.40
21.83
21.91
20.01
16.97
13.82
11.42
10.06
9.60
9.65
9.94
10.45
11.40
12.94
14.99
17.06
18.45
18.67
17.55
15.40
12.74
10.05
7.58
5.23
2.72
-0.12
-3.33
-6.67
-9.85
-12.62
-14.90
-16.83
-18.70
-20.89
-23.73
-27.35
-31.62
-36.00
-39.70
-41.77
-41.46
-38.39
-32.70
-25.00
-16.18
-7.15
1.36
8.85
15.05
19.76
22.89
24.47
24.61
23.65
22.08
20.48
19.33
18.94
19.35
20.37
21.70
23.00
24.05
24.78
25.15
25.13
24.64
23.56
21.82
19.49
16.75
13.88
11.05
8.30
5.53
2.60
-0.56
-3.89
-7.12
-10.03
-12.47
-14.56
-16.66
-19.27
-22.76
-27.23
-32.25
-36.97
-40.30
-41.18
-39.03
-33.89
-26.40
-17.62
-8.65
-0.37
6.69
12.32
16.41
18.89
19.74
19.06
17.20
14.74
12.37
10.66
9.89
10.10
11.12
12.72
14.73
17.02
19.40
21.55
23.07
23.59
22.96
21.31
19.06
16.65
14.39
12.29
10.13
7.64
4.69
1.45
-1.70
-4.35
-6.31
-7.77
-9.25
-11.39
-14.68
-19.27
-24.75
-30.39
-35.22
-38.33
-39.14
-37.37
-33.15
-26.88
-19.12
-10.54
-1.84
6.29
13.26
18.65
22.24
24.01
24.18
23.13
21.32
19.22
17.26
15.69
14.70
14.38
14.76
15.78
17.25
18.81
19.94
20.20
19.36
17.48
14.91
12.06
9.16
6.21
3.04
-0.57
-4.62
-8.87
-12.86
-16.16
-18.62
-20.36
-21.83
-23.60
-26.12
-29.58
-33.82
-38.31
-42.32
-45.08
-45.94
-44.52
-40.69
-34.63
-26.75
-17.67
-8.23
0.72
8.35
14.10
17.75
19.47
19.74
19.12
18.09
16.95
15.88
15.01
14.56
14.75
15.77
17.59
19.96
22.35
24.23
25.13
24.87
23.57
21.57
19.24
16.82
14.35
11.69
8.69
5.37
1.88
-1.42
-4.25
-6.50
-8.31
-10.03
-12.06
-14.67
-18.01
-22.03
-26.56
-31.34
-35.98
-39.86
-42.19
-42.19
-39.28
-33.38
-25.05
-15.37
-5.63
3.03
9.87
14.67
17.64
19.18
19.72
19.61
19.05
18.26
17.47
16.93
16.85
17.29
18.16
19.22
20.18
20.86
21.18
21.22
21.13
20.92
20.51
19.65
18.05
15.53
12.13
8.10
3.92
-0.05
-3.51
-6.46
-9.07
-11.54
-13.97
-16.28
-18.29
-20.18
-22.29
-25.11
-28.99
-33.70
-38.36
-41.70
-42.52
-40.30
-35.28
-28.29
-20.29
-11.92
-3.45
4.99
13.08
20.03
24.83
26.76
25.85
23.01
19.70
17.24
16.31
16.53
17.00
16.90
16.02
14.89
14.44
15.24
17.22
19.42
20.67
20.17
17.93
14.74
11.67
9.49
8.33
7.66
6.66
4.78
1.95
-1.37
-4.53
-7.03
-8.65
-9.65
-10.47
-11.61
-13.53
-16.47
-20.52
-25.45
-30.67
-35.32
-38.42
-39.00
-36.55
-31.10
-23.23
-13.92
-4.27
4.74
12.43
18.40
22.46
24.58
24.85
23.58
21.25
18.49
15.95
14.08
13.03
12.69
12.80
13.12
13.54
14.07
14.71
15.30
15.59
15.23
14.02
11.98
9.39
6.59
3.90
1.45
-0.87
-3.23
-5.79
-8.56
-11.37
-13.93
-16.04
-17.67
-19.08
-20.73
-23.13
-26.57
-31.00
-35.95
-40.61
-44.03
-45.30
-43.82
-39.41
-32.32
-23.22
-13.04
-2.81
6.54
14.28
19.98
23.49
24.99
24.80
23.42
21.35
19.10
17.08
15.56
14.71
14.55
15.05
16.10
17.51
19.04
20.41
21.31
21.53
20.96
19.65
17.79
15.53
12.96
10.10
6.88
3.29
-0.50
-4.17
-7.35
-9.76
-11.40
-12.52
-13.59
-15.03
-17.14
-19.98
-23.42
-27.21
-30.99
-34.32
-36.61
-37.18
-35.41
-30.89
-23.70
-14.49
-4.37
5.34
13.44
19.21
22.56
23.99
24.19
23.84
23.21
22.26
20.81
18.92
16.99
15.63
15.30
15.98
17.18
18.16
18.39
17.80
16.79
15.88
15.24
14.61
13.39
11.08
7.65
3.56
-0.44
-3.79
-6.37
-8.53
-10.78
-13.40
-16.28
-19.04
-21.30
-22.99
-24.63
-26.81
-29.94
-33.71
-37.08
-38.61
-37.12
-32.15
-24.36
-15.16
-6.09
1.70
7.88
12.75
16.76
20.13
22.51
23.30
22.06
18.95
14.81
10.93
8.45
7.92
9.03
10.88
12.44
13.01
12.53
11.45
10.38
9.80
9.71
9.78
9.48
8.42
6.50
3.95
1.16
-1.42
-3.58
-5.36
-7.04
-9.03
-11.69
-15.23
-19.65
-24.70
-29.99
-35.02
-39.26
-42.14
-43.11
-41.69
-37.60
-30.87
-22.01
-11.97
-1.95
6.86
13.58
17.88
19.97
20.38
19.76
18.58
17.14
15.59
14.06
12.76
11.99
11.94
12.66
13.90
15.21
16.07
16.10
15.22
13.61
11.64
9.63
7.75
5.94
4.02
1.88
-0.45
-2.72
-4.65
-6.03
-6.94
-7.73
-8.94
-11.07
-14.47
-19.13
-24.69
-30.52
-35.85
-39.82
-41.68
-40.90
-37.27
-30.92
-22.42
-12.61
-2.55
6.73
14.39
19.88
23.05
24.10
23.46
21.68
19.30
16.75
14.28
12.14
10.48
9.51
9.38
10.13
11.63
13.55
15.44
16.93
17.79
17.99
17.70
17.13
16.43
15.57
14.37
12.63
10.26
7.34
4.16
1.07
-1.75
-4.33
-6.99
-10.13
-14.04
-18.79
-24.11
-29.50
-34.32
-37.88
-39.54
-38.78
-35.35
-29.30
-21.10
-11.56
-1.70
7.46
15.05
20.51
23.68
24.73
24.14
22.48
20.31
18.02
15.86
13.96
12.50
11.67
11.70
12.64
14.34
16.30
17.93
18.71
18.42
17.25
15.59
13.84
12.17
10.47
8.45
5.89
2.79
-0.56
-3.69
-6.21
-7.95
-9.08
-10.05
-11.43
-13.66
-16.96
-21.14
-25.72
-30.00
-33.19
-34.62
-33.83
-30.67
-25.33
-18.25
-10.13
-1.76
6.05
12.60
17.39
20.13
20.90
20.01
18.01
15.48
12.95
10.77
9.18
8.32
8.35
9.37
11.37
14.06
16.88
19.18
20.38
20.27
19.03
17.12
15.01
12.94
10.88
8.55
5.73
2.42
-1.13
-4.47
-7.26
-9.44
-11.26
-13.19
-15.70
-19.09
-23.35
-28.19
-33.10
-37.41
-40.41
-41.43
-40.00
-35.96
-29.52
-21.29
-12.20
-3.28
4.43
10.19
13.67
15.00
14.74
13.62
12.36
11.40
10.89
10.78
10.98
11.52
12.49
13.83
15.35
16.70
17.55
17.75
17.46
16.98
16.55
16.11
15.39
13.98
11.70
8.68
5.40
2.43
0.25
-1.06
-1.71
-2.14
-2.85
-4.25
-6.54
-9.78
-13.82
-18.52
-23.56
-28.44
-32.48
-34.80
-34.54
-31.20
-24.82
-16.35
-7.21
1.05
7.40
11.66
14.37
16.32
17.98
19.13
19.15
17.53
14.46
10.93
8.40
8.04
10.10
13.69
17.34
19.70
20.26
19.44
18.24
17.54
17.61
17.95
17.68
16.09
13.06
9.10
5.00
1.46
-1.23
-3.25
-5.02
-6.91
-9.06
-11.44
-13.95
-16.60
-19.49
-22.86
-26.79
-31.00
-34.84
-37.42
-37.80
-35.38
-30.03
-22.27
-13.05
-3.54
5.17
12.32
17.52
20.77
22.29
22.40
21.42
19.59
17.19
14.54
12.06
10.23
9.45
9.93
11.61
14.13
16.91
19.35
21.00
21.67
21.41
20.41
18.78
16.49
13.41
9.45
4.74
-0.29
-5.05
-9.00
-11.97
-14.20
-16.18
-18.53
-21.67
-25.66
-30.19
-34.69
-38.38
-40.49
-40.41
-37.85
-32.91
-26.10
-18.19
-9.98
-2.20
4.62
10.11
14.00
16.13
16.55
15.51
13.51
11.15
8.97
7.29
6.27
5.86
6.04
6.75
7.97
9.51
11.09
12.35
13.04
13.05
12.44
11.35
9.85
7.90
5.39
2.28
-1.30
-5.04
-8.53
-11.50
-13.86
-15.86
-17.93
-20.48
-23.81
-27.89
-32.35
-36.44
-39.26
-39.94
-37.91
-33.14
-26.10
-17.69
-8.87
-0.47
7.02
13.34
18.37
21.96
23.98
24.32
23.15
20.94
18.39
16.19
14.85
14.50
14.95
15.82
16.82
17.76
18.67
19.59
20.45
21.01
20.92
19.93
17.97
15.30
12.30
9.33
6.56
3.95
1.31
-1.47
-4.35
-7.18
-9.90
-12.62
-15.65
-19.34
-23.81
-28.80
-33.65
-37.46
-39.48
-39.23
-36.60
-31.83
-25.31
-17.56
-9.10
-0.59
7.17
13.39
17.46
19.22
19.01
17.64
15.98
14.76
14.16
14.02
14.05
14.15
14.52
15.49
17.27
19.69
22.12
23.78
24.16
23.23
21.43
19.36
17.43
15.63
13.56
10.71
6.87
2.30
-2.40
-6.50
-9.60
-11.69
-13.23
-14.86
-17.09
-20.17
-23.92
-27.81
-31.12
-33.04
-32.88
-30.22
-25.06
-17.81
-9.23
-0.26
8.22
15.53
21.24
25.18
27.30
27.65
26.35
23.62
19.94
15.98
12.56
10.31
9.50
9.93
10.99
11.99
12.50
12.48
12.28
12.28
12.69
13.36
13.85
13.68
12.53
10.46
7.80
4.95
2.21
-0.35
-2.87
-5.61
-8.72
-12.26
-16.16
-20.35
-24.85
-29.70
-34.77
-39.64
-43.42
-45.05
-43.56
-38.61
-30.67
-20.96
-10.98
-2.05
5.17
10.63
14.73
17.89
20.27
21.79
22.28
21.75
20.53
19.21
18.36
18.35
19.10
20.21
21.13
21.38
20.78
19.47
17.77
16.01
14.32
12.61
10.63
8.16
5.15
1.78
-1.66
-4.82
-7.55
-9.88
-12.00
-14.20
-16.68
-19.53
-22.74
-26.23
-29.94
-33.68
-37.07
-39.43
-39.90
-37.59
-32.04
-23.41
-12.62
-1.12
9.54
18.19
24.31
28.07
30.02
30.81
30.77
29.97
28.26
25.65
22.46
19.31
16.97
15.95
16.29
17.53
18.96
19.93
20.11
19.59
18.71
17.77
16.82
15.68
14.00
11.55
8.37
4.78
1.26
-1.82
-4.31
-6.37
-8.34
-10.51
-13.08
-16.10
-19.54
-23.39
-27.66
-32.23
-36.76
-40.55
-42.68
-42.27
-38.83
-32.49
-24.10
-14.91
-6.26
0.91
6.23
9.88
12.25
13.67
14.20
13.77
12.36
10.23
8.02
6.49
6.25
7.44
9.71
12.36
14.68
16.20
16.88
16.96
16.70
16.27
15.59
14.40
12.48
9.75
6.43
2.92
-0.31
-2.97
-5.00
-6.61
-8.18
-10.08
-12.52
-15.52
-18.95
-22.64
-26.38
-29.88
-32.72
-34.25
-33.76
-30.69
-24.98
-17.16
-8.28
0.42
7.91
13.64
17.52
19.82
20.83
20.71
19.57
17.62
15.23
13.02
11.65
11.63
12.99
15.33
17.89
19.87
20.75
20.46
19.38
18.06
16.89
15.89
14.64
12.60
9.45
5.29
0.78
-3.31
-6.37
-8.34
-9.64
-10.99
-12.97
-15.82
-19.42
-23.57
-28.09
-32.82
-37.44
-41.14
-42.75
-41.10
-35.63
-26.90
-16.41
-6.14
2.37
8.52
12.69
15.74
18.37
20.60
21.97
21.98
20.52
18.17
15.87
14.53
14.54
15.52
16.73
17.46
17.42
16.85
16.34
16.33
16.89
17.38
16.95
14.91
11.17
6.43
1.78
-1.79
-3.87
-4.97
-6.02
-7.89
-10.84
-14.43
-17.86
-20.52
-22.44
-24.27
-26.85
-30.52
-34.74
-38.21
-39.38
-37.15
-31.35
-22.86
-13.15
-3.76
4.21
10.32
14.65
17.55
19.41
20.38
20.45
19.53
17.63
15.04
12.29
10.07
9.03
9.45
11.21
13.75
16.36
18.40
19.52
19.69
19.12
18.05
16.65
14.87
12.59
9.65
6.01
1.87
-2.39
-6.30
-9.49
-11.84
-13.56
-15.03
-16.67
-18.76
-21.36
-24.36
-27.54
-30.64
-33.27
-34.89
-34.86
-32.60
-27.82
-20.80
-12.34
-3.59
4.29
10.50
14.73
17.10
17.98
17.75
16.70
15.06
13.03
10.89
8.92
7.45
6.71
6.85
7.85
9.52
11.48
13.28
14.52
15.00
14.82
14.26
13.65
13.09
12.39
11.19
9.19
6.37
3.10
-0.07
-2.72
-4.77
-6.55
-8.57
-11.31
-14.96
-19.39
-24.26
-29.15
-33.64
-37.22
-39.29
-39.25
-36.60
-31.20
-23.48
-14.33
-4.94
3.57
10.39
15.18
18.06
19.37
19.60
19.15
18.32
17.28
16.15
15.08
14.31
14.16
14.85
16.39
18.49
20.63
22.29
23.14
23.17
22.62
21.69
20.43
18.68
16.19
12.90
8.99
4.88
1.05
-2.22
-4.92
-7.26
-9.49
-11.76
-14.07
-16.25
-18.19
-19.92
-21.70
-23.88
-26.70
-30.06
-33.35
-35.62
-35.78
-33.17
-27.74
-20.25
-11.94
-4.06
2.50
7.41
10.81
12.91
13.79
13.46
11.94
9.60
7.07
5.20
4.56
5.26
6.87
8.75
10.36
11.59
12.72
14.13
16.01
18.03
19.52
19.81
18.60
16.19
13.28
10.63
8.68
7.21
5.65
3.47
0.47
-3.02
-6.34
-8.94
-10.62
-11.73
-12.94
-14.94
-18.11
-22.42
-27.47
-32.63
-37.13
-40.29
-41.44
-40.06
-35.90
-29.08
-20.11
-9.94
0.33
9.60
17.07
22.30
25.24
26.15
25.45
23.62
21.18
18.60
16.24
14.32
12.94
12.06
11.61
11.56
11.97
12.79
13.93
15.10
15.91
16.00
15.20
13.60
11.52
9.30
7.17
5.14
3.07
0.81
-1.67
-4.24
-6.69
-8.83
-10.58
-12.09
-13.58
-15.30
-17.43
-20.00
-22.95
-26.18
-29.49
-32.58
-34.98
-36.01
-35.00
-31.49
-25.38
-17.15
-7.73
1.73
10.14
16.73
21.14
23.40
23.83
22.86
20.94
18.45
15.70
12.97
10.57
8.81
7.97
8.20
9.41
11.22
13.06
14.37
14.79
14.25
13.00
11.43
9.81
8.21
6.43
4.24
1.53
-1.60
-4.81
-7.72
-10.14
-12.12
-13.94
-15.89
-18.10
-20.51
-23.01
-25.54
-28.21
-31.21
-34.57
-37.96
-40.62
-41.55
-39.81
-34.97
-27.28
-17.68
-7.56
1.70
9.06
14.04
16.80
17.83
17.69
16.76
15.16
12.89
10.08
7.07
4.46
2.91
2.83
4.28
6.84
9.87
12.67
14.84
16.25
17.08
17.58
17.91
18.02
17.69
16.65
14.84
12.37
9.53
6.58
3.71
0.91
-1.88
-4.70
-7.55
-10.34
-13.13
-16.13
-19.67
-24.05
-29.31
-34.97
-40.03
-43.21
-43.33
-39.74
-32.64
-23.01
-12.32
-2.07
6.72
13.63
18.74
22.39
24.79
25.97
25.84
24.39
21.97
19.19
16.83
15.44
15.19
15.81
16.85
17.84
18.50
18.82
18.85
18.59
17.88
16.49
14.22
11.06
7.21
3.07
-0.97
-4.64
-7.89
-10.79
-13.45
-15.92
-18.12
-19.88
-21.15
-22.07
-23.02
-24.51
-26.96
-30.42
-34.46
-38.21
-40.57
-40.55
-37.57
-31.66
-23.41
-13.78
-3.85
5.49
13.62
20.20
25.01
27.96
29.01
28.28
26.10
23.06
19.87
17.23
15.60
15.13
15.70
17.02
18.72
20.48
21.96
22.89
23.11
22.56
21.36
19.74
17.97
16.21
14.43
12.49
10.11
7.09
3.41
-0.71
-4.82
-8.52
-11.53
-13.94
-16.19
-18.85
-22.33
-26.65
-31.34
-35.73
-39.06
-40.68
-40.20
-37.36
-32.12
-24.76
-15.96
-6.93
0.99
6.66
9.64
10.24
9.40
8.13
7.08
6.24
5.31
4.05
2.67
1.86
2.45
4.85
8.77
13.09
16.51
18.17
18.05
16.94
15.95
15.78
16.30
16.48
15.06
11.30
5.41
-1.44
-7.70
-12.23
-14.80
-16.11
-17.33
-19.41
-22.68
-26.81
-31.11
-34.95
-37.87
-39.70
-40.22
-39.09
-35.85
-30.25
-22.43
-13.12
-3.41
5.43
12.47
17.19
19.60
20.01
18.93
16.85
14.30
11.75
9.62
8.30
8.04
8.92
10.87
13.68
17.05
20.60
23.96
26.74
28.62
29.41
29.03
27.58
25.29
22.41
19.16
15.63
11.80
7.67
3.27
-1.18
-5.36
-8.97
-11.82
-14.05
-16.01
-18.25
-21.22
-25.09
-29.57
-33.89
-36.98
-37.77
-35.54
-30.16
-22.17
-12.60
-2.66
6.61
14.53
20.80
25.35
28.22
29.46
29.14
27.48
24.85
21.80
18.93
16.77
15.63
15.60
16.56
18.29
20.46
22.82
25.04
26.79
27.72
27.53
26.09
23.50
20.09
16.30
12.51
8.91
5.51
2.17
-1.21
-4.57
-7.78
-10.70
-13.33
-15.87
-18.69
-22.08
-26.23
-31.07
-36.27
-41.30
-45.43
-47.92
-48.11
-45.56
-40.23
-32.42
-22.84
-12.41
-2.18
6.90
14.09
19.00
21.64
22.38
21.82
20.55
18.99
17.42
16.04
15.06
14.72
15.33
16.91
19.18
21.57
23.37
24.05
23.48
21.91
19.80
17.41
14.77
11.68
7.92
3.59
-0.90
-4.97
-8.19
-10.58
-12.59
-14.88
-17.87
-21.59
-25.66
-29.55
-32.92
-35.85
-38.55
-41.10
-43.19
-44.01
-42.60
-38.30
-31.08
-21.78
-11.74
-2.37
5.33
10.98
14.77
17.10
18.38
18.61
17.72
15.73
13.01
10.35
8.70
8.81
10.82
14.11
17.55
20.07
21.06
20.65
19.46
18.18
17.18
16.22
14.77
12.34
8.86
4.79
0.86
-2.30
-4.34
-5.43
-6.06
-6.72
-7.77
-9.31
-11.30
-13.70
-16.50
-19.83
-23.72
-27.99
-32.09
-35.11
-36.10
-34.29
-29.41
-21.90
-12.79
-3.36
5.19
12.13
17.17
20.48
22.45
23.42
23.64
23.25
22.37
21.19
20.04
19.27
19.26
20.12
21.74
23.72
25.50
26.60
26.73
25.92
24.38
22.44
20.31
18.01
15.41
12.40
8.90
5.01
1.03
-2.74
-6.07
-8.92
-11.46
-13.96
-16.70
-19.81
-23.23
-26.81
-30.46
-34.06
-37.53
-40.55
-42.53
-42.66
-40.10
-34.46
-25.93
-15.44
-4.40
5.76
13.90
19.47
22.53
23.54
23.09
21.71
19.69
17.24
14.55
11.93
9.87
8.87
9.20
10.79
13.15
15.61
17.46
18.32
18.24
17.51
16.53
15.52
14.41
12.95
10.90
8.21
5.12
1.99
-0.86
-3.28
-5.41
-7.50
-9.77
-12.35
-15.26
-18.43
-21.84
-25.47
-29.23
-32.81
-35.66
-37.02
-36.13
-32.55
-26.31
-18.06
-8.87
0.06
7.75
13.63
17.61
19.88
20.73
20.42
19.06
16.86
14.12
11.37
9.25
8.39
9.08
11.19
14.11
17.00
19.10
20.01
19.79
18.83
17.58
16.25
14.71
12.63
9.70
5.94
1.72
-2.41
-5.95
-8.76
-11.03
-13.15
-15.45
-18.06
-20.92
-23.93
-27.14
-30.71
-34.78
-39.15
-43.10
-45.49
-45.08
-41.10
-33.58
-23.46
-12.30
-1.67
7.28
14.11
19.01
22.39
24.59
25.72
25.70
24.49
22.30
19.59
16.99
15.05
14.06
14.01
14.62
15.48
16.23
16.62
16.64
16.36
15.90
15.35
14.66
13.71
12.34
10.50
8.29
5.89
3.47
1.14
-1.12
-3.39
-5.69
-8.00
-10.25
-12.46
-14.84
-17.74
-21.45
-25.98
-30.82
-35.04
-37.49
-37.25
-33.94
-27.84
-19.83
-11.06
-2.58
4.91
11.16
16.16
19.95
22.47
23.54
23.06
21.20
18.50
15.79
13.91
13.40
14.35
16.38
18.87
21.27
23.22
24.53
25.15
25.11
24.38
23.09
21.42
19.60
17.76
15.79
13.33
10.11
6.02
1.42
-3.08
-6.80
-9.42
-11.15
-12.59
-14.55
-17.65
-22.07
-27.54
-33.30
-38.29
-41.56
-42.37
-40.38
-35.70
-28.79
-20.25
-10.81
-1.16
7.72
14.90
19.65
21.67
21.43
19.89
18.13
16.87
16.17
15.61
14.76
13.60
12.63
12.58
13.86
16.26
18.76
20.17
19.67
17.30
13.90
10.64
8.29
6.82
5.36
2.84
-1.33
-6.82
-12.47
-16.88
-19.22
-19.56
-19.02
-19.09
-20.90
-24.77
-30.10
-35.68
-40.26
-42.87
-43.03
-40.66
-35.97
-29.30
-21.18
-12.30
-3.48
4.56
11.22
16.23
19.59
21.45
21.98
21.40
19.94
18.03
16.19
14.98
14.78
15.69
17.45
19.62
21.70
23.34
24.35
24.66
24.24
22.97
20.77
17.63
13.67
9.23
4.69
0.43
-3.35
-6.62
-9.54
-12.27
-14.95
-17.55
-20.00
-22.30
-24.60
-27.20
-30.44
-34.35
-38.57
-42.22
-44.16
-43.35
-39.24
-32.00
-22.46
-11.85
-1.45
7.80
15.38
21.11
25.05
27.27
27.85
26.99
25.02
22.48
20.01
18.17
17.22
17.12
17.57
18.14
18.54
18.69
18.65
18.58
18.48
18.18
17.39
15.83
13.41
10.28
6.82
3.46
0.53
-1.88
-3.93
-5.88
-7.99
-10.35
-12.93
-15.65
-18.51
-21.58
-24.98
-28.65
-32.17
-34.76
-35.45
-33.50
-28.67
-21.47
-12.94
-4.27
3.56
9.99
14.92
18.41
20.50
21.16
20.36
18.25
15.30
12.24
9.88
8.83
9.32
11.12
13.71
16.50
19.03
21.06
22.59
23.64
24.17
23.98
22.84
20.61
17.37
13.52
9.53
5.81
2.52
-0.45
-3.37
-6.48
-9.89
-13.53
-17.42
-21.69
-26.57
-32.18
-38.24
-43.94
-48.04
-49.34
-47.19
-41.69
-33.73
-24.55
-15.26
-6.56
1.24
8.01
13.46
17.18
18.78
18.22
15.98
13.02
10.44
9.14
9.39
10.91
13.12
15.44
17.56
19.46
21.16
22.64
23.52
23.36
21.91
19.29
16.03
12.79
10.00
7.70
5.42
2.65
-0.85
-4.95
-9.12
-12.86
-15.95
-18.61
-21.44
-25.09
-29.86
-35.52
-41.25
-45.87
-48.16
-47.23
-42.82
-35.31
-25.63
-15.04
-4.71
4.41
11.78
17.27
20.93
22.90
23.34
22.42
20.41
17.76
15.10
13.17
12.52
13.33
15.33
17.87
20.20
21.81
22.56
22.72
22.65
22.62
22.58
22.21
21.11
19.01
15.94
12.22
8.31
4.60
1.30
-1.60
-4.35
-7.22
-10.51
-14.39
-18.90
-23.95
-29.31
-34.58
-39.16
-42.32
-43.30
-41.47
-36.64
-29.13
-19.82
-9.94
-0.70
7.00
12.73
16.55
18.76
19.75
19.79
18.96
17.34
15.12
12.74
10.81
9.98
10.56
12.46
15.14
17.81
19.76
20.64
20.55
19.85
18.93
17.97
16.81
15.13
12.66
9.39
5.65
1.95
-1.31
-3.98
-6.30
-8.66
-11.46
-14.90
-18.91
-23.30
-27.89
-32.48
-36.74
-40.14
-41.88
-41.11
-37.28
-30.43
-21.29
-11.04
-0.98
7.89
15.01
20.29
23.86
25.89
26.46
25.62
23.53
20.54
17.24
14.36
12.53
12.04
12.79
14.30
15.91
17.04
17.34
16.78
15.56
13.99
12.23
10.30
8.01
5.17
1.70
-2.20
-6.13
-9.57
-12.18
-13.94
-15.21
-16.59
-18.73
-22.02
-26.44
-31.58
-36.68
-40.86
-43.23
-43.14
-40.23
-34.55
-26.54
-16.99
-6.96
2.49
10.44
16.33
19.97
21.60
21.64
20.61
18.99
17.16
15.41
13.99
13.17
13.16
14.04
15.70
17.82
19.93
21.51
22.22
21.89
20.60
18.59
16.11
13.34
10.31
7.00
3.41
-0.28
-3.73
-6.59
-8.61
-9.93
-10.92
-12.19
-14.32
-17.68
-22.25
-27.68
-33.25
-38.14
-41.43
-42.36
-40.47
-35.70
-28.46
-19.53
-9.93
-0.66
7.49
13.99
18.63
21.44
22.62
22.46
21.36
19.78
18.23
17.13
16.83
17.43
18.80
20.64
22.57
24.19
25.18
25.40
24.79
23.43
21.48
19.10
16.42
13.45
10.14
6.38
2.17
-2.34
-6.75
-10.64
-13.75
-16.12
-18.18
-20.55
-23.72
-27.78
-32.33
-36.67
-39.97
-41.46
-40.63
-37.23
-31.28
-23.16
-13.61
-3.85
4.89
11.59
15.78
17.69
17.99
17.44
16.44
14.94
12.72
9.74
6.43
3.70
2.52
3.42
6.21
10.01
13.71
16.47
18.04
18.72
19.02
19.25
19.28
18.49
16.26
12.40
7.35
2.17
-2.03
-4.59
-5.69
-6.42
-8.19
-12.04
-18.09
-25.44
-32.55
-37.88
-40.45
-40.08
-37.15
-32.17
-25.53
-17.39
-7.95
2.30
12.45
21.21
27.40
30.33
30.06
27.34
23.33
19.16
15.68
13.26
11.94
11.58
11.97
12.87
14.08
15.38
16.61
17.64
18.32
18.47
17.85
16.15
13.23
9.19
4.46
-0.37
-4.83
-8.66
-11.98
-15.07
-18.21
-21.57
-25.17
-29.01
-33.03
-37.07
-40.70
-43.19
-43.62
-41.25
-35.80
-27.70
-17.98
-8.00
1.03
8.31
13.56
16.93
18.72
19.27
18.82
17.59
15.82
13.86
12.11
10.96
10.66
11.26
12.64
14.50
16.50
18.28
19.51
19.91
19.36
17.87
15.65
13.01
10.25
7.53
4.89
2.18
-0.68
-3.81
-7.26
-11.19
-15.70
-20.81
-26.23
-31.23
-34.74
-35.64
-33.22
-27.47
-19.17
-9.67
-0.44
7.41
13.29
17.16
19.27
19.95
19.46
17.93
15.57
12.72
9.90
7.68
6.52
6.61
7.80
9.69
11.80
13.65
14.97
15.62
15.55
14.76
13.21
10.93
8.01
4.71
1.33
-1.85
-4.77
-7.56
-10.59
-14.20
-18.54
-23.34
-27.89
-31.18
-32.23
-30.41
-25.71
-18.71
-10.42
-1.95
5.80
12.19
16.90
19.77
20.79
20.07
17.92
14.86
11.60
8.84
7.09
6.55
7.10
8.37
9.93
11.42
12.66
13.52
13.93
13.81
13.01
11.35
8.77
5.40
1.53
-2.51
-6.48
-10.28
-13.99
-17.72
-21.50
-25.25
-28.77
-31.82
-34.05
-35.09
-34.47
-31.78
-26.77
-19.55
-10.72
-1.39
7.21
14.01
18.48
20.70
21.22
20.64
19.44
17.65
15.15
11.96
8.50
5.54
3.94
4.18
6.17
9.10
11.94
13.84
14.40
13.76
12.34
10.54
8.61
6.50
4.09
1.23
-2.08
-5.76
-9.74
-13.98
-18.45
-23.10
-27.73
-31.85
-34.77
-35.65
-33.84
-29.08
-21.61
-12.28
-2.25
7.21
15.12
20.87
24.32
25.64
25.24
23.59
21.17
18.38
15.58
13.09
11.13
9.84
9.30
9.48
10.23
11.24
12.09
12.29
11.43
9.33
6.14
2.26
-1.79
-5.58
-8.95
-11.95
-14.84
-17.89
-21.28
-25.08
-29.20
-33.41
-37.25
-40.04
-41.03
-39.47
-34.97
-27.65
-18.18
-7.72
2.43
11.13
17.64
21.71
23.59
23.79
22.90
21.42
19.65
17.72
15.74
13.86
12.37
11.54
11.51
12.17
13.14
13.93
14.04
13.24
11.53
9.14
6.36
3.46
0.56
-2.25
-4.91
-7.30
-9.36
-11.10
-12.79
-14.82
-17.61
-21.34
-25.71
-29.94
-32.89
-33.39
-30.75
-24.91
-16.61
-7.04
2.43
10.68
17.12
21.58
24.22
25.24
24.77
22.89
19.84
16.08
12.35
9.46
8.00
8.15
9.57
11.68
13.82
15.55
16.74
17.44
17.70
17.47
16.52
14.60
11.56
7.52
2.90
-1.69
-5.70
-8.84
-11.25
-13.37
-15.85
-19.15
-23.38
-28.16
-32.75
-36.25
-37.86
-37.08
-33.79
-28.27
-21.02
-12.78
-4.32
3.55
10.13
14.94
17.78
18.75
18.24
16.81
15.07
13.55
12.61
12.43
13.01
14.17
15.69
17.28
18.72
19.75
20.19
19.88
18.72
16.79
14.24
11.33
8.27
5.21
2.14
-0.98
-4.18
-7.48
-10.79
-14.12
-17.55
-21.29
-25.45
-29.86
-33.97
-36.85
-37.45
-35.03
-29.50
-21.50
-12.25
-3.12
4.82
10.98
15.28
17.88
19.01
18.80
17.38
15.00
12.14
9.45
7.62
7.08
7.83
9.49
11.46
13.15
14.16
14.39
13.97
13.09
11.82
10.11
7.80
4.83
1.27
-2.57
-6.28
-9.51
-12.13
-14.32
-16.46
-19.01
-22.32
-26.47
-31.19
-35.90
-39.84
-42.19
-42.32
-39.83
-34.70
-27.22
-18.01
-7.93
1.97
10.68
17.40
21.82
24.10
24.80
24.59
24.00
23.25
22.31
21.10
19.77
18.65
18.08
18.11
18.45
18.62
18.21
17.21
16.05
15.28
15.16
15.30
14.87
12.98
9.27
4.16
-1.24
-5.75
-8.72
-10.42
-11.73
-13.68
-16.89
-21.33
-26.35
-31.18
-35.16
-38.15
-40.06
-40.72
-39.67
-36.20
-29.83
-20.72
-9.88
0.94
9.87
15.66
18.07
17.90
16.51
15.15
14.50
14.46
14.52
14.25
13.70
13.30
13.65
15.02
17.18
19.44
21.00
21.38
20.61
19.16
17.61
16.29
15.22
13.95
12.09
9.43
6.15
2.70
-0.43
-2.94
-4.87
-6.62
-8.72
-11.66
-15.63
-20.37
-25.25
-29.32
-31.60
-31.31
-28.11
-22.24
-14.45
-5.82
2.58
9.88
15.56
19.45
21.59
22.11
21.14
18.83
15.49
11.61
7.86
4.95
3.39
3.27
4.31
5.98
7.70
9.07
9.88
10.11
9.81
8.98
7.55
5.45
2.70
-0.54
-3.91
-6.98
-9.37
-10.93
-11.79
-12.37
-13.23
-14.87
-17.52
-21.01
-24.85
-28.26
-30.38
-30.49
-28.16
-23.33
-16.43
-8.22
0.35
8.34
15.01
19.85
22.67
23.54
22.74
20.71
17.98
15.10
12.50
10.46
9.10
8.41
8.31
8.71
9.50
10.45
11.28
11.66
11.35
10.26
8.46
6.15
3.55
0.78
-2.09
-5.03
-7.99
-10.82
-13.34
-15.50
-17.50
-19.79
-22.97
-27.42
-33.07
-39.19
-44.50
-47.59
-47.31
-43.25
-35.81
-26.01
-15.14
-4.38
5.46
13.92
20.82
26.04
29.48
31.02
30.74
29.03
26.60
24.28
22.80
22.47
23.12
24.27
25.28
25.75
25.56
24.80
23.63
22.12
20.17
17.65
14.50
10.82
6.86
2.85
-0.99
-4.50
-7.60
-10.17
-12.14
-13.51
-14.49
-15.58
-17.43
-20.60
-25.22
-30.81
-36.25
-40.10
-41.10
-38.71
-33.20
-25.52
-16.89
-8.31
-0.30
6.99
13.47
18.83
22.54
24.12
23.47
21.17
18.25
15.82
14.61
14.67
15.44
16.27
16.71
16.77
16.79
17.09
17.73
18.35
18.39
17.39
15.21
12.10
8.52
4.89
1.54
-1.46
-4.24
-6.95
-9.75
-12.72
-15.86
-19.15
-22.58
-26.17
-29.93
-33.73
-37.20
-39.71
-40.47
-38.76
-34.18
-26.89
-17.58
-7.37
2.49
10.97
17.44
21.69
23.88
24.34
23.45
21.55
18.94
15.98
13.09
10.70
9.24
8.91
9.62
10.99
12.48
13.57
13.96
13.62
12.73
11.49
10.00
8.15
5.73
2.68
-0.84
-4.41
-7.55
-9.93
-11.60
-12.95
-14.62
-17.19
-20.98
-25.84
-31.15
-35.94
-39.20
-40.05
-38.05
-33.24
-26.12
-17.50
-8.27
0.68
8.62
14.97
19.35
21.57
21.71
20.11
17.38
14.29
11.58
9.85
9.36
10.05
11.55
13.42
15.24
16.76
17.91
18.75
19.25
19.31
18.67
17.05
14.35
10.66
6.33
1.79
-2.52
-6.37
-9.73
-12.77
-15.67
-18.71
-22.15
-26.24
-31.06
-36.40
-41.63
-45.72
-47.49
-45.96
-40.78
-32.37
-21.91
-10.90
-0.78
7.55
13.82
18.25
21.22
23.04
23.79
23.49
22.30
20.60
19.04
18.23
18.51
19.81
21.62
23.35
24.48
24.83
24.53
23.82
22.89
21.67
19.88
17.17
13.34
8.55
3.28
-1.79
-6.11
-9.50
-12.23
-14.84
-17.95
-21.91
-26.68
-31.87
-36.84
-40.93
-43.50
-44.07
-42.29
-38.03
-31.44
-23.00
-13.50
-3.98
4.56
11.34
15.96
18.41
19.04
18.31
16.74
14.80
12.90
11.38
10.50
10.39
11.06
12.34
13.97
15.63
17.00
17.81
17.86
17.07
15.42
13.01
9.99
6.52
2.81
-0.96
-4.58
-7.89
-10.78
-13.31
-15.69
-18.30
-21.49
-25.41
-29.78
-33.91
-36.77
-37.36
-35.06
-29.87
-22.40
-13.71
-4.90
3.13
9.79
14.80
18.05
19.49
19.19
17.44
14.77
11.92
9.69
8.66
9.05
10.61
12.83
15.08
16.90
18.04
18.52
18.40
17.70
16.33
14.09
10.92
6.89
2.34
-2.25
-6.44
-9.96
-12.84
-15.32
-17.74
-20.46
-23.74
-27.72
-32.30
-37.03
-41.08
-43.37
-42.85
-38.90
-31.57
-21.66
-10.51
0.45
9.96
17.25
21.98
24.24
24.44
23.12
20.92
18.43
16.10
14.22
13.03
12.66
13.15
14.26
15.53
16.39
16.45
15.73
14.72
14.00
13.89
14.02
13.58
11.79
8.38
3.92
-0.44
-3.65
-5.32
-6.07
-7.06
-9.44
-13.67
-19.36
-25.43
-30.74
-34.32
-35.85
-35.33
-32.84
-28.36
-21.84
-13.41
-3.60
6.61
15.86
22.94
27.11
28.41
27.47
25.29
22.76
20.48
18.61
17.09
15.85
14.96
14.55
14.70
15.29
16.06
16.61
16.65
16.10
15.05
13.65
12.02
10.14
7.99
5.50
2.75
-0.12
-2.92
-5.54
-8.01
-10.45
-13.09
-16.14
-19.82
-24.25
-29.33
-34.75
-39.83
-43.63
-45.17
-43.68
-38.89
-31.21
-21.65
-11.48
-1.89
6.31
12.80
17.59
20.89
22.80
23.31
22.39
20.18
17.13
13.97
11.53
10.38
10.62
11.83
13.28
14.30
14.54
14.10
13.38
12.77
12.37
11.94
10.97
9.05
6.08
2.38
-1.45
-4.81
-7.34
-9.05
-10.33
-11.74
-13.84
-16.92
-21.01
-25.77
-30.58
-34.64
-37.10
-37.23
-34.59
-29.18
-21.47
-12.34
-2.87
5.86
13.04
18.20
21.28
22.47
22.16
20.75
18.68
16.38
14.28
12.79
12.20
12.65
14.04
16.08
18.30
20.18
21.31
21.53
20.88
19.63
18.06
16.30
14.30
11.83
8.71
4.94
0.80
-3.27
-6.86
-9.80
-12.22
-14.51
-17.17
-20.61
-25.05
-30.41
-36.25
-41.88
-46.39
-48.83
-48.50
-45.04
-38.57
-29.66
-19.23
-8.32
2.07
11.08
18.14
23.06
25.99
27.34
27.50
26.86
25.70
24.25
22.83
21.86
21.70
22.51
23.97
25.41
26.11
25.51
23.67
21.12
18.60
16.64
15.27
14.01
12.27
9.69
6.38
2.90
-0.09
-2.17
-3.48
-4.50
-5.83
-7.83
-10.52
-13.69
-17.18
-21.00
-25.45
-30.69
-36.40
-41.61
-44.85
-44.69
-40.30
-31.98
-21.07
-9.51
0.91
9.14
15.05
19.15
22.09
24.23
25.45
25.45
24.15
21.87
19.36
17.45
16.72
17.31
18.91
20.99
23.05
24.70
25.72
25.94
25.26
23.67
21.23
18.11
14.54
10.73
6.87
3.10
-0.41
-3.52
-6.15
-8.31
-10.15
-11.91
-13.78
-15.88
-18.15
-20.46
-22.80
-25.32
-28.37
-32.27
-37.00
-41.98
-46.12
-47.99
-46.46
-41.12
-32.45
-21.70
-10.44
-0.04
8.67
15.49
20.55
24.09
26.27
27.12
26.72
25.36
23.53
21.88
20.96
21.08
22.15
23.80
25.52
26.82
27.38
27.11
26.07
24.40
22.27
19.76
16.92
13.79
10.40
6.87
3.38
0.09
-2.92
-5.63
-8.11
-10.45
-12.70
-14.82
-16.85
-18.93
-21.37
-24.63
-29.08
-34.76
-41.17
-47.25
-51.58
-52.82
-50.18
-43.73
-34.31
-23.30
-12.10
-1.76
7.14
14.46
20.18
24.30
26.77
27.62
27.10
25.74
24.25
23.20
22.95
23.47
24.52
25.78
27.05
28.32
29.55
30.68
31.43
31.45
30.44
28.30
25.24
21.66
18.04
14.71
11.76
9.00
6.08
2.71
-1.22
-5.51
-9.75
-13.54
-16.60
-19.03
-21.21
-23.65
-26.82
-30.96
-35.97
-41.44
-46.68
-50.81
-52.90
-52.18
-48.18
-40.93
-31.01
-19.55
-7.87
2.75
11.44
17.85
22.15
24.83
26.42
27.28
27.56
27.27
26.49
25.45
24.53
24.13
24.48
25.47
26.74
27.80
28.28
27.95
26.88
25.23
23.20
20.87
18.24
15.27
11.98
8.48
5.03
1.88
-0.81
-3.06
-5.06
-7.11
-9.43
-12.14
-15.15
-18.27
-21.30
-24.20
-27.11
-30.32
-34.11
-38.54
-43.25
-47.40
-49.89
-49.63
-46.01
-39.14
-29.86
-19.47
-9.26
-0.13
7.54
13.71
18.53
22.01
24.07
24.65
23.90
22.24
20.35
18.83
18.08
18.14
18.80
19.74
20.77
21.84
22.99
24.14
25.14
25.66
25.40
24.20
22.12
19.46
16.60
13.80
11.12
8.46
5.61
2.49
-0.82
-4.09
-7.05
-9.51
-11.55
-13.36
-15.25
-17.46
-20.18
-23.62
-27.87
-32.98
-38.67
-44.21
-48.48
-50.19
-48.42
-42.98
-34.59
-24.55
-14.36
-5.13
2.64
8.96
14.08
18.15
21.09
22.69
22.82
21.61
19.50
17.13
15.19
14.12
14.05
14.82
16.09
17.51
18.85
19.94
20.69
20.79
19.95
17.93
14.78
10.92
7.01
3.58
0.84
-1.61
-4.41
-8.00
-12.36
-16.85
-20.51
-22.65
-23.28
-23.24
-23.80
-26.04
-30.28
-35.86
-41.38
-45.24
-46.20
-43.85
-38.49
-30.87
-21.86
-12.16
-2.36
6.97
15.23
21.74
25.96
27.69
27.18
25.06
22.13
19.11
16.53
14.61
13.37
12.75
12.66
13.05
13.78
14.70
15.62
16.34
16.68
16.54
15.85
14.57
12.70
10.30
7.47
4.41
1.30
-1.77
-4.82
-7.93
-11.22
-14.65
-18.09
-21.36
-24.42
-27.51
-31.08
-35.55
-40.89
-46.49
-51.09
-53.25
-51.82
-46.41
-37.56
-26.49
-14.73
-3.60
6.07
13.95
20.02
24.38
27.08
28.17
27.81
26.35
24.36
22.47
21.26
20.94
21.45
22.44
23.49
24.27
24.64
24.63
24.31
23.72
22.77
21.32
19.21
16.37
12.88
8.94
4.88
0.96
-2.63
-5.85
-8.74
-11.40
-13.89
-16.34
-18.92
-21.83
-25.33
-29.55
-34.32
-39.00
-42.59
-43.93
-42.09
-36.74
-28.33
-17.95
-7.03
3.17
11.83
18.58
23.45
26.57
27.98
27.71
25.88
22.81
19.10
15.53
12.81
11.35
11.17
11.88
12.96
13.90
14.44
14.58
14.46
14.22
13.88
13.24
12.04
10.06
7.28
3.91
0.32
-3.13
-6.24
-8.98
-11.50
-13.93
-16.39
-18.97
-21.81
-25.12
-29.06
-33.49
-37.77
-40.82
-41.38
-38.54
-32.14
-22.90
-12.18
-1.49
8.02
15.75
21.57
25.47
27.44
27.45
25.57
22.29
18.42
14.89
12.51
11.52
11.65
12.32
12.94
13.23
13.31
13.50
14.05
14.84
15.38
15.07
13.45
10.48
6.59
2.41
-1.45
-4.85
-7.93
-11.02
-14.34
-17.92
-21.56
-25.17
-28.78
-32.62
-36.84
-41.16
-44.80
-46.55
-45.28
-40.37
-32.05
-21.48
-10.27
0.00
8.32
14.33
18.24
20.46
21.40
21.23
20.04
17.98
15.40
12.81
10.78
9.77
9.97
11.22
13.09
15.06
16.61
17.51
17.77
17.63
17.35
17.01
16.42
15.18
12.94
9.54
5.17
0.32
-4.42
-8.61
-12.16
-15.30
-18.51
-22.34
-27.06
-32.57
-38.28
-43.25
-46.39
-46.78
-43.98
-38.07
-29.68
-19.76
-9.35
0.67
9.61
17.00
22.50
25.87
27.05
26.23
23.93
20.89
17.89
15.51
14.06
13.51
13.68
14.38
15.50
16.94
18.53
20.01
21.02
21.27
20.64
19.22
17.21
14.80
12.03
8.88
5.30
1.37
-2.69
-6.54
-9.89
-12.64
-14.95
-17.19
-19.92
-23.60
-28.41
-34.02
-39.54
-43.71
-45.27
-43.44
-38.18
-30.24
-20.79
-11.05
-1.88
6.29
13.28
18.96
23.08
25.36
25.67
24.24
21.71
18.93
16.70
15.52
15.43
16.17
17.27
18.35
19.20
19.75
20.08
20.20
19.99
19.28
17.88
15.69
12.81
9.46
5.94
2.50
-0.73
-3.74
-6.55
-9.21
-11.76
-14.33
-17.18
-20.61
-24.90
-29.99
-35.37
-40.10
-42.98
-42.98
-39.53
-32.82
-23.73
-13.54
-3.51
5.40
12.76
18.51
22.71
25.35
26.29
25.44
22.98
19.52
15.98
13.29
12.03
12.24
13.44
14.96
16.23
17.02
17.42
17.69
17.96
18.14
17.87
16.73
14.45
11.01
6.77
2.28
-1.94
-5.58
-8.64
-11.43
-14.41
-17.99
-22.40
-27.62
-33.35
-39.01
-43.84
-46.98
-47.62
-45.24
-39.74
-31.53
-21.50
-10.77
-0.49
8.47
15.54
20.55
23.60
24.91
24.74
23.37
21.08
18.27
15.41
13.05
11.66
11.44
12.26
13.64
15.00
15.89
16.08
15.66
14.85
13.82
12.55
10.90
8.66
5.76
2.27
-1.51
-5.19
-8.42
-11.00
-12.95
-14.54
-16.18
-18.32
-21.30
-25.21
-29.78
-34.40
-38.27
-40.49
-40.31
-37.35
-31.64
-23.67
-14.36
-4.78
4.00
11.14
16.26
19.41
21.05
21.72
21.92
21.91
21.68
21.17
20.42
19.69
19.40
19.79
20.85
22.21
23.36
23.90
23.78
23.28
22.76
22.22
21.34
19.57
16.47
12.15
7.29
2.83
-0.48
-2.59
-4.04
-5.68
-8.13
-11.49
-15.40
-19.36
-23.08
-26.76
-30.65
-34.68
-38.18
-39.87
-38.45
-33.26
-24.63
-14.13
-3.69
5.03
11.34
15.67
19.03
22.33
25.82
28.77
30.12
29.20
26.20
22.33
19.24
18.15
19.39
22.14
24.98
26.68
26.74
25.49
23.73
22.16
21.03
19.99
18.52
16.26
13.21
9.79
6.50
3.64
1.31
-0.76
-2.89
-5.31
-8.10
-11.24
-14.66
-18.34
-22.30
-26.57
-31.04
-35.32
-38.80
-40.65
-40.11
-36.69
-30.44
-21.94
-12.26
-2.65
5.79
12.38
16.88
19.44
20.40
20.13
18.92
17.02
14.76
12.53
10.79
9.96
10.23
11.57
13.66
16.01
18.13
19.59
20.13
19.68
18.36
16.39
14.04
11.50
8.85
6.00
2.81
-0.78
-4.63
-8.41
-11.69
-14.19
-15.87
-17.05
-18.23
-19.93
-22.52
-26.09
-30.45
-35.16
-39.55
-42.85
-44.19
-42.86
-38.47
-31.17
-21.67
-11.13
-0.86
8.01
14.79
19.35
21.97
23.13
23.31
22.84
21.90
20.61
19.17
17.81
16.84
16.53
16.94
17.92
19.10
20.08
20.50
20.29
19.59
18.73
17.98
17.44
16.97
16.28
15.04
13.17
10.82
8.32
6.00
4.05
2.40
0.81
-1.03
-3.32
-6.06
-9.23
-12.83
-16.96
-21.79
-27.29
-33.06
-38.24
-41.64
-42.21
-39.38
-33.30
-24.83
-15.22
-5.68
2.85
9.90
15.29
19.03
21.17
21.80
21.15
19.60
17.68
15.94
14.79
14.41
14.77
15.70
16.98
18.46
20.05
21.68
23.15
24.17
24.40
23.59
21.73
19.09
16.08
13.15
10.41
7.75
4.91
1.67
-1.90
-5.46
-8.54
-10.83
-12.42
-13.76
-15.48
-18.06
-21.60
-25.85
-30.24
-34.17
-37.16
-38.82
-38.81
-36.78
-32.46
-25.83
-17.35
-7.95
1.05
8.45
13.50
16.17
17.02
16.93
16.62
16.52
16.59
16.64
16.54
16.38
16.44
17.04
18.26
20.00
21.83
23.29
24.03
23.92
23.02
21.48
19.42
16.96
14.10
10.87
7.38
3.75
0.15
-3.34
-6.68
-9.78
-12.65
-15.25
-17.68
-20.20
-23.19
-27.01
-31.81
-37.34
-42.86
-47.32
-49.65
-49.05
-45.26
-38.58
-29.73
-19.64
-9.17
0.90
9.97
17.55
23.30
27.12
29.10
29.62
29.17
28.20
27.03
25.77
24.51
23.31
22.33
21.79
21.81
22.34
23.11
23.71
23.74
22.97
21.39
19.20
16.73
14.25
11.86
9.44
6.75
3.59
-0.06
-3.99
-7.82
-11.16
-13.88
-16.14
-18.30
-20.81
-23.92
-27.64
-31.76
-36.00
-40.00
-43.39
-45.64
-46.14
-44.23
-39.49
-31.98
-22.30
-11.59
-1.14
7.91
14.86
19.54
22.21
23.32
23.30
22.51
21.11
19.30
17.31
15.52
14.42
14.38
15.57
17.75
20.34
22.62
23.95
24.06
23.12
21.55
19.80
18.07
16.28
14.18
11.59
8.55
5.30
2.16
-0.77
-3.55
-6.39
-9.41
-12.53
-15.52
-18.10
-20.16
-21.89
-23.65
-25.98
-29.24
-33.44
-38.14
-42.43
-45.13
-45.15
-41.86
-35.34
-26.43
-16.36
-6.42
2.48
9.89
15.72
20.01
22.72
23.81
23.35
21.65
19.34
17.12
15.57
14.98
15.22
15.95
16.78
17.46
17.94
18.27
18.52
18.59
18.24
17.18
15.19
12.27
8.72
4.98
1.50
-1.49
-3.99
-6.19
-8.30
-10.40
-12.40
-14.10
-15.40
-16.38
-17.35
-18.80
-21.16
-24.58
-28.82
-33.14
-36.58
-38.16
-37.21
-33.53
-27.39
-19.44
-10.46
-1.26
7.46
15.14
21.31
25.61
27.84
28.06
26.56
23.86
20.61
17.43
14.76
12.84
11.73
11.29
11.36
11.73
12.20
12.55
12.54
12.00
10.81
9.08
7.01
4.81
2.65
0.52
-1.72
-4.20
-6.90
-9.65
-12.17
-14.26
-15.95
-17.57
-19.50
-22.10
-25.44
-29.34
-33.46
-37.37
-40.57
-42.47
-42.43
-39.87
-34.50
-26.52
-16.66
-6.09
3.94
12.37
18.51
22.16
23.46
22.88
20.96
18.31
15.42
12.65
10.30
8.63
7.87
8.17
9.30
10.77
11.93
12.28
11.74
10.74
9.89
9.60
9.64
9.31
7.84
4.88
0.80
-3.45
-6.88
-8.97
-10.00
-10.78
-12.13
-14.49
-17.74
-21.37
-24.94
-28.24
-31.51
-34.84
-37.92
-39.79
-39.16
-34.91
-26.84
-15.84
-3.87
6.90
14.83
19.44
21.37
21.82
21.82
21.74
21.22
19.67
16.84
13.21
9.78
7.56
7.10
8.20
10.07
11.80
12.83
13.11
13.02
12.99
13.19
13.50
13.49
12.71
10.88
8.09
4.70
1.29
-1.63
-3.73
-5.08
-6.10
-7.41
-9.67
-13.28
-18.17
-23.73
-28.92
-32.54
-33.59
-31.61
-26.80
-19.92
-12.02
-4.10
3.15
9.34
14.31
17.92
20.00
20.32
18.87
15.91
12.11
8.38
5.55
4.12
4.07
4.94
6.18
7.36
8.39
9.39
10.46
11.52
12.13
11.76
10.02
6.90
2.85
-1.49
-5.50
-8.86
-11.60
-14.01
-16.45
-19.16
-22.21
-25.50
-28.82
-31.90
-34.36
-35.68
-35.29
-32.65
-27.46
-19.92
-10.72
-0.97
8.12
15.54
20.75
23.72
24.78
24.45
23.18
21.32
19.08
16.67
14.27
12.13
10.51
9.60
9.44
9.95
10.83
11.75
12.31
12.21
11.30
9.60
7.29
4.60
1.76
-1.13
-4.02
-6.93
-9.78
-12.54
-15.20
-17.92
-21.00
-24.75
-29.23
-34.00
-38.11
-40.32
-39.56
-35.37
-28.15
-19.01
-9.33
-0.24
7.67
14.28
19.68
23.88
26.64
27.68
26.91
24.67
21.69
18.76
16.45
14.92
13.98
13.38
13.04
13.08
13.75
15.06
16.76
18.28
18.95
18.32
16.27
13.09
9.31
5.45
1.86
-1.36
-4.33
-7.30
-10.51
-14.16
-18.31
-22.92
-27.84
-32.72
-36.99
-39.88
-40.55
-38.35
-33.02
-25.07
-15.53
-5.69
3.27
10.69
16.38
20.46
23.11
24.24
23.70
21.48
17.98
14.08
10.87
9.21
9.40
11.00
13.15
15.00
16.08
16.52
16.77
17.21
17.91
18.45
18.16
16.55
13.53
9.56
5.36
1.64
-1.15
-3.06
-4.48
-6.02
-8.24
-11.49
-15.80
-20.85
-26.02
-30.57
-33.69
-34.75
-33.37
-29.55
-23.62
-16.22
-8.07
0.07
7.55
13.84
18.55
21.40
22.27
21.29
18.84
15.59
12.28
9.55
7.79
7.09
7.29
8.15
9.48
11.06
12.72
14.22
15.21
15.35
14.39
12.30
9.31
5.83
2.30
-0.95
-3.82
-6.35
-8.70
-11.05
-13.58
-16.49
-19.94
-23.92
-28.19
-32.16
-34.97
-35.73
-33.80
-29.05
-21.95
-13.42
-4.61
3.44
10.01
14.78
17.79
19.28
19.48
18.60
16.78
14.23
11.26
8.40
6.23
5.21
5.46
6.73
8.44
9.94
10.77
10.81
10.24
9.37
8.38
7.24
5.71
3.57
0.77
-2.51
-5.86
-8.91
-11.48
-13.64
-15.76
-18.26
-21.56
-25.77
-30.61
-35.43
-39.26
-41.06
-40.10
-36.09
-29.31
-20.54
-10.73
-0.84
8.38
16.34
22.60
26.85
28.91
28.86
27.11
24.32
21.25
18.53
16.55
15.42
15.02
15.17
15.69
16.39
17.10
17.58
17.60
16.98
15.73
14.05
12.19
10.40
8.71
7.00
5.02
2.63
-0.13
-3.02
-5.69
-7.91
-9.70
-11.41
-13.62
-16.85
-21.32
-26.72
-32.19
-36.55
-38.69
-37.89
-34.07
-27.74
-19.82
-11.27
-2.90
4.74
11.33
16.65
20.57
22.97
23.88
23.51
22.25
20.71
19.44
18.89
19.25
20.35
21.83
23.24
24.23
24.61
24.37
23.55
22.17
20.22
17.68
14.63
11.26
7.82
4.52
1.50
-1.23
-3.75
-6.08
-8.17
-9.93
-11.34
-12.52
-13.87
-15.86
-18.98
-23.40
-28.84
-34.52
-39.37
-42.23
-42.24
-39.07
-33.01
-24.81
-15.48
-5.98
2.89
10.63
16.90
21.49
24.25
25.18
24.52
22.76
20.51
18.38
16.77
15.83
15.51
15.65
16.10
16.72
17.35
17.81
17.85
17.28
16.04
14.22
12.02
9.66
7.28
4.94
2.57
0.15
-2.35
-4.87
-7.29
-9.55
-11.65
-13.74
-16.10
-19.01
-22.70
-27.15
-32.08
-36.96
-41.04
-43.55
-43.77
-41.27
-36.01
-28.39
-19.12
-9.18
0.46
8.92
15.53
19.95
22.07
22.09
20.50
17.81
14.63
11.54
9.11
7.85
8.18
10.18
13.57
17.51
20.92
22.82
22.78
21.07
18.51
15.99
14.03
12.43
10.56
7.76
3.93
-0.41
-4.28
-6.88
-7.96
-8.21
-8.71
-10.35
-13.40
-17.39
-21.50
-25.15
-28.37
-31.75
-35.78
-40.35
-44.41
-46.39
-44.84
-39.18
-29.93
-18.66
-7.18
2.96
10.92
16.55
20.19
22.27
23.23
23.33
22.81
21.90
20.86
19.96
19.44
19.41
19.94
20.93
22.16
23.31
24.08
24.16
23.43
21.92
19.85
17.47
15.01
12.57
10.11
7.50
4.66
1.66
-1.33
-4.08
-6.47
-8.53
-10.44
-12.43
-14.67
-17.23
-20.11
-23.30
-26.79
-30.56
-34.39
-37.79
-40.03
-40.25
-37.80
-32.44
-24.55
-15.00
-4.97
4.37
12.11
17.84
21.56
23.58
24.34
24.23
23.54
22.47
21.20
19.96
19.03
18.69
19.08
20.15
21.63
23.11
24.23
24.76
24.68
24.06
23.05
21.74
20.16
18.26
15.99
13.38
10.49
7.49
4.53
1.74
-0.83
-3.15
-5.30
-7.36
-9.38
-11.46
-13.79
-16.59
-20.16
-24.68
-30.02
-35.60
-40.44
-43.42
-43.60
-40.56
-34.58
-26.50
-17.47
-8.56
-0.56
6.16
11.43
15.26
17.59
18.41
17.77
15.95
13.48
11.02
9.24
8.53
9.03
10.53
12.67
15.05
17.35
19.34
20.87
21.81
22.00
21.32
19.73
17.35
14.53
11.64
9.03
6.83
4.89
2.91
0.66
-1.90
-4.59
-7.22
-9.75
-12.36
-15.40
-19.19
-23.73
-28.75
-33.65
-37.84
-40.71
-41.74
-40.54
-36.86
-30.72
-22.55
-13.24
-4.01
3.93
9.75
13.18
14.57
14.65
14.13
13.57
13.03
12.41
11.56
10.64
9.98
10.08
11.23
13.36
15.85
17.93
18.97
18.76
17.57
15.97
14.45
13.18
11.85
9.95
7.06
3.14
-1.38
-5.80
-9.46
-12.03
-13.63
-14.80
-16.13
-18.05
-20.64
-23.78
-27.21
-30.68
-33.99
-36.84
-38.78
-39.18
-37.45
-33.26
-26.75
-18.49
-9.41
-0.55
7.26
13.46
17.85
20.46
21.58
21.60
20.84
19.59
18.05
16.38
14.77
13.52
12.93
13.23
14.40
16.16
18.00
19.35
19.83
19.36
18.14
16.56
14.89
13.24
11.50
9.47
7.01
4.16
1.17
-1.60
-3.91
-5.70
-7.20
-8.83
-11.00
-14.00
-17.92
-22.60
-27.67
-32.59
-36.69
-39.25
-39.59
-37.29
-32.28
-24.91
-15.95
-6.41
2.64
10.32
16.04
19.66
21.36
21.55
20.72
19.29
17.56
15.75
14.09
12.80
12.11
12.26
13.32
15.15
17.36
19.44
20.86
21.24
20.51
18.85
16.65
14.28
11.92
9.53
6.93
3.93
0.62
-2.68
-5.52
-7.64
-9.03
-10.12
-11.43
-13.45
-16.34
-19.94
-23.88
-27.69
-31.00
-33.42
-34.50
-33.77
-30.80
-25.44
-18.03
-9.34
-0.46
7.51
13.82
18.11
20.49
21.35
21.12
20.12
18.55
16.58
14.48
12.62
11.43
11.23
12.06
13.61
15.37
16.77
17.44
17.25
16.27
14.75
12.87
10.75
8.39
5.69
2.61
-0.85
-4.50
-8.00
-11.00
-13.31
-15.03
-16.60
-18.59
-21.50
-25.51
-30.33
-35.36
-39.82
-42.91
-44.02
-42.73
-38.84
-32.44
-23.96
-14.21
-4.22
4.92
12.33
17.52
20.46
21.45
20.99
19.61
17.74
15.73
13.89
12.53
11.95
12.27
13.47
15.23
17.12
18.62
19.37
19.20
18.18
16.53
14.50
12.28
9.89
7.31
4.45
1.28
-2.11
-5.49
-8.58
-11.18
-13.26
-15.04
-16.98
-19.63
-23.36
-28.20
-33.71
-39.06
-43.23
-45.33
-44.74
-41.31
-35.27
-27.22
-17.92
-8.21
1.07
9.19
15.69
20.28
22.96
23.95
23.60
22.37
20.67
18.89
17.32
16.17
15.54
15.47
15.96
16.97
18.30
19.69
20.78
21.24
20.89
19.79
18.11
16.05
13.73
11.08
8.00
4.50
0.82
-2.74
-6.05
-9.20
-12.52
-16.36
-20.85
-25.72
-30.50
-34.68
-37.96
-40.15
-41.05
-40.30
-37.38
-31.89
-23.86
-13.96
-3.47
6.20
13.92
19.24
22.37
23.97
24.70
24.98
24.69
23.59
21.56
18.96
16.61
15.50
16.23
18.69
21.87
24.40
25.15
23.81
20.95
17.69
15.00
13.21
11.71
9.51
5.86
0.78
-4.88
-9.84
-13.10
-14.43
-14.62
-14.87
-16.24
-19.10
-23.03
-27.12
-30.58
-33.04
-34.59
-35.48
-35.69
-34.76
-31.95
-26.72
-19.13
-9.90
-0.35
8.19
14.75
18.99
21.09
21.55
20.83
19.35
17.38
15.23
13.24
11.80
11.18
11.47
12.47
13.84
15.16
16.09
16.48
16.24
15.38
13.92
11.86
9.21
6.06
2.54
-1.19
-4.94
-8.51
-11.73
-14.44
-16.57
-18.18
-19.51
-20.97
-22.99
-25.91
-29.68
-33.81
-37.38
-39.28
-38.56
-34.80
-28.27
-19.82
-10.60
-1.65
6.35
13.13
18.63
22.79
25.41
26.24
25.21
22.64
19.27
16.07
13.91
13.26
14.01
15.62
17.38
18.74
19.46
19.59
19.25
18.48
17.16
15.09
12.12
8.29
3.88
-0.76
-5.29
-9.50
-13.30
-16.76
-19.96
-23.04
-26.10
-29.31
-32.84
-36.79
-41.08
-45.34
-48.93
-50.97
-50.61
-47.31
-41.05
-32.35
-22.25
-11.92
-2.41
5.58
11.83
16.40
19.56
21.49
22.34
22.23
21.41
20.27
19.34
19.11
19.84
21.43
23.46
25.35
26.60
26.97
26.54
25.58
24.35
22.96
21.30
19.17
16.39
13.01
9.29
5.58
2.14
-0.95
-3.78
-6.57
-9.55
-12.83
-16.47
-20.43
-24.62
-28.86
-32.77
-35.81
-37.29
-36.50
-32.93
-26.60
-18.02
-8.19
1.69
10.54
17.64
22.77
26.07
27.74
27.98
26.92
24.74
21.86
18.99
16.92
16.27
17.07
18.85
20.78
22.10
22.46
22.04
21.29
20.62
20.02
19.16
17.50
14.72
11.02
6.93
3.12
0.09
-2.24
-4.22
-6.40
-9.07
-12.20
-15.53
-18.79
-21.85
-24.94
-28.33
-32.03
-35.54
-37.88
-37.95
-34.96
-28.87
-20.49
-11.14
-2.20
5.43
11.40
15.82
18.95
20.97
21.88
21.63
20.40
18.53
16.61
15.21
14.68
15.13
16.34
17.91
19.41
20.47
20.93
20.77
20.09
18.98
17.44
15.35
12.60
9.08
4.89
0.29
-4.27
-8.33
-11.55
-13.89
-15.65
-17.39
-19.74
-23.12
-27.57
-32.55
-37.15
-40.34
-41.25
-39.50
-35.19
-28.87
-21.25
-13.08
-4.96
2.56
8.98
13.84
16.79
17.74
16.92
14.94
12.57
10.57
9.47
9.46
10.47
12.16
14.25
16.51
18.81
21.04
23.01
24.43
24.94
24.30
22.41
19.44
15.74
11.67
7.52
3.43
-0.60
-4.51
-8.21
-11.57
-14.50
-17.10
-19.68
-22.63
-26.18
-30.20
-34.12
-37.00
-37.82
-35.86
-30.99
-23.70
-14.96
-5.94
2.38
9.38
14.84
18.78
21.32
22.51
22.36
21.02
18.88
16.59
14.89
14.35
15.14
16.94
19.14
21.09
22.36
22.93
22.96
22.71
22.25
21.44
20.02
17.77
14.67
10.92
6.82
2.70
-1.29
-5.09
-8.73
-12.22
-15.54
-18.63
-21.53
-24.40
-27.48
-30.96
-34.81
-38.56
-41.41
-42.34
-40.54
-35.70
-28.23
-19.11
-9.63
-0.94
6.24
11.75
15.77
18.56
20.32
21.04
20.71
19.51
17.86
16.40
15.75
16.24
17.83
20.08
22.39
24.23
25.33
25.74
25.67
25.37
24.93
24.17
22.81
20.56
17.35
13.35
9.02
4.78
0.97
-2.36
-5.40
-8.43
-11.67
-15.18
-18.90
-22.79
-26.86
-31.08
-35.29
-38.96
-41.22
-41.08
-37.78
-31.21
-21.99
-11.27
-0.46
9.24
17.11
22.93
26.81
28.94
29.46
28.50
26.22
23.01
19.49
16.41
14.36
13.58
13.88
14.77
15.69
16.25
16.32
16.01
15.48
14.75
13.67
12.06
9.80
6.96
3.84
0.81
-1.83
-3.97
-5.68
-7.20
-8.78
-10.65
-13.02
-16.03
-19.80
-24.30
-29.34
-34.44
-38.86
-41.71
-42.13
-39.58
-33.99
-25.90
-16.29
-6.40
2.63
10.06
15.68
19.63
22.23
23.73
24.11
23.30
21.38
18.74
16.07
14.01
12.99
12.94
13.48
14.18
14.82
15.43
16.11
16.75
16.95
16.20
14.16
10.97
7.22
3.67
0.81
-1.45
-3.60
-6.14
-9.19
-12.39
-15.05
-16.67
-17.26
-17.66
-18.94
-21.89
-26.55
-31.96
-36.53
-38.68
-37.43
-32.94
-26.14
-18.30
-10.47
-3.08
3.90
10.58
16.87
22.11
25.50
26.51
25.29
22.73
20.05
18.37
18.21
19.33
21.00
22.47
23.35
23.67
23.75
23.87
24.10
24.13
23.57
22.14
19.85
16.95
13.84
10.80
7.93
5.12
2.16
-1.05
-4.46
-7.86
-10.97
-13.61
-15.72
-17.44
-19.06
-20.90
-23.16
-25.81
-28.52
-30.68
-31.52
-30.36
-26.81
-21.01
-13.58
-5.45
2.36
9.09
14.39
18.26
20.89
22.46
22.98
22.43
20.78
18.30
15.52
13.15
11.79
11.72
12.84
14.64
16.53
18.04
18.99
19.49
19.77
19.96
20.04
19.76
18.83
17.10
14.68
11.93
9.30
7.08
5.30
3.74
2.08
0.13
-2.06
-4.19
-5.93
-7.12
-7.86
-8.49
-9.39
-10.76
-12.50
-14.22
-15.50
-16.11
-16.06
-15.62
-15.12
-14.79
-14.68
-14.68
-14.66
-14.56
-14.37
-14.15
-13.92
-13.62
-13.10
-12.19
-10.79
-8.97
-7.02
-5.33
-4.29
-4.06
-4.56
-5.52
-6.61
-7.70
-8.81
-10.08
-11.59
-13.19
-14.57
-15.36
-15.41
-14.98
-14.58
-14.80
-16.00
-18.01
-20.15
-21.46
-21.11
-18.74
-14.56
-9.27
-3.70
1.48
5.92
9.36
11.62
12.46
11.67
9.29
5.75
1.80
-1.68
-4.11
-5.32
-5.54
-5.21
-4.67
-4.05
-3.32
-2.41
-1.48
-0.83
-0.86
-1.83
-3.69
-6.17
-8.81
-11.18
-13.16
-14.86
-16.63
-18.85
-21.79
-25.41
-29.47
-33.41
-36.62
-38.43
-38.30
-35.83
-30.86
-23.60
-14.66
-4.96
4.28
11.95
17.32
20.23
21.15
20.87
20.21
19.73
19.41
19.04
18.37
17.45
16.65
16.45
17.10
18.52
20.11
21.12
20.97
19.49
16.96
13.94
10.87
8.05
5.35
2.59
-0.40
-3.60
-6.86
-10.01
-13.07
-16.15
-19.53
-23.31
-27.25
-30.76
-32.92
-32.83
-29.91
-24.03
-15.75
-6.08
3.75
12.56
19.54
24.35
27.06
28.02
27.65
26.30
24.21
21.60
18.70
15.88
13.48
11.84
11.10
11.19
11.85
12.76
13.59
14.09
14.10
13.56
12.44
10.77
8.57
5.94
3.00
-0.05
-3.04
-5.84
-8.45
-11.05
-13.95
-17.43
-21.57
-26.09
-30.27
-33.09
-33.54
-30.97
-25.34
-17.32
-8.03
1.25
9.46
16.02
20.76
23.76
25.13
24.92
23.16
20.03
15.96
11.67
7.92
5.30
4.01
3.84
4.37
5.15
5.92
6.68
7.48
8.26
8.78
8.62
7.46
5.17
2.00
-1.57
-5.02
-7.95
-10.28
-12.20
-14.10
-16.42
-19.46
-23.26
-27.49
-31.50
-34.35
-35.15
-33.23
-28.39
-21.03
-11.95
-2.22
7.10
15.17
21.38
25.44
27.33
27.33
25.91
23.70
21.28
19.11
17.37
16.08
15.19
14.67
14.60
15.06
16.03
17.35
18.65
19.52
19.59
18.69
16.77
13.99
10.58
6.73
2.59
-1.67
-5.86
-9.81
-13.31
-16.28
-18.84
-21.27
-23.91
-26.97
-30.27
-33.18
-34.66
-33.72
-29.72
-22.76
-13.69
-3.87
5.30
12.83
18.35
21.97
24.02
24.72
24.11
22.10
18.80
14.73
10.77
7.87
6.65
7.14
8.77
10.70
12.25
13.12
13.46
13.56
13.62
13.47
12.72
11.01
8.20
4.58
0.71
-2.85
-5.81
-8.25
-10.62
-13.46
-17.20
-21.87
-27.04
-31.93
-35.56
-37.07
-35.98
-32.29
-26.45
-19.22
-11.41
-3.77
3.13
8.86
13.09
15.59
16.34
15.56
13.70
11.36
9.09
7.30
6.15
5.62
5.64
6.15
7.12
8.56
10.37
12.29
13.91
14.75
14.44
12.89
10.29
7.03
3.58
0.27
-2.72
-5.38
-7.78
-10.00
-12.18
-14.58
-17.46
-21.03
-25.20
-29.41
-32.72
-34.03
-32.59
-28.26
-21.68
-14.01
-6.49
-0.07
4.88
8.53
11.28
13.46
15.06
15.83
15.45
13.84
11.36
8.77
6.82
6.08
6.64
8.12
9.96
11.72
13.17
14.34
15.19
15.53
15.02
13.35
10.45
6.71
2.69
-1.02
-4.23
-7.07
-9.84
-12.80
-15.95
-19.08
-22.05
-24.82
-27.65
-30.66
-33.60
-35.67
-35.75
-32.85
-26.67
-17.82
-7.91
1.25
8.30
12.77
15.16
16.50
17.68
18.98
19.94
19.82
18.16
15.22
11.97
9.65
9.15
10.58
13.20
15.78
17.32
17.39
16.29
14.71
13.25
12.10
10.94
9.27
6.77
3.57
0.19
-2.76
-4.84
-6.06
-6.82
-7.71
-9.30
-11.88
-15.39
-19.43
-23.32
-26.27
-27.49
-26.43
-22.98
-17.50
-10.74
-3.64
2.99
8.60
12.97
16.03
17.74
18.03
16.91
14.51
11.24
7.76
4.76
2.77
1.96
2.10
2.70
3.28
3.56
3.58
3.55
3.70
4.03
4.26
3.98
2.82
0.71
-2.15
-5.29
-8.32
-10.98
-13.33
-15.57
-18.02
-20.94
-24.48
-28.57
-32.94
-37.06
-40.19
-41.54
-40.49
-36.77
-30.63
-22.75
-14.10
-5.68
1.71
7.53
11.55
13.80
14.48
13.97
12.73
11.22
9.82
8.75
8.11
7.91
8.15
8.82
9.84
11.03
12.06
12.57
12.29
11.15
9.31
7.11
4.81
2.57
0.34
-1.98
-4.41
-6.87
-9.12
-11.00
-12.53
-13.99
-15.89
-18.66
-22.48
-27.03
-31.56
-35.10
-36.69
-35.74
-32.11
-26.14
-18.48
-9.96
-1.31
6.85
14.06
19.93
24.10
26.30
26.44
24.73
21.73
18.23
15.02
12.65
11.31
10.82
10.89
11.25
11.81
12.44
13.03
13.38
13.26
12.57
11.40
9.98
8.50
7.00
5.29
3.09
0.31
-2.87
-5.98
-8.55
-10.41
-11.81
-13.39
-15.88
-19.66
-24.57
-29.79
-34.15
-36.38
-35.69
-31.85
-25.29
-16.89
-7.66
1.46
9.77
16.81
22.10
25.28
26.09
24.62
21.40
17.36
13.59
10.94
9.66
9.49
9.88
10.29
10.53
10.74
11.16
11.88
12.66
13.02
12.55
11.14
9.01
6.59
4.22
2.04
-0.14
-2.57
-5.37
-8.40
-11.34
-13.82
-15.76
-17.31
-18.95
-21.19
-24.29
-28.08
-31.93
-34.90
-36.02
-34.50
-30.08
-23.08
-14.38
-5.17
3.40
10.46
15.62
18.97
20.80
21.39
20.89
19.39
17.05
14.23
11.51
9.51
8.67
9.08
10.45
12.26
13.95
15.14
15.69
15.69
15.29
14.65
13.77
12.48
10.56
7.85
4.40
0.54
-3.19
-6.28
-8.48
-9.96
-11.19
-12.84
-15.39
-19.00
-23.44
-28.20
-32.58
-35.88
-37.48
-36.86
-33.73
-28.15
-20.57
-11.88
-3.14
4.66
10.84
15.18
17.80
19.04
19.27
18.76
17.76
16.51
15.35
14.66
14.76
15.74
17.44
19.48
21.38
22.71
23.24
22.90
21.85
20.34
18.61
16.82
15.00
12.99
10.62
7.77
4.50
1.16
-1.82
-4.07
-5.52
-6.49
-7.58
-9.48
-12.64
-17.05
-22.21
-27.25
-31.20
-33.25
-32.89
-30.04
-24.94
-18.09
-10.14
-1.83
6.09
12.88
17.98
21.10
22.32
22.07
20.89
19.32
17.71
16.20
14.87
13.83
13.29
13.52
14.55
16.19
17.93
19.19
19.56
18.96
17.65
16.04
14.45
12.97
11.42
9.50
7.02
4.01
0.83
-2.08
-4.38
-6.02
-7.34
-8.91
-11.27
-14.74
-19.28
-24.43
-29.53
-33.83
-36.61
-37.34
-35.69
-31.60
-25.29
-17.21
-8.09
1.25
9.92
17.12
22.22
24.88
25.16
23.54
20.75
17.64
14.91
12.91
11.70
11.10
11.00
11.38
12.31
13.78
15.56
17.19
18.13
18.00
16.73
14.64
12.19
9.76
7.47
5.19
2.69
-0.10
-2.96
-5.49
-7.29
-8.28
-8.78
-9.37
-10.71
-13.24
-16.99
-21.61
-26.49
-30.88
-34.06
-35.42
-34.50
-31.16
-25.54
-18.14
-9.73
-1.20
6.58
12.90
17.37
19.87
20.59
19.89
18.25
16.15
13.96
12.02
10.67
10.15
10.70
12.32
14.79
17.57
19.99
21.48
21.77
20.96
19.47
17.69
15.86
13.95
11.71
8.96
5.73
2.32
-0.85
-3.55
-5.87
-8.15
-10.83
-14.20
-18.20
-22.57
-26.91
-30.95
-34.46
-37.16
-38.58
-38.14
-35.26
-29.77
-22.05
-13.12
-4.21
3.58
9.59
13.73
16.34
17.85
18.57
18.44
17.30
15.15
12.39
9.87
8.61
9.26
11.83
15.41
18.65
20.44
20.37
18.95
17.29
16.31
16.27
16.43
15.60
12.82
8.03
2.10
-3.51
-7.55
-9.57
-10.22
-10.78
-12.42
-15.67
-20.24
-25.30
-29.99
-33.82
-36.77
-38.87
-39.90
-39.18
-35.94
-29.68
-20.71
-10.06
0.68
10.03
17.12
21.78
24.40
25.51
25.53
24.73
23.23
21.22
19.07
17.25
16.18
16.04
16.78
18.11
19.59
20.83
21.54
21.55
20.84
19.46
17.58
15.30
12.78
10.10
7.27
4.28
1.16
-2.06
-5.24
-8.22
-10.84
-13.12
-15.25
-17.62
-20.64
-24.54
-29.13
-33.69
-37.19
-38.53
-37.01
-32.53
-25.62
-17.23
-8.39
0.02
7.43
13.46
17.88
20.53
21.34
20.43
18.12
14.99
11.74
9.04
7.41
7.03
7.77
9.22
10.84
12.17
13.00
13.35
13.42
13.37
13.20
12.72
11.68
9.95
7.63
4.99
2.42
0.17
-1.68
-3.23
-4.68
-6.17
-7.78
-9.53
-11.51
-13.89
-16.83
-20.33
-24.03
-27.16
-28.71
-27.78
-24.02
-17.77
-10.02
-2.04
5.08
10.73
14.77
17.33
18.52
18.33
16.75
13.92
10.31
6.65
3.74
2.12
1.86
2.63
3.94
5.32
6.53
7.58
8.54
9.43
10.11
10.34
9.85
8.45
6.17
3.26
0.13
-2.80
-5.28
-7.27
-9.03
-10.93
-13.30
-16.25
-19.77
-23.63
-27.58
-31.24
-34.11
-35.50
-34.69
-31.20
-25.09
-17.01
-8.12
0.40
7.69
13.46
17.88
21.23
23.51
24.54
24.06
22.19
19.47
16.87
15.28
15.22
16.50
18.47
20.32
21.54
22.01
21.99
21.76
21.47
20.79
19.24
16.43
12.33
7.35
2.27
-2.16
-5.49
-7.92
-9.98
-12.35
-15.40
-19.06
-22.90
-26.46
-29.40
-31.73
-33.53
-34.68
-34.74
-33.03
-28.94
-22.39
-13.92
-4.75
3.72
10.37
14.75
17.03
17.74
17.46
16.64
15.45
14.04
12.61
11.48
10.99
11.31
12.37
13.91
15.58
17.06
18.12
18.63
18.43
17.36
15.34
12.41
8.75
4.70
0.59
-3.30
-6.82
-9.90
-12.57
-14.87
-16.95
-19.04
-21.44
-24.36
-27.74
-31.11
-33.64
-34.32
-32.40
-27.63
-20.47
-11.88
-3.04
5.01
11.68
16.76
20.27
22.26
22.69
21.51
18.82
15.05
10.95
7.42
5.22
4.68
5.62
7.52
9.74
11.80
13.48
14.77
15.72
16.24
16.12
15.10
12.96
9.75
5.75
1.45
-2.59
-6.01
-8.72
-10.96
-13.21
-15.98
-19.55
-23.85
-28.43
-32.55
-35.40
-36.27
-34.73
-30.68
-24.37
-16.42
-7.65
1.05
8.85
15.13
19.60
22.20
23.09
22.62
21.20
19.33
17.44
15.88
14.84
14.34
14.32
14.67
15.31
16.14
17.02
17.74
18.06
17.78
16.81
15.22
13.13
10.62
7.77
4.57
1.03
-2.71
-6.41
-9.83
-12.85
-15.61
-18.44
-21.83
-26.04
-30.97
-35.98
-40.02
-41.98
-41.02
-36.92
-30.14
-21.64
-12.53
-3.72
4.23
11.06
16.65
20.85
23.43
24.22
23.28
21.00
18.13
15.50
13.81
13.40
14.14
15.54
17.04
18.21
18.96
19.47
20.01
20.69
21.36
21.61
20.95
19.12
16.21
12.62
8.88
5.43
2.42
-0.29
-3.00
-5.97
-9.22
-12.69
-16.25
-19.89
-23.63
-27.45
-30.98
-33.52
-34.13
-32.06
-27.14
-19.92
-11.51
-3.22
3.90
9.33
13.08
15.36
16.46
16.48
15.39
13.28
10.42
7.34
4.79
3.37
3.37
4.62
6.59
8.67
10.34
11.40
11.89
11.92
11.55
10.64
9.03
6.56
3.32
-0.43
-4.26
-7.80
-10.87
-13.51
-16.00
-18.73
-22.04
-26.03
-30.47
-34.84
-38.40
-40.44
-40.41
-38.00
-33.26
-26.45
-18.08
-8.89
0.28
8.58
15.27
19.89
22.37
23.02
22.31
20.87
19.21
17.73
16.67
16.20
16.39
17.22
18.46
19.75
20.67
20.86
20.25
19.04
17.52
15.90
14.12
11.87
8.80
4.86
0.37
-4.04
-7.70
-10.27
-11.92
-13.24
-15.05
-17.98
-22.26
-27.54
-33.04
-37.66
-40.45
-40.70
-38.15
-32.92
-25.50
-16.48
-6.62
3.30
12.26
19.31
23.76
25.41
24.72
22.75
20.61
19.10
18.34
17.93
17.33
16.36
15.29
14.72
15.06
16.20
17.40
17.74
16.62
14.07
10.78
7.62
5.14
3.30
1.46
-1.04
-4.52
-8.67
-12.76
-16.00
-18.02
-19.05
-19.84
-21.26
-23.86
-27.58
-31.76
-35.32
-37.12
-36.31
-32.64
-26.41
-18.41
-9.62
-1.03
6.62
12.91
17.69
20.95
22.74
23.12
22.14
20.03
17.22
14.31
11.97
10.73
10.80
11.98
13.72
15.37
16.42
16.67
16.29
15.60
14.88
14.13
13.05
11.26
8.49
4.87
0.89
-2.76
-5.53
-7.24
-8.13
-8.82
-9.94
-12.01
-15.21
-19.37
-24.01
-28.44
-31.85
-33.50
-32.81
-29.59
-24.02
-16.71
-8.48
-0.23
7.25
13.41
17.98
20.89
22.32
22.54
21.90
20.77
19.42
18.05
16.81
15.88
15.41
15.55
16.28
17.43
18.64
19.55
19.90
19.65
18.85
17.61
15.84
13.40
10.14
6.09
1.58
-2.89
-6.81
-9.93
-12.35
-14.53
-17.09
-20.57
-25.23
-30.85
-36.75
-41.87
-45.09
-45.52
-42.73
-36.95
-28.93
-19.68
-10.20
-1.29
6.55
13.03
17.94
21.15
22.58
22.37
20.84
18.56
16.13
14.07
12.70
12.15
12.35
13.21
14.54
16.10
17.60
18.74
19.35
19.30
18.68
17.56
16.01
14.04
11.65
8.85
5.75
2.55
-0.56
-3.44
-6.04
-8.56
-11.34
-14.76
-19.13
-24.41
-30.11
-35.26
-38.65
-39.31
-36.75
-31.20
-23.42
-14.39
-5.03
4.05
12.42
19.61
25.07
28.26
28.86
27.07
23.67
19.74
16.30
13.91
12.55
11.87
11.44
11.13
11.06
11.42
12.28
13.31
13.95
13.67
12.28
9.96
7.17
4.38
1.86
-0.45
-2.77
-5.30
-8.07
-10.94
-13.76
-16.51
-19.40
-22.84
-27.20
-32.51
-38.22
-43.30
-46.45
-46.53
-42.99
-36.05
-26.65
-16.11
-5.77
3.35
10.72
16.22
20.01
22.30
23.26
22.99
21.67
19.59
17.28
15.31
14.18
14.04
14.67
15.56
16.19
16.26
15.76
14.90
13.95
12.91
11.53
9.41
6.20
1.86
-3.29
-8.65
-13.59
-17.66
-20.78
-23.29
-25.76
-28.77
-32.69
-37.44
-42.39
-46.49
-48.59
-47.73
-43.51
-36.19
-26.59
-15.83
-5.03
4.88
13.32
19.94
24.54
27.07
27.55
26.26
23.72
20.60
17.65
15.41
14.10
13.62
13.68
14.06
14.67
15.54
16.70
17.99
18.99
19.20
18.19
15.88
12.51
8.60
4.65
0.98
-2.34
-5.52
-8.84
-12.51
-16.66
-21.26
-26.17
-31.13
-35.69
-39.15
-40.69
-39.56
-35.34
-28.19
-18.96
-8.92
0.55
8.44
14.27
18.07
20.21
21.08
20.96
20.08
18.58
16.71
14.80
13.21
12.23
12.06
12.70
13.99
15.59
17.07
17.97
17.96
16.89
14.83
12.01
8.71
5.10
1.34
-2.46
-6.16
-9.62
-12.72
-15.54
-18.33
-21.48
-25.24
-29.48
-33.56
-36.34
-36.58
-33.47
-26.91
-17.67
-7.09
3.33
12.46
19.74
25.08
28.64
30.56
30.86
29.57
26.89
23.30
19.47
16.10
13.65
12.28
11.79
11.86
12.12
12.35
12.47
12.42
12.16
11.51
10.24
8.18
5.25
1.62
-2.35
-6.22
-9.59
-12.33
-14.60
-16.84
-19.55
-23.04
-27.12
-31.11
-33.96
-34.68
-32.61
-27.78
-20.83
-12.73
-4.50
3.10
9.55
14.56
17.90
19.39
18.98
16.89
13.65
9.96
6.57
4.00
2.45
1.88
2.10
2.93
4.23
5.81
7.38
8.49
8.65
7.54
5.11
1.71
-2.07
-5.65
-8.61
-10.96
-12.97
-15.12
-17.85
-21.36
-25.56
-30.01
-34.02
-36.70
-37.19
-34.81
-29.37
-21.26
-11.46
-1.37
7.63
14.48
18.73
20.53
20.43
19.14
17.27
15.22
13.24
11.48
10.04
9.10
8.80
9.28
10.55
12.49
14.74
16.77
18.01
18.07
16.86
14.64
11.75
8.50
5.04
1.38
-2.49
-6.45
-10.31
-13.98
-17.66
-21.61
-25.92
-30.09
-33.04
-33.33
-29.91
-22.64
-12.57
-1.53
8.59
16.48
21.75
24.80
26.27
26.64
25.85
23.66
19.97
15.21
10.36
6.72
5.24
6.12
8.48
10.93
12.16
11.58
9.61
7.30
5.63
4.96
4.67
3.66
1.01
-3.44
-9.04
-14.70
-19.59
-23.49
-26.81
-30.04
-33.19
-35.56
-35.98
-33.40
-27.50
-18.87
-8.95
0.65
8.65
14.43
18.01
19.75
20.05
19.25
17.53
15.06
12.18
9.35
7.09
5.87
5.88
7.03
8.88
10.85
12.36
13.01
12.65
11.40
9.49
7.24
4.84
2.37
-0.28
-3.36
-7.11
-11.65
-16.79
-22.01
-26.45
-29.13
-29.27
-26.50
-21.02
-13.58
-5.17
3.21
10.78
17.06
21.79
24.82
26.09
25.57
23.42
20.04
16.09
12.32
9.42
7.77
7.38
7.95
8.97
10.01
10.78
11.17
11.14
10.66
9.59
7.79
5.18
1.88
-1.85
-5.68
-9.42
-13.15
-17.06
-21.33
-25.78
-29.73
-32.17
-32.02
-28.71
-22.34
-13.80
-4.41
4.52
12.07
17.82
21.74
23.92
24.39
23.12
20.16
15.88
11.04
6.66
3.65
2.52
3.10
4.68
6.27
7.04
6.61
5.10
2.93
0.57
-1.72
-3.96
-6.35
-9.09
-12.22
-15.67
-19.30
-23.03
-26.81
-30.46
-33.57
-35.42
-35.11
-31.95
-25.73
-17.01
-6.97
2.89
11.25
17.32
21.05
22.80
23.08
22.27
20.52
17.92
14.69
11.30
8.40
6.52
5.91
6.36
7.38
8.35
8.81
8.59
7.79
6.59
5.15
3.51
1.58
-0.76
-3.56
-6.74
-10.06
-13.35
-16.57
-19.91
-23.61
-27.68
-31.66
-34.64
-35.42
-33.16
-27.65
-19.51
-9.96
-0.31
8.46
15.82
21.62
25.71
27.92
28.10
26.37
23.33
19.90
17.05
15.35
14.77
14.80
14.85
14.56
14.00
13.52
13.42
13.67
13.82
13.25
11.50
8.53
4.82
1.07
-2.13
-4.54
-6.45
-8.44
-11.10
-14.78
-19.38
-24.50
-29.44
-33.40
-35.59
-35.34
-32.26
-26.39
-18.25
-8.81
0.76
9.39
16.30
21.09
23.69
24.19
22.85
20.03
16.27
12.31
8.96
6.84
6.24
6.97
8.51
10.26
11.81
13.13
14.33
15.52
16.60
17.17
16.77
15.10
12.22
8.56
4.71
1.17
-1.88
-4.58
-7.29
-10.40
-14.15
-18.56
-23.43
-28.40
-32.92
-36.41
-38.19
-37.70
-34.58
-28.81
-20.81
-11.38
-1.61
7.36
14.64
19.74
22.53
23.29
22.49
20.62
18.16
15.52
13.04
11.03
9.71
9.21
9.51
10.45
11.74
13.05
14.12
14.77
14.94
14.63
13.92
12.82
11.34
9.45
7.14
4.44
1.45
-1.67
-4.81
-8.02
-11.52
-15.69
-20.80
-26.81
-33.17
-38.78
-42.29
-42.57
-39.12
-32.33
-23.30
-13.49
-4.25
3.60
9.76
14.30
17.39
19.10
19.43
18.46
16.58
14.44
12.83
12.38
13.32
15.39
17.97
20.33
21.94
22.59
22.41
21.61
20.46
18.99
17.10
14.64
11.53
7.92
4.13
0.60
-2.31
-4.50
-6.10
-7.46
-8.99
-10.97
-13.57
-16.82
-20.74
-25.34
-30.44
-35.53
-39.72
-41.89
-41.05
-36.83
-29.67
-20.76
-11.56
-3.32
3.31
8.35
12.16
15.09
17.26
18.58
18.93
18.42
17.46
16.63
16.50
17.33
18.99
21.01
22.79
23.87
24.04
23.39
22.17
20.69
19.12
17.49
15.66
13.53
11.02
8.18
5.18
2.20
-0.64
-3.30
-5.85
-8.38
-10.98
-13.60
-16.19
-18.77
-21.52
-24.76
-28.77
-33.49
-38.32
-42.15
-43.74
-42.10
-36.99
-28.95
-19.15
-8.96
0.49
8.49
14.78
19.37
22.35
23.81
23.85
22.70
20.77
18.66
17.01
16.34
16.81
18.22
20.11
21.91
23.21
23.82
23.74
23.02
21.74
19.94
17.70
15.15
12.40
9.55
6.56
3.31
-0.24
-3.94
-7.43
-10.29
-12.27
-13.44
-14.29
-15.46
-17.54
-20.83
-25.21
-30.15
-34.86
-38.38
-39.83
-38.61
-34.54
-27.98
-19.73
-10.75
-1.93
6.03
12.79
18.10
21.76
23.57
23.51
21.84
19.07
15.84
12.76
10.24
8.55
7.88
8.40
10.15
12.95
16.18
19.00
20.63
20.69
19.40
17.42
15.47
13.92
12.49
10.53
7.35
2.77
-2.75
-8.20
-12.61
-15.48
-17.26
-18.90
-21.47
-25.46
-30.57
-35.95
-40.63
-43.97
-45.89
-46.54
-45.84
-43.42
-38.63
-31.04
-20.92
-9.32
2.09
11.61
18.17
21.53
22.29
21.46
20.01
18.56
17.27
16.04
14.80
13.64
12.85
12.68
13.20
14.27
15.48
16.45
16.92
16.78
16.10
14.98
13.46
11.62
9.50
7.18
4.74
2.25
-0.25
-2.70
-5.03
-7.13
-8.89
-10.27
-11.40
-12.57
-14.17
-16.56
-19.93
-24.15
-28.73
-32.87
-35.66
-36.26
-34.21
-29.49
-22.61
-14.34
-5.60
2.79
10.14
15.95
19.91
21.95
22.21
21.14
19.34
17.41
15.81
14.77
14.31
14.41
14.98
16.01
17.37
18.89
20.23
21.07
21.12
20.30
18.64
16.39
13.79
11.05
8.32
5.61
2.90
0.13
-2.68
-5.44
-8.03
-10.38
-12.46
-14.45
-16.57
-19.04
-22.02
-25.50
-29.29
-33.03
-36.26
-38.38
-38.78
-36.96
-32.63
-25.91
-17.39
-7.98
1.24
9.31
15.58
19.83
22.18
22.96
22.55
21.21
19.14
16.56
13.82
11.36
9.71
9.22
9.97
11.62
13.59
15.23
16.07
16.02
15.29
14.29
13.31
12.40
11.35
9.78
7.41
4.27
0.71
-2.69
-5.42
-7.27
-8.42
-9.42
-10.90
-13.28
-16.66
-20.78
-25.27
-29.63
-33.36
-35.96
-36.79
-35.25
-30.99
-24.10
-15.35
-5.91
2.91
10.08
15.12
18.09
19.35
19.30
18.16
16.02
13.04
9.56
6.26
3.91
3.11
4.04
6.16
8.58
10.37
10.95
10.38
9.15
7.82
6.67
5.38
3.40
0.21
-4.18
-9.18
-13.78
-17.10
-18.75
-19.16
-19.22
-19.94
-21.94
-25.24
-29.34
-33.53
-37.09
-39.62
-40.81
-40.44
-38.19
-33.81
-27.28
-18.98
-9.67
-0.43
7.68
13.91
17.97
20.01
20.45
19.81
18.63
17.28
16.08
15.27
15.01
15.33
16.14
17.26
18.45
19.50
20.25
20.59
20.39
19.53
17.88
15.42
12.24
8.58
4.69
0.81
-2.95
-6.60
-10.19
-13.75
-17.20
-20.49
-23.56
-26.52
-29.53
-32.61
-35.54
-37.68
-38.12
-36.02
-31.03
-23.45
-14.24
-4.64
4.18
11.52
17.18
21.24
23.83
24.96
24.55
22.61
19.46
15.74
12.35
10.03
9.15
9.57
10.74
12.00
12.92
13.41
13.68
13.97
14.33
14.44
13.78
11.91
8.74
4.58
0.10
-4.06
-7.53
-10.28
-12.63
-14.99
-17.77
-21.18
-25.21
-29.56
-33.67
-36.77
-38.06
-36.89
-33.02
-26.71
-18.60
-9.59
-0.62
7.53
14.27
19.18
22.12
23.12
22.52
20.80
18.57
16.35
14.52
13.27
12.66
12.69
13.36
14.64
16.35
18.21
19.73
20.44
19.93
18.04
14.91
10.97
6.74
2.67
-1.00
-4.26
-7.31
-10.40
-13.78
-17.59
-21.97
-26.89
-32.17
-37.33
-41.51
-43.69
-42.90
-38.67
-31.22
-21.49
-10.85
-0.68
8.01
14.71
19.39
22.20
23.33
22.95
21.25
18.56
15.43
12.55
10.53
9.78
10.33
11.85
13.84
15.78
17.28
18.15
18.30
17.75
16.45
14.32
11.31
7.40
2.79
-2.16
-6.96
-11.16
-14.58
-17.39
-20.13
-23.42
-27.65
-32.70
-37.76
-41.61
-43.02
-41.19
-36.07
-28.32
-19.04
-9.36
-0.09
8.23
15.31
20.89
24.67
26.41
26.10
24.15
21.31
18.48
16.41
15.41
15.35
15.74
16.09
16.11
15.84
15.52
15.40
15.51
15.61
15.27
14.09
11.94
8.97
5.60
2.23
-0.83
-3.56
-6.08
-8.61
-11.36
-14.47
-18.02
-22.03
-26.42
-30.88
-34.82
-37.40
-37.72
-35.09
-29.44
-21.31
-11.89
-2.54
5.54
11.65
15.77
18.24
19.59
20.14
20.00
19.16
17.73
16.12
14.95
14.71
15.55
17.20
19.08
20.69
21.78
22.44
22.88
23.11
22.91
21.84
19.51
15.83
11.18
6.18
1.53
-2.33
-5.31
-7.67
-9.84
-12.21
-15.08
-18.55
-22.49
-26.67
-30.63
-33.75
-35.34
-34.75
-31.55
-25.74
-17.83
-8.88
-0.07
7.57
13.50
17.73
20.68
22.81
24.41
25.29
25.12
23.71
21.31
18.69
16.79
16.31
17.28
18.98
20.33
20.50
19.26
17.11
14.92
13.35
12.46
11.54
9.64
6.11
1.09
-4.47
-9.30
-12.43
-13.67
-13.77
-13.92
-15.20
-18.09
-22.38
-27.32
-32.02
-35.66
-37.69
-37.78
-35.69
-31.33
-24.88
-16.76
-7.75
1.25
9.36
15.88
20.46
22.99
23.63
22.67
20.49
17.66
14.76
12.40
11.02
10.81
11.61
13.01
14.52
15.79
16.75
17.51
18.23
18.93
19.34
19.03
17.60
14.89
11.13
6.78
2.43
-1.48
-4.77
-7.44
-9.68
-11.71
-13.71
-15.95
-18.66
-22.07
-26.21
-30.77
-35.02
-37.94
-38.46
-35.87
-30.10
-21.83
-12.31
-2.95
5.07
11.12
15.14
17.43
18.38
18.28
17.30
15.62
13.57
11.68
10.53
10.59
11.93
14.29
17.10
19.76
21.83
23.15
23.80
23.93
23.64
22.91
21.59
19.57
16.83
13.53
9.94
6.39
3.13
0.28
-2.19
-4.45
-6.68
-9.06
-11.70
-14.67
-18.01
-21.74
-25.88
-30.29
-34.65
-38.30
-40.39
-40.01
-36.62
-30.29
-21.74
-12.19
-2.90
5.19
11.63
16.41
19.68
21.54
22.02
21.14
19.12
16.51
14.00
12.30
11.79
12.42
13.83
15.48
17.01
18.23
19.23
20.07
20.70
20.90
20.35
18.88
16.61
13.96
11.40
9.24
7.45
5.72
3.70
1.27
-1.40
-3.96
-6.19
-8.16
-10.23
-12.87
-16.33
-20.52
-25.04
-29.29
-32.76
-35.03
-35.74
-34.57
-31.22
-25.63
-18.05
-9.21
-0.25
7.68
13.67
17.37
19.00
19.15
18.45
17.34
15.90
14.12
12.10
10.24
9.23
9.63
11.66
14.89
18.33
20.89
21.81
21.02
19.14
17.05
15.44
14.48
13.68
12.25
9.52
5.37
0.30
-4.86
-9.29
-12.59
-14.91
-16.82
-18.96
-21.78
-25.36
-29.55
-34.00
-38.26
-41.87
-44.24
-44.73
-42.79
-38.15
-31.02
-22.08
-12.37
-2.98
5.22
11.73
16.38
19.24
20.51
20.41
19.24
17.40
15.34
13.51
12.25
11.75
11.96
12.68
13.69
14.75
15.66
16.20
16.19
15.47
13.99
11.81
9.17
6.35
3.57
0.93
-1.61
-4.14
-6.70
-9.22
-11.51
-13.41
-14.87
-16.09
-17.44
-19.36
-22.19
-25.94
-30.22
-34.27
-37.14
-37.96
-36.20
-31.84
-25.34
-17.48
-9.20
-1.28
5.71
11.46
15.82
18.71
20.13
20.18
19.13
17.40
15.52
13.96
13.03
12.82
13.24
14.06
15.10
16.19
17.23
18.09
18.61
18.63
18.06
16.86
15.13
12.97
10.53
7.92
5.22
2.52
-0.11
-2.60
-4.87
-6.90
-8.75
-10.64
-12.90
-15.89
-19.81
-24.54
-29.48
-33.69
-36.10
-35.94
-32.98
-27.60
-20.68
-13.19
-5.93
0.61
6.16
10.56
13.60
15.12
15.05
13.67
11.51
9.30
7.71
7.10
7.50
8.62
10.07
11.57
13.04
14.52
16.03
17.50
18.63
19.08
18.52
16.85
14.19
10.88
7.30
3.76
0.44
-2.65
-5.62
-8.63
-11.79
-15.23
-19.01
-23.11
-27.41
-31.56
-35.00
-36.97
-36.70
-33.72
-28.03
-20.20
-11.24
-2.29
5.65
11.95
16.44
19.16
20.34
20.15
18.81
16.58
13.84
11.14
9.07
8.06
8.25
9.37
10.84
12.07
12.63
12.45
11.75
10.80
9.69
8.25
6.16
3.17
-0.66
-4.91
-8.93
-12.15
-14.33
-15.66
-16.75
-18.34
-21.00
-24.90
-29.67
-34.53
-38.46
-40.52
-40.10
-37.05
-31.67
-24.57
-16.47
-8.11
-0.10
7.03
12.85
17.01
19.36
19.99
19.30
17.85
16.35
15.28
14.87
15.06
15.59
16.17
16.62
16.87
16.93
16.81
16.47
15.81
14.72
13.22
11.38
9.32
7.14
4.88
2.52
0.04
-2.55
-5.10
-7.46
-9.61
-11.72
-14.17
-17.30
-21.14
-25.19
-28.43
-29.75
-28.31
-23.90
-17.11
-8.98
-0.60
7.19
13.91
19.23
22.90
24.63
24.28
22.09
18.79
15.41
12.87
11.56
11.32
11.56
11.74
11.67
11.61
12.01
13.17
14.92
16.66
17.63
17.34
15.72
13.18
10.28
7.46
4.67
1.61
-2.01
-6.19
-10.49
-14.27
-17.12
-19.19
-21.30
-24.40
-28.95
-34.40
-39.26
-41.60
-40.00
-34.17
-25.20
-15.02
-5.49
2.33
8.31
13.04
17.07
20.52
22.89
23.47
21.94
18.65
14.63
11.08
8.91
8.40
9.16
10.46
11.65
12.37
12.59
12.41
11.97
11.35
10.44
9.13
7.33
5.07
2.45
-0.30
-2.88
-5.05
-6.77
-8.23
-9.86
-12.15
-15.42
-19.61
-24.17
-28.28
-30.98
-31.57
-29.70
-25.54
-19.62
-12.72
-5.62
1.01
6.71
11.20
14.35
16.12
16.54
15.70
13.87
11.49
9.17
7.51
6.91
7.43
8.81
10.50
12.03
13.11
13.73
14.01
14.01
13.64
12.60
10.67
7.76
4.18
0.40
-3.08
-5.99
-8.42
-10.77
-13.61
-17.38
-22.19
-27.71
-33.28
-38.04
-41.12
-41.89
-40.04
-35.55
-28.82
-20.47
-11.36
-2.41
5.52
11.82
16.19
18.71
19.70
19.68
19.15
18.49
17.93
17.54
17.30
17.21
17.31
17.68
18.36
19.22
20.00
20.31
19.80
18.33
16.00
13.05
9.80
6.45
3.11
-0.17
-3.36
-6.30
-8.91
-11.18
-13.32
-15.71
-18.67
-22.30
-26.27
-29.82
-31.97
-31.85
-28.99
-23.54
-16.17
-7.92
0.21
7.44
13.35
17.80
20.80
22.34
22.46
21.27
19.08
16.43
14.05
12.50
12.14
12.86
14.25
15.78
17.01
17.76
18.13
18.21
18.06
17.49
16.18
13.86
10.52
6.48
2.28
-1.66
-5.17
-8.39
-11.66
-15.25
-19.20
-23.30
-27.22
-30.75
-33.66
-35.65
-36.30
-34.92
-30.96
-24.27
-15.38
-5.55
3.70
11.15
16.22
19.14
20.60
21.25
21.46
21.08
19.86
17.79
15.27
13.11
12.07
12.54
14.32
16.66
18.68
19.69
19.40
17.92
15.56
12.57
9.15
5.34
1.21
-3.05
-7.16
-10.78
-13.75
-16.09
-18.10
-20.29
-23.13
-26.88
-31.31
-35.68
-38.90
-39.80
-37.56
-32.11
-24.14
-14.90
-5.84
1.90
7.71
11.58
13.86
15.00
15.29
14.85
13.74
12.14
10.39
9.01
8.50
9.11
10.78
13.07
15.38
17.14
18.01
17.98
17.23
16.00
14.39
12.28
9.50
5.96
1.81
-2.50
-6.44
-9.63
-12.06
-14.15
-16.58
-19.99
-24.66
-30.29
-36.02
-40.66
-43.00
-42.23
-38.19
-31.38
-22.79
-13.57
-4.68
3.23
9.86
15.05
18.64
20.46
20.43
18.77
16.09
13.32
11.35
10.74
11.54
13.29
15.32
17.11
18.49
19.57
20.59
21.64
22.54
22.90
22.31
20.58
17.85
14.52
11.00
7.65
4.54
1.58
-1.44
-4.66
-8.13
-11.88
-15.90
-20.23
-24.82
-29.42
-33.43
-35.98
-36.14
-33.28
-27.33
-18.95
-9.32
0.23
8.59
15.17
19.89
22.95
24.58
24.90
23.90
21.71
18.70
15.51
12.89
11.43
11.31
12.27
13.73
15.08
15.92
16.22
16.16
16.04
15.98
15.84
15.30
14.02
11.84
8.91
5.63
2.47
-0.22
-2.42
-4.30
-6.28
-8.73
-11.96
-16.02
-20.77
-25.87
-30.76
-34.74
-37.06
-37.05
-34.33
-28.94
-21.36
-12.45
-3.25
5.23
12.23
17.28
20.34
21.60
21.42
20.23
18.36
16.15
13.88
11.91
10.56
10.06
10.47
11.54
12.80
13.70
13.88
13.24
11.96
10.39
8.80
7.22
5.47
3.30
0.55
-2.73
-6.22
-9.51
-12.23
-14.30
-15.89
-17.41
-19.31
-21.95
-25.39
-29.36
-33.24
-36.20
-37.42
-36.26
-32.52
-26.45
-18.64
-9.86
-0.90
7.57
15.03
21.06
25.40
27.90
28.64
27.91
26.17
23.96
21.73
19.81
18.40
17.51
17.09
16.95
16.85
16.55
15.86
14.68
13.10
11.30
9.50
7.83
6.25
4.55
2.50
-0.05
-3.01
-6.14
-9.03
-11.43
-13.31
-14.92
-16.73
-19.29
-22.92
-27.61
-32.86
-37.83
-41.44
-42.78
-41.28
-36.89
-30.03
-21.48
-12.10
-2.89
5.32
11.95
16.72
19.73
21.42
22.29
22.72
22.76
22.23
20.93
18.98
16.87
15.40
15.22
16.49
18.72
21.00
22.41
22.52
21.47
19.86
18.31
17.13
16.02
14.44
11.90
8.36
4.34
0.61
-2.21
-3.94
-5.21
-6.94
-9.87
-14.19
-19.42
-24.66
-29.16
-32.59
-35.17
-37.22
-38.71
-39.04
-37.32
-32.76
-25.31
-15.78
-5.74
3.23
10.00
14.28
16.45
17.20
17.15
16.64
15.76
14.54
13.12
11.80
10.89
10.60
10.92
11.65
12.48
13.08
13.22
12.82
11.88
10.54
8.88
7.08
5.22
3.28
1.26
-0.87
-3.08
-5.24
-7.24
-8.99
-10.58
-12.28
-14.50
-17.64
-21.84
-26.84
-31.93
-36.09
-38.30
-37.80
-34.40
-28.49
-20.83
-12.42
-4.12
3.43
9.91
15.17
19.10
21.64
22.72
22.42
21.02
19.09
17.32
16.30
16.28
17.12
18.29
19.24
19.58
19.31
18.71
18.11
17.64
17.13
16.18
14.36
11.50
7.79
3.72
-0.16
-3.46
-6.18
-8.65
-11.36
-14.76
-19.06
-24.17
-29.77
-35.38
-40.47
-44.46
-46.76
-46.83
-44.24
-38.96
-31.38
-22.33
-12.91
-4.11
3.34
9.13
13.29
15.98
17.40
17.67
16.97
15.55
13.82
12.27
11.37
11.37
12.23
13.57
14.91
15.78
15.94
15.41
14.38
13.10
11.69
10.10
8.18
5.76
2.82
-0.46
-3.76
-6.75
-9.22
-11.24
-13.12
-15.30
-18.21
-21.98
-26.39
-30.91
-34.81
-37.35
-37.91
-36.12
-31.89
-25.46
-17.39
-8.52
0.15
7.75
13.71
17.84
20.31
21.47
21.67
21.09
19.86
18.11
16.11
14.24
12.93
12.50
13.03
14.31
15.91
17.37
18.29
18.47
17.97
16.94
15.53
13.68
11.22
7.96
3.95
-0.41
-4.43
-7.54
-9.47
-10.65
-11.87
-14.01
-17.48
-22.02
-26.76
-30.60
-32.65
-32.60
-30.67
-27.34
-23.05
-18.06
-12.43
-6.29
0.05
5.90
10.54
13.37
14.29
13.64
12.16
10.62
9.59
9.28
9.62
10.39
11.40
12.55
13.87
15.33
16.87
18.23
19.11
19.17
18.18
16.12
13.17
9.70
6.17
2.94
0.13
-2.36
-4.86
-7.76
-11.34
-15.67
-20.56
-25.54
-29.97
-33.14
-34.38
-33.26
-29.66
-23.87
-16.49
-8.34
-0.30
6.89
12.66
16.69
18.86
19.31
18.36
16.46
14.07
11.68
9.63
8.11
7.19
6.82
6.89
7.29
7.89
8.61
9.33
9.87
10.01
9.47
8.07
5.82
2.93
-0.21
-3.25
-5.97
-8.38
-10.66
-13.01
-15.63
-18.62
-22.10
-26.16
-30.79
-35.77
-40.46
-43.84
-44.84
-42.62
-37.09
-28.86
-19.07
-9.00
0.37
8.56
15.43
21.02
25.32
28.16
29.39
29.11
27.68
25.75
23.99
22.89
22.56
22.79
23.19
23.42
23.27
22.77
22.04
21.21
20.29
19.14
17.57
15.38
12.52
9.16
5.63
2.32
-0.52
-2.86
-4.97
-7.30
-10.30
-14.24
-19.12
-24.64
-30.25
-35.26
-38.91
-40.48
-39.46
-35.61
-29.15
-20.74
-11.36
-2.08
6.15
12.72
17.38
20.20
21.43
21.37
20.35
18.68
16.74
14.93
13.65
13.17
13.55
14.55
15.78
16.77
17.27
17.19
16.74
16.17
15.64
15.04
14.10
12.49
10.02
6.80
3.20
-0.29
-3.23
-5.51
-7.35
-9.23
-11.71
-15.20
-19.69
-24.74
-29.51
-32.98
-34.26
-32.86
-28.77
-22.48
-14.80
-6.54
1.53
8.87
15.00
19.53
22.22
23.01
22.16
20.20
17.80
15.58
13.88
12.81
12.24
11.98
11.90
12.00
12.30
12.75
13.21
13.36
12.89
11.50
9.11
5.92
2.33
-1.20
-4.35
-7.00
-9.23
-11.15
-12.89
-14.48
-16.06
-17.89
-20.32
-23.61
-27.62
-31.73
-34.84
-35.80
-33.84
-28.87
-21.63
-13.30
-5.14
1.92
7.49
11.59
14.43
16.20
16.96
16.69
15.48
13.63
11.64
10.02
9.17
9.18
9.86
10.91
12.07
13.18
14.22
15.08
15.55
15.28
13.95
11.44
7.97
3.99
0.08
-3.30
-5.98
-8.10
-10.00
-12.10
-14.72
-18.08
-22.13
-26.73
-31.48
-35.81
-39.06
-40.48
-39.47
-35.74
-29.44
-21.32
-12.43
-3.90
3.44
9.29
13.87
17.50
20.44
22.51
23.30
22.54
20.41
17.66
15.40
14.51
15.29
17.13
19.04
20.09
19.91
18.83
17.62
16.93
16.94
17.02
16.26
13.88
9.80
4.69
-0.25
-4.02
-6.19
-7.24
-8.11
-9.73
-12.46
-16.03
-19.73
-22.96
-25.47
-27.45
-29.19
-30.61
-31.12
-29.81
-25.95
-19.50
-11.11
-2.10
6.21
12.87
17.59
20.54
22.15
22.77
22.65
21.84
20.48
18.85
17.36
16.44
16.32
16.99
18.23
19.66
20.93
21.81
22.14
21.87
20.94
19.30
16.98
14.08
10.79
7.33
3.89
0.57
-2.57
-5.48
-8.11
-10.42
-12.47
-14.48
-16.75
-19.57
-22.98
-26.69
-30.03
-32.13
-32.17
-29.68
-24.69
-17.77
-9.83
-1.82
5.47
11.59
16.35
19.74
21.72
22.24
21.32
19.13
16.14
13.04
10.53
9.02
8.61
8.99
9.68
10.26
10.49
10.38
10.08
9.65
9.05
8.05
6.32
3.71
0.27
-3.60
-7.34
-10.48
-12.86
-14.66
-16.30
-18.18
-20.46
-23.07
-25.86
-28.81
-32.05
-35.69
-39.59
-43.12
-45.24
-44.91
-41.50
-35.14
-26.60
-17.10
-7.80
0.49
7.44
13.04
17.44
20.68
22.69
23.42
22.95
21.69
20.27
19.36
19.38
20.36
21.84
23.21
23.89
23.70
22.81
21.63
20.50
19.49
18.38
16.80
14.51
11.53
8.25
5.12
2.48
0.38
-1.42
-3.31
-5.51
-8.08
-10.83
-13.67
-16.64
-19.95
-23.78
-28.01
-31.99
-34.73
-35.13
-32.55
-27.06
-19.41
-10.78
-2.32
5.24
11.56
16.65
20.44
22.78
23.44
22.36
19.90
16.86
14.18
12.72
12.76
14.05
16.03
18.11
19.99
21.67
23.21
24.64
25.61
25.68
24.50
22.04
18.66
14.96
11.47
8.50
5.86
3.17
0.17
-3.18
-6.53
-9.40
-11.48
-12.81
-13.92
-15.60
-18.45
-22.63
-27.64
-32.47
-35.96
-37.18
-35.77
-31.94
-26.29
-19.58
-12.54
-5.72
0.44
5.63
9.58
12.13
13.23
13.00
11.74
9.89
7.99
6.59
6.14
6.87
8.68
11.25
14.03
16.44
18.10
18.87
18.84
18.19
17.07
15.54
13.48
10.78
7.42
3.57
-0.43
-4.18
-7.40
-10.00
-12.10
-13.90
-15.62
-17.36
-19.20
-21.24
-23.62
-26.48
-29.67
-32.74
-34.87
-35.12
-32.81
-27.80
-20.60
-12.25
-3.87
3.59
9.63
14.16
17.32
19.29
20.17
20.03
19.00
17.34
15.51
13.97
13.11
13.11
13.92
15.26
16.76
18.04
18.81
18.96
18.48
17.48
16.08
14.33
12.22
9.69
6.71
3.35
-0.18
-3.65
-6.78
-9.51
-11.81
-13.85
-15.86
-18.00
-20.49
-23.46
-27.01
-31.12
-35.47
-39.44
-42.12
-42.60
-40.23
-34.93
-27.26
-18.25
-9.12
-0.89
5.80
10.75
14.07
16.02
16.80
16.51
15.27
13.33
11.12
9.24
8.24
8.35
9.41
10.89
12.19
12.89
12.98
12.77
12.66
12.87
13.33
13.70
13.62
12.86
11.47
9.70
7.86
6.18
4.71
3.36
1.99
0.45
-1.37
-3.53
-6.06
-9.06
-12.67
-16.94
-21.76
-26.67
-30.91
-33.52
-33.69
-31.05
-25.86
-18.96
-11.46
-4.42
1.49
6.06
9.39
11.69
13.11
13.65
13.33
12.26
10.77
9.37
8.56
8.66
9.66
11.20
12.81
14.07
14.79
15.10
15.26
15.46
15.62
15.46
14.55
12.63
9.72
6.19
2.64
-0.40
-2.71
-4.39
-5.83
-7.51
-9.75
-12.67
-16.16
-19.99
-23.89
-27.48
-30.29
-31.79
-31.40
-28.77
-23.90
-17.24
-9.65
-2.09
4.58
9.79
13.37
15.46
16.30
16.15
15.23
13.74
11.97
10.29
9.14
8.84
9.45
10.75
12.25
13.43
13.88
13.49
12.46
11.15
9.89
8.78
7.68
6.22
4.15
1.40
-1.70
-4.66
-7.00
-8.60
-9.72
-11.01
-13.10
-16.44
-20.99
-26.41
-32.05
-37.19
-41.06
-42.96
-42.29
-38.75
-32.51
-24.35
-15.39
-6.83
0.44
6.14
10.44
13.73
16.33
18.24
19.31
19.44
18.78
17.78
17.04
17.03
17.93
19.37
20.77
21.50
21.20
19.95
18.23
16.59
15.35
14.28
12.77
10.18
6.29
1.55
-3.07
-6.58
-8.46
-9.12
-9.57
-10.91
-13.79
-18.13
-23.20
-28.15
-32.33
-35.53
-37.74
-38.78
-38.20
-35.28
-29.52
-21.01
-10.60
0.17
9.67
16.77
21.13
23.22
23.89
23.97
23.87
23.50
22.57
20.96
18.87
16.93
15.76
15.71
16.68
18.08
19.23
19.60
19.07
17.87
16.36
14.80
13.18
11.27
8.73
5.40
1.40
-2.89
-7.01
-10.55
-13.37
-15.57
-17.50
-19.57
-22.10
-25.22
-28.80
-32.34
-35.16
-36.47
-35.62
-32.33
-26.79
-19.67
-11.89
-4.31
2.43
8.03
12.44
15.68
17.70
18.39
17.74
15.94
13.48
11.09
9.53
9.22
10.23
12.19
14.53
16.69
18.39
19.58
20.40
20.95
21.21
20.99
20.02
18.16
15.48
12.28
8.93
5.75
2.88
0.21
-2.51
-5.51
-8.91
-12.66
-16.62
-20.68
-24.74
-28.66
-32.13
-34.58
-35.31
-33.71
-29.61
-23.43
-16.06
-8.59
-1.94
3.36
7.23
9.81
11.29
11.74
11.14
9.57
7.31
4.92
3.08
2.37
3.04
4.86
7.31
9.71
11.56
12.61
12.99
12.98
12.85
12.66
12.31
11.54
10.15
8.06
5.42
2.55
-0.25
-2.76
-4.98
-7.17
-9.70
-12.88
-16.92
-21.75
-27.03
-32.29
-36.93
-40.30
-41.76
-40.79
-37.06
-30.69
-22.23
-12.68
-3.20
5.18
11.85
16.66
19.88
21.83
22.83
22.99
22.35
21.07
19.51
18.17
17.57
17.81
18.58
19.26
19.29
18.46
17.01
15.52
14.45
13.82
13.28
12.27
10.42
7.79
4.88
2.27
0.33
-1.06
-2.39
-4.17
-6.65
-9.71
-12.97
-16.13
-19.15
-22.35
-26.04
-30.13
-33.88
-36.12
-35.61
-31.79
-25.01
-16.60
-8.17
-1.08
4.10
7.57
9.95
11.78
13.27
14.14
14.10
13.13
11.67
10.55
10.56
12.11
14.98
18.45
21.58
23.70
24.58
24.45
23.77
22.96
22.14
21.09
19.46
16.94
13.53
9.54
5.49
1.92
-0.84
-2.86
-4.56
-6.50
-9.23
-13.04
-17.93
-23.53
-29.19
-34.03
-37.19
-37.95
-35.95
-31.35
-24.75
-17.02
-9.05
-1.56
5.00
10.40
14.44
16.97
17.89
17.28
15.55
13.36
11.46
10.39
10.29
10.93
11.84
12.65
13.19
13.54
13.81
14.03
14.02
13.49
12.22
10.16
7.49
4.47
1.40
-1.55
-4.28
-6.84
-9.28
-11.69
-14.14
-16.71
-19.53
-22.77
-26.57
-30.87
-35.34
-39.26
-41.65
-41.57
-38.46
-32.42
-24.20
-14.97
-5.92
2.03
8.44
13.18
16.32
17.92
18.02
16.76
14.44
11.63
9.03
7.33
6.95
7.89
9.80
12.13
14.32
16.05
17.30
18.25
19.06
19.74
20.05
19.63
18.14
15.49
11.91
7.88
3.90
0.36
-2.64
-5.27
-7.82
-10.55
-13.63
-17.11
-20.96
-25.12
-29.46
-33.62
-36.97
-38.68
-38.00
-34.49
-28.34
-20.34
-11.62
-3.29
3.85
9.54
13.83
16.98
19.19
20.56
21.09
20.86
20.02
18.92
17.97
17.56
17.91
18.99
20.47
21.87
22.74
22.81
22.16
21.05
19.84
18.70
17.52
16.03
13.89
10.97
7.51
3.94
0.71
-1.96
-4.13
-6.15
-8.40
-11.13
-14.38
-18.06
-22.05
-26.18
-30.23
-33.79
-36.23
-36.81
-34.94
-30.48
-23.84
-15.97
-7.99
-0.91
4.69
8.71
11.42
13.15
14.18
14.57
14.32
13.48
12.30
11.29
10.96
11.68
13.44
15.78
18.04
19.56
20.04
19.54
18.46
17.24
16.11
14.97
13.51
11.40
8.53
5.15
1.75
-1.16
-3.30
-4.77
-5.96
-7.44
-9.67
-12.88
-17.03
-21.86
-26.95
-31.74
-35.62
-37.88
-37.91
-35.30
-30.04
-22.64
-13.97
-5.06
3.20
10.19
15.67
19.65
22.26
23.66
23.94
23.25
21.78
19.89
18.03
16.75
16.45
17.28
18.98
20.95
22.49
22.95
22.13
20.18
17.47
14.38
11.12
7.72
4.20
0.66
-2.61
-5.36
-7.50
-9.25
-11.01
-13.13
-15.72
-18.61
-21.50
-24.27
-27.05
-30.17
-33.78
-37.57
-40.69
-41.99
-40.50
-35.82
-28.43
-19.44
-10.16
-1.71
5.35
10.96
15.32
18.61
20.69
21.28
20.26
17.90
15.05
12.81
12.11
13.25
15.70
18.39
20.34
21.08
20.91
20.64
20.95
22.02
23.30
23.86
22.95
20.41
16.76
12.85
9.44
6.82
4.73
2.67
0.20
-2.73
-5.92
-9.09
-12.17
-15.39
-19.16
-23.75
-28.97
-34.10
-38.05
-39.74
-38.45
-34.04
-27.05
-18.43
-9.27
-0.54
7.10
13.35
18.17
21.71
24.10
25.43
25.69
24.89
23.18
20.93
18.71
17.15
16.65
17.27
18.68
20.25
21.37
21.64
21.02
19.74
18.18
16.61
15.13
13.62
11.86
9.70
7.11
4.25
1.41
-1.19
-3.36
-5.16
-6.80
-8.66
-11.16
-14.61
-19.11
-24.48
-30.26
-35.72
-40.04
-42.40
-42.23
-39.31
-33.83
-26.45
-18.07
-9.64
-1.96
4.47
9.44
12.95
15.13
16.07
15.95
15.03
13.67
12.36
11.53
11.50
12.33
13.84
15.63
17.25
18.33
18.65
18.20
17.14
15.68
14.00
12.15
10.01
7.43
4.32
0.78
-2.87
-6.21
-8.92
-10.96
-12.54
-14.08
-16.06
-18.77
-22.24
-26.24
-30.35
-34.00
-36.55
-37.40
-36.07
-32.32
-26.28
-18.41
-9.53
-0.52
7.76
14.67
19.86
23.19
24.80
24.92
23.97
22.37
20.57
18.94
17.74
17.11
17.08
17.46
18.01
18.39
18.29
17.62
16.44
15.01
13.61
12.39
11.28
9.96
8.05
5.31
1.85
-1.90
-5.31
-7.90
-9.49
-10.34
-11.05
-12.30
-14.61
-18.16
-22.75
-27.99
-33.24
-37.73
-40.60
-41.04
-38.46
-32.75
-24.44
-14.62
-4.67
4.20
11.26
16.38
19.86
22.13
23.49
23.92
23.30
21.68
19.38
17.02
15.28
14.61
15.02
15.99
16.83
16.94
16.20
14.93
13.74
13.15
13.27
13.69
13.69
12.65
10.38
7.22
3.87
1.01
-0.99
-2.35
-3.65
-5.54
-8.51
-12.69
-17.91
-23.81
-29.84
-35.40
-39.79
-42.23
-42.09
-39.05
-33.32
-25.51
-16.57
-7.44
1.07
8.41
14.23
18.30
20.50
20.93
19.92
18.05
15.93
14.02
12.54
11.44
10.49
9.58
8.71
8.07
7.80
7.94
8.27
8.49
8.28
7.45
6.02
4.10
1.86
-0.56
-3.01
-5.32
-7.36
-9.07
-10.52
-11.97
-13.81
-16.45
-20.05
-24.41
-28.94
-32.77
-34.97
-34.79
-31.92
-26.58
-19.42
-11.32
-3.19
4.33
10.87
16.26
20.37
23.03
24.04
23.38
21.31
18.44
15.55
13.35
12.22
12.12
12.65
13.33
13.81
13.97
13.88
13.69
13.40
12.82
11.63
9.54
6.51
2.79
-1.09
-4.57
-7.33
-9.48
-11.50
-13.99
-17.44
-21.97
-27.29
-32.82
-37.82
-41.63
-43.73
-43.70
-41.31
-36.50
-29.49
-20.85
-11.46
-2.36
5.52
11.54
15.51
17.64
18.39
18.24
17.55
16.57
15.43
14.32
13.49
13.13
13.38
14.18
15.34
16.56
17.58
18.16
18.14
17.44
16.07
14.09
11.63
8.83
5.82
2.72
-0.33
-3.22
-5.84
-8.23
-10.59
-13.27
-16.65
-20.91
-25.84
-30.78
-34.69
-36.53
-35.54
-31.56
-25.00
-16.77
-7.89
0.71
8.47
15.05
20.35
24.20
26.46
26.95
25.70
22.99
19.47
15.89
12.94
10.97
9.98
9.63
9.51
9.41
9.34
9.47
9.94
10.69
11.36
11.47
10.63
8.74
6.08
3.12
0.33
-2.03
-4.00
-5.85
-7.89
-10.40
-13.48
-17.14
-21.23
-25.49
-29.47
-32.58
-34.11
-33.47
-30.32
-24.74
-17.26
-8.79
-0.32
7.25
13.33
17.68
20.37
21.66
21.83
21.13
19.82
18.17
16.48
15.08
14.27
14.14
14.60
15.40
16.20
16.71
16.79
16.45
15.74
14.70
13.20
11.08
8.19
4.55
0.43
-3.71
-7.44
-10.56
-13.18
-15.79
-18.95
-23.04
-27.98
-33.20
-37.73
-40.50
-40.71
-38.02
-32.68
-25.33
-16.84
-7.98
0.61
8.43
15.08
20.08
23.10
24.05
23.20
21.17
18.58
15.95
13.60
11.69
10.45
10.15
10.98
12.85
15.18
17.10
17.87
17.18
15.31
12.95
10.72
8.81
6.88
4.36
0.88
-3.44
-7.98
-11.94
-14.84
-16.78
-18.59
-21.32
-25.70
-31.58
-37.89
-42.92
-45.04
-43.36
-38.17
-30.60
-22.11
-13.76
-5.97
1.43
8.65
15.53
21.36
25.22
26.52
25.42
22.80
19.94
17.97
17.46
18.19
19.50
20.69
21.38
21.55
21.45
21.40
21.50
21.59
21.28
20.20
18.09
14.97
11.11
6.91
2.87
-0.71
-3.71
-6.24
-8.63
-11.30
-14.62
-18.79
-23.78
-29.32
-34.84
-39.63
-42.91
-43.94
-42.23
-37.68
-30.61
-21.74
-12.04
-2.54
5.88
12.63
17.41
20.26
21.44
21.32
20.34
18.92
17.41
16.07
15.09
14.60
14.61
15.08
15.88
16.77
17.50
17.88
17.80
17.30
16.47
15.42
14.16
12.64
10.76
8.44
5.71
2.71
-0.34
-3.28
-6.13
-9.06
-12.46
-16.74
-22.08
-28.26
-34.49
-39.63
-42.44
-42.04
-38.23
-31.55
-23.03
-13.89
-5.05
2.88
9.66
15.15
19.17
21.53
22.17
21.32
19.57
17.69
16.38
16.00
16.48
17.41
18.28
18.72
18.59
18.03
17.23
16.33
15.27
13.80
11.65
8.67
4.92
0.79
-3.24
-6.70
-9.40
-11.50
-13.39
-15.57
-18.35
-21.87
-26.03
-30.61
-35.26
-39.46
-42.47
-43.48
-41.75
-37.00
-29.57
-20.34
-10.49
-1.14
6.98
13.59
18.73
22.52
25.01
26.20
26.10
24.90
23.06
21.13
19.61
18.66
18.13
17.58
16.67
15.27
13.65
12.19
11.22
10.63
9.96
8.58
6.07
2.51
-1.58
-5.45
-8.41
-10.20
-11.05
-11.57
-12.42
-14.09
-16.77
-20.30
-24.34
-28.58
-32.63
-36.00
-38.04
-37.98
-35.21
-29.53
-21.41
-11.98
-2.63
5.43
11.56
15.85
18.80
20.98
22.67
23.72
23.80
22.78
20.92
18.90
17.46
17.14
17.94
19.37
20.75
21.56
21.63
21.17
20.48
19.78
19.01
17.88
16.08
13.46
10.16
6.51
2.88
-0.43
-3.28
-5.80
-8.23
-10.91
-14.13
-18.09
-22.79
-27.88
-32.72
-36.45
-38.20
-37.34
-33.76
-27.81
-20.25
-11.90
-3.51
4.36
11.27
16.88
20.82
22.84
22.87
21.15
18.27
15.01
12.13
10.18
9.32
9.39
10.10
11.15
12.38
13.74
15.19
16.59
17.64
18.02
17.42
15.76
13.21
10.09
6.73
3.45
0.38
-2.44
-5.05
-7.55
-10.09
-12.84
-15.99
-19.72
-24.02
-28.70
-33.22
-36.79
-38.48
-37.56
-33.72
-27.21
-18.85
-9.77
-1.03
6.56
12.58
16.93
19.59
20.58
19.92
17.77
14.54
10.86
7.52
5.18
4.16
4.40
5.54
7.13
8.75
10.15
11.26
12.00
12.23
11.75
10.34
7.92
4.63
0.81
-3.02
-6.43
-9.21
-11.41
-13.35
-15.45
-18.10
-21.48
-25.49
-29.80
-33.77
-36.68
-37.79
-36.60
-32.90
-26.95
-19.34
-10.88
-2.42
5.31
11.77
16.60
19.66
20.94
20.69
19.31
17.33
15.29
13.57
12.37
11.73
11.54
11.73
12.23
12.98
13.89
14.66
14.97
14.49
13.08
10.85
8.07
5.09
2.13
-0.74
-3.54
-6.32
-9.04
-11.59
-13.92
-16.14
-18.61
-21.70
-25.63
-30.17
-34.54
-37.59
-38.19
-35.62
-29.93
-21.85
-12.61
-3.40
4.87
11.82
17.36
21.51
24.23
25.34
24.81
22.86
20.09
17.33
15.31
14.37
14.38
14.83
15.21
15.16
14.69
14.03
13.43
13.02
12.70
12.15
11.08
9.31
6.85
3.98
1.04
-1.58
-3.72
-5.40
-6.87
-8.47
-10.55
-13.30
-16.76
-20.77
-24.94
-28.72
-31.40
-32.24
-30.68
-26.50
-19.98
-11.90
-3.27
4.85
11.64
16.69
19.94
21.60
21.97
21.35
19.99
18.11
15.99
13.98
12.48
11.86
12.25
13.47
15.05
16.37
16.95
16.58
15.42
13.76
11.88
9.81
7.40
4.42
0.87
-2.95
-6.60
-9.76
-12.45
-15.01
-17.95
-21.65
-26.12
-31.00
-35.66
-39.41
-41.65
-41.98
-40.18
-36.24
-30.32
-22.80
-14.18
-5.15
3.64
11.46
17.69
21.86
23.80
23.69
22.06
19.49
16.58
13.75
11.26
9.35
8.24
8.11
8.98
10.45
11.87
12.58
12.19
10.79
8.86
6.89
5.11
3.25
0.84
-2.47
-6.56
-10.82
-14.40
-16.76
-17.90
-18.65
-20.12
-23.22
-28.08
-33.85
-38.96
-41.77
-41.17
-37.11
-30.38
-22.16
-13.44
-4.77
3.78
12.21
20.26
27.18
32.11
34.40
33.99
31.52
28.10
24.86
22.61
21.60
21.61
22.19
22.92
23.53
23.91
24.01
23.81
23.20
22.09
20.38
18.10
15.30
12.10
8.66
5.17
1.84
-1.16
-3.73
-5.88
-7.81
-9.84
-12.32
-15.51
-19.58
-24.52
-30.08
-35.82
-41.04
-44.85
-46.34
-44.78
-39.84
-31.85
-21.70
-10.74
-0.37
8.27
14.62
18.69
20.94
21.95
22.17
21.85
21.02
19.72
18.18
16.85
16.29
16.85
18.48
20.65
22.59
23.60
23.34
21.98
20.00
17.90
15.96
14.08
11.98
9.41
6.38
3.10
-0.02
-2.71
-4.91
-6.85
-8.77
-10.94
-13.40
-16.17
-19.17
-22.41
-25.94
-29.72
-33.43
-36.48
-38.02
-37.21
-33.57
-27.17
-18.73
-9.39
-0.35
7.46
13.56
17.92
20.75
22.23
22.48
21.56
19.64
17.09
14.52
12.56
11.69
12.06
13.47
15.42
17.38
18.88
19.72
19.93
19.63
19.00
18.08
16.77
14.91
12.41
9.34
5.97
2.68
-0.20
-2.51
-4.36
-5.98
-7.64
-9.49
-11.63
-14.05
-16.84
-20.12
-23.97
-28.28
-32.53
-35.85
-37.23
-35.90
-31.70
-25.14
-17.24
-9.13
-1.65
4.81
10.19
14.43
17.36
18.75
18.44
16.71
14.22
11.89
10.53
10.42
11.39
12.86
14.20
15.01
15.25
15.11
14.86
14.53
13.97
12.90
11.10
8.59
5.64
2.64
-0.07
-2.50
-4.88
-7.47
-10.42
-13.56
-16.55
-19.13
-21.36
-23.72
-26.81
-30.98
-35.90
-40.56
-43.49
-43.38
-39.54
-32.32
-22.81
-12.51
-2.72
5.76
12.67
18.06
22.04
24.52
25.32
