1550003816.00
64.000000
-0.00
-0.00
-0.00
-0.00
-0.00
-0.00
-0.00
-0.00
-0.00
-0.00
0.00
0.01
0.01
-0.00
-0.03
-0.05
-0.05
0.00
0.13
0.36
0.66
1.01
1.37
1.72
2.06
2.40
2.79
3.24
3.80
4.42
5.06
5.66
6.20
6.68
7.15
7.68
8.31
9.14
10.09
11.04
11.88
12.56
13.14
13.76
14.65
15.96
17.91
20.32
22.90
25.38
27.58
29.57
31.68
34.32
37.81
42.54
48.15
54.10
59.83
64.97
69.58
74.14
79.34
85.71
93.76
103.00
112.62
121.73
129.77
136.75
143.30
150.75
157.77
166.64
177.95
191.79
206.97
220.57
228.25
225.36
208.53
176.87
132.76
80.05
23.07
-34.94
-92.44
-149.16
-205.23
-260.37
-313.74
-363.87
-409.83
-450.91
-486.50
-515.74
-537.23
-549.22
-549.96
-538.37
-514.21
-478.67
-433.88
-382.45
-327.02
-269.84
-212.63
-156.66
-102.95
-52.38
-5.91
35.58
71.43
101.36
125.52
144.41
158.74
169.22
176.47
180.89
182.76
182.30
179.79
175.56
170.04
163.61
156.62
149.32
141.84
134.25
126.60
118.93
111.30
103.78
96.45
89.36
82.54
76.02
69.80
63.89
58.31
53.05
48.15
43.61
39.43
35.61
32.09
28.84
25.81
23.00
20.44
18.17
16.25
14.70
13.50
12.57
11.84
11.22
10.69
10.26
9.99
9.96
10.20
10.67
11.23
11.77
12.18
12.44
12.63
12.94
13.57
14.59
15.87
17.03
17.62
17.22
15.59
12.80
9.21
5.17
0.88
-3.80
-9.28
-15.94
-23.85
-32.58
-41.07
-47.82
-51.47
-51.31
-47.48
-41.00
-33.31
-25.67
-18.48
-11.77
-4.92
2.50
10.42
17.88
23.37
25.43
23.03
15.52
2.70
-15.00
-36.05
-57.28
-73.99
-81.28
-76.08
-58.38
-33.12
-7.47
12.12
22.16
23.00
17.68
9.94
2.47
-3.65
-8.37
-11.55
-12.72
-11.51
-8.21
-3.86
0.35
3.73
6.47
9.59
14.33
21.50
31.30
43.25
56.54
69.45
79.50
83.48
78.78
65.24
45.95
26.33
11.51
3.44
-0.14
-3.99
-12.07
-24.46
-37.01
-43.76
-40.38
-26.73
-6.36
15.09
33.15
45.36
50.92
49.70
41.96
28.10
9.50
-11.27
-31.10
-46.91
-56.23
-57.49
-49.89
-34.70
-15.51
1.96
11.51
9.13
-4.74
-24.79
-42.78
-51.41
-47.48
-33.35
-15.66
-1.81
3.09
-1.88
-13.39
-26.16
-35.47
-38.73
-35.60
-26.83
-12.77
6.53
30.81
57.86
82.95
99.69
102.26
88.10
58.52
20.10
-17.77
-46.92
-63.28
-67.82
-65.15
-60.58
-57.20
-54.32
-47.56
-32.15
-6.09
27.87
62.76
90.08
103.50
101.27
85.42
62.08
38.42
19.51
6.57
-2.26
-9.44
-15.99
-20.87
-22.61
-20.54
-15.99
-11.68
-10.18
-12.50
-17.67
-23.32
-27.10
-27.93
-26.07
-23.07
-20.85
-20.70
-22.69
-25.76
-28.59
-30.20
-30.47
-29.75
-28.52
-27.23
-26.45
-27.17
-30.54
-36.77
-43.76
-47.07
-40.94
-21.21
12.06
53.96
96.52
132.26
156.90
169.76
171.93
164.07
145.73
116.45
78.34
36.83
-0.63
-27.73
-42.48
-48.17
-51.32
-57.77
-69.42
-82.82
-91.17
-88.17
-71.59
-44.77
-15.28
8.48
20.91
21.32
14.25
5.95
1.10
0.81
2.89
4.01
2.15
-2.09
-6.08
-6.40
-0.65
11.77
29.68
50.07
68.69
80.56
80.96
66.62
37.43
-3.09
-47.91
-88.01
-114.79
-122.65
-110.78
-82.65
-46.61
-11.63
15.43
31.41
36.88
35.34
31.72
30.86
35.95
47.36
62.56
76.12
81.65
74.19
52.56
20.08
-16.55
-49.46
-71.99
-79.97
-72.30
-50.55
-18.87
16.96
50.64
75.93
89.76
93.16
90.66
87.74
87.72
89.56
88.65
79.11
57.16
23.77
-15.66
-53.48
-83.15
-101.59
-110.02
-112.45
-112.22
-111.02
-108.58
-103.85
-96.37
-87.44
-78.26
-69.72
-61.43
-51.79
-39.04
-21.97
-1.04
21.77
43.48
61.74
74.52
81.36
83.20
81.45
77.65
72.57
66.13
57.56
46.32
32.36
16.20
-1.16
-18.64
-35.34
-50.92
-64.48
-76.71
-88.23
-99.13
-109.34
-118.47
-126.03
-131.55
-134.65
-135.05
-132.65
-128.36
-121.10
-110.14
-95.19
-76.34
-54.05
-29.20
-2.95
23.78
49.15
71.97
91.12
105.99
116.40
122.51
124.70
123.58
119.76
113.85
106.65
98.66
90.18
81.35
72.31
62.89
53.00
42.53
31.43
19.98
8.34
-3.27
-14.58
-25.27
-35.06
-43.64
-50.65
-55.80
-58.71
-59.16
-57.10
-52.56
-45.70
-36.83
-26.38
-14.95
-3.29
7.83
17.68
25.16
29.55
30.48
27.93
22.18
13.65
3.00
-9.05
-21.79
-34.56
-46.65
-57.40
-66.18
-72.43
-75.84
-76.15
-73.46
-68.05
-60.48
-51.20
-40.53
-28.59
-15.05
-0.48
14.45
28.91
41.76
51.88
58.62
62.02
62.93
62.61
62.22
62.53
63.26
63.42
61.81
57.82
51.82
45.18
39.76
36.84
36.29
36.73
35.94
32.03
24.66
14.76
4.00
-6.58
-17.14
-27.82
-38.11
-45.54
-46.48
-38.79
-23.34
-4.45
12.15
22.47
26.30
26.55
26.83
28.18
28.43
24.26
14.25
1.56
-7.15
-5.13
10.08
34.25
57.89
70.57
65.84
44.29
13.57
-15.11
-31.86
-33.42
-23.71
-11.55
-6.64
-14.14
-32.49
-54.32
-69.97
-72.71
-61.22
-39.25
-13.15
10.46
27.10
34.55
33.14
24.64
11.37
-4.30
-19.92
-32.79
-41.83
-45.63
-43.98
-37.86
-28.35
-16.57
-4.60
4.71
8.95
4.18
-11.92
-38.86
-72.17
-104.19
-127.22
-135.74
-126.17
-94.98
-45.38
13.33
68.27
107.15
122.35
112.99
85.36
50.70
28.95
38.08
83.32
153.53
227.42
282.96
311.69
307.15
269.16
204.32
122.60
35.28
-47.00
-114.68
-155.27
-162.37
-142.59
-110.20
-78.95
-57.46
-48.07
-48.40
-53.72
-59.40
-63.04
-64.77
-64.06
-59.88
-52.45
-43.71
-36.15
-31.35
-29.45
-29.81
-31.76
-33.65
-33.59
-30.92
-26.50
-21.98
-18.77
-17.45
-18.06
-20.38
-23.33
-25.60
-26.39
-25.92
-24.95
-24.40
-24.89
-26.72
-29.91
-33.92
-38.01
-41.59
-44.55
-47.01
-49.43
-52.27
-55.88
-60.42
-65.76
-71.61
-77.66
-83.64
-89.20
-94.22
-98.51
-101.76
-103.61
-103.54
-100.95
-95.25
-86.25
-73.19
-56.01
-35.16
-11.51
13.65
39.00
63.30
85.56
104.18
119.04
130.07
137.28
140.65
140.21
136.31
129.67
121.33
112.55
104.65
98.20
93.14
89.25
85.14
79.87
73.25
65.86
59.00
54.14
51.96
52.17
53.43
53.91
52.27
48.21
42.47
36.77
33.01
32.38
35.25
41.08
48.29
54.30
55.97
50.43
36.98
18.16
-0.50
-12.31
-12.20
0.95
23.62
48.72
68.03
75.08
66.97
45.00
13.81
-20.28
-51.16
-74.51
-88.60
-94.12
-93.25
-88.50
-81.65
-73.69
-65.70
-58.89
-54.66
-53.77
-55.67
-58.58
-60.26
-59.18
-55.05
-49.09
-43.22
-39.18
-37.98
-39.68
-43.48
-47.81
-50.58
-49.68
-43.59
-32.10
-16.74
-0.43
13.54
22.73
26.45
25.72
22.52
18.65
15.03
11.73
8.66
6.15
5.16
6.62
10.47
15.26
18.48
17.99
13.27
6.05
-0.38
-2.95
-0.43
5.91
13.05
18.04
19.53
18.51
17.43
18.70
23.42
31.11
40.09
48.35
54.25
56.64
55.11
49.97
42.41
34.33
27.74
23.97
23.00
23.52
23.59
21.51
16.51
8.81
-1.03
-12.30
-24.36
-36.41
-47.26
-55.50
-59.87
-59.91
-56.04
-49.39
-41.37
-33.36
-26.61
-22.14
-20.58
-21.91
-25.23
-28.85
-30.93
-30.29
-26.97
-22.32
-18.20
-15.86
-15.47
-15.95
-15.49
-12.57
-6.54
1.82
10.58
17.43
20.88
20.31
16.34
11.06
7.28
7.77
13.75
23.94
34.92
42.45
42.02
31.10
11.05
-13.19
-34.55
-47.57
-50.84
-46.31
-36.95
-26.48
-17.01
-8.12
2.02
16.04
35.44
59.66
88.08
120.61
154.90
186.91
213.12
224.43
216.60
190.26
149.38
96.01
44.18
7.78
-9.30
-12.38
-8.87
-2.58
5.53
11.66
14.03
11.46
2.09
-15.18
-39.72
-70.25
-106.21
-135.05
-150.81
-153.23
-146.64
-137.19
-128.78
-121.70
-114.04
-103.43
-88.99
-73.83
-61.39
-53.66
-51.05
-52.04
-53.85
-53.38
-48.59
-39.26
-28.59
-20.22
-16.78
-19.68
-28.31
-39.73
-48.77
-49.14
-35.31
-5.87
35.96
82.29
122.30
145.77
146.85
126.36
91.17
51.42
15.89
-10.47
-27.21
-36.95
-42.92
-46.87
-48.71
-47.71
-43.83
-38.80
-35.74
-37.37
-44.57
-55.77
-67.46
-75.95
-79.20
-77.52
-73.21
-69.53
-68.84
-72.10
-78.81
-88.26
-98.08
-106.46
-111.18
-109.62
-99.48
-80.10
-52.78
-23.18
2.71
20.66
29.56
31.67
31.17
31.62
34.76
40.44
47.57
55.60
64.80
75.55
87.67
99.89
110.11
116.25
116.91
111.95
102.71
91.22
79.37
68.43
58.77
50.09
41.79
33.41
24.87
16.56
9.25
3.46
-0.64
-3.27
-4.85
-5.92
-6.88
-8.08
-9.67
-11.36
-12.87
-13.86
-13.88
-12.44
-9.21
-4.16
2.32
9.38
16.60
23.50
29.97
36.40
43.50
51.92
61.83
72.71
83.53
93.83
103.31
112.25
121.58
132.79
147.78
168.93
199.12
235.83
277.26
319.46
356.01
379.28
382.76
363.42
322.88
266.71
202.30
137.33
77.35
25.82
-15.16
-44.33
-61.15
-66.35
-62.33
-52.97
-42.04
-32.48
-25.35
-19.60
-12.84
-2.70
11.87
29.85
48.20
63.11
70.90
69.39
58.66
40.81
18.88
-4.39
-27.37
-49.54
-70.60
-89.93
-106.25
-118.03
-124.04
-124.11
-119.10
-110.41
-99.16
-85.82
-70.39
-52.86
-33.57
-13.25
7.27
27.32
46.44
64.17
79.88
92.73
102.11
107.88
110.54
111.00
110.03
107.88
104.07
97.67
87.72
73.76
56.18
36.37
16.53
-0.67
-12.51
-16.86
-12.70
-0.55
17.44
37.78
56.51
70.23
77.06
76.97
71.38
62.30
51.42
39.49
26.39
11.42
-6.09
-26.49
-49.68
-75.08
-101.79
-128.68
-154.83
-179.54
-202.64
-224.42
-245.36
-266.01
-286.85
-308.08
-329.27
-348.75
-363.59
-370.44
-367.16
-354.50
-336.34
-318.16
-304.26
-295.44
-288.50
-278.19
-260.26
-233.83
-201.96
-170.07
-143.52
-125.66
-117.06
-115.90
-118.72
-121.36
-119.64
-110.53
-93.44
-70.52
-46.23
-25.80
-13.09
-9.15
-12.00
-17.54
-21.12
-18.88
-8.45
10.85
38.18
71.44
107.60
142.95
173.85
197.62
213.24
221.50
224.21
222.73
216.73
203.91
180.58
143.35
90.97
25.56
-47.42
-120.39
-185.75
-237.83
-274.07
-295.18
-304.41
-306.32
-305.68
-306.27
-310.15
-317.07
-324.41
-327.82
-322.28
-303.73
-270.35
-223.01
-164.70
-99.23
-30.04
40.27
109.47
174.95
233.50
281.79
317.44
340.05
351.18
353.68
350.32
342.85
331.85
317.41
300.09
281.53
264.31
250.98
242.96
239.60
238.26
235.23
227.14
212.17
190.52
164.11
135.56
107.14
79.73
52.42
22.56
-13.39
-58.37
-113.06
-174.53
-236.25
-289.72
-326.98
-343.09
-337.41
-313.23
-276.25
-232.99
-189.77
-152.27
-125.18
-111.58
-112.07
-124.58
-145.18
-169.73
-195.49
-221.67
-248.66
-276.51
-303.93
-328.37
-346.87
-357.00
-357.33
-347.06
-325.62
-292.54
-247.94
-193.29
-131.65
-66.98
-2.81
58.84
117.64
173.91
227.11
274.99
313.96
340.71
354.09
355.85
349.93
340.54
330.23
318.99
305.17
287.15
265.03
241.14
219.03
201.87
191.14
186.29
185.43
186.39
187.49
187.70
186.27
182.33
174.98
163.61
148.35
130.21
110.88
92.22
75.85
62.83
53.60
47.96
44.94
43.01
40.47
36.15
30.12
23.66
18.77
16.92
18.21
21.09
23.03
21.74
16.06
6.33
-6.17
-19.91
-33.62
-46.35
-57.28
-65.50
-70.20
-71.10
-68.63
-63.98
-58.59
-53.57
-49.32
-45.54
-41.65
-37.25
-32.39
-27.41
-22.74
-18.54
-14.83
-11.62
-9.19
-8.03
-8.49
-10.37
-12.67
-13.93
-12.94
-9.38
-4.17
1.04
4.49
5.09
2.65
-2.27
-8.86
-16.34
-23.93
-30.69
-35.55
-37.77
-37.42
-35.64
-34.34
-35.34
-39.51
-46.30
-54.02
-60.61
-64.48
-64.99
-62.43
-57.60
-51.36
-44.40
-37.30
-30.65
-25.11
-21.35
-19.74
-20.16
-21.94
-23.87
-24.55
-22.86
-18.39
-11.76
-4.60
1.05
3.37
1.70
-3.22
-9.39
-14.31
-15.83
-12.96
-6.01
3.59
13.87
22.93
29.36
32.54
32.53
29.95
25.72
20.86
16.28
12.60
10.09
8.65
7.87
7.19
6.03
3.97
0.84
-3.26
-7.98
-12.80
-17.08
-20.29
-22.06
-22.43
-21.77
-20.74
-19.92
-19.64
-19.78
-19.94
-19.48
-17.71
-13.89
-7.31
2.51
15.43
30.49
46.09
60.55
72.85
83.03
91.85
99.99
107.28
112.51
114.06
110.89
103.29
92.84
81.63
71.38
62.90
56.24
51.30
48.36
48.13
51.21
57.56
66.16
75.11
81.95
84.16
79.56
66.70
45.40
17.18
-14.65
-45.69
-71.85
-90.83
-102.96
-110.76
-117.62
-125.95
-136.18
-146.82
-155.58
-160.52
-160.66
-155.88
-146.15
-131.22
-110.60
-84.21
-53.01
-19.11
14.68
45.74
72.53
94.78
113.14
128.42
140.70
149.22
152.70
150.12
141.37
127.55
110.54
92.39
74.50
57.29
40.24
22.32
2.45
-19.97
-44.76
-70.79
-96.24
-118.91
-136.90
-149.17
-155.58
-156.76
-153.38
-145.80
-134.13
-118.76
-101.08
-83.64
-69.54
-61.16
-59.06
-61.60
-65.91
-69.17
-69.72
-67.28
-62.43
-55.83
-48.13
-40.35
-34.45
-33.04
-38.35
-50.45
-66.31
-80.10
-85.27
-77.31
-55.80
-24.67
9.54
40.31
63.55
78.54
87.35
93.32
99.85
109.71
125.08
147.51
177.45
213.10
249.67
279.72
295.13
289.92
262.69
217.38
162.00
105.79
56.41
18.19
-8.14
-24.26
-32.66
-35.45
-34.01
-29.16
-21.64
-12.35
-2.28
7.73
17.07
25.33
32.25
37.54
41.02
42.82
43.48
43.92
45.05
47.38
50.73
54.03
55.46
52.73
43.71
27.18
3.50
-25.18
-55.36
-83.29
-106.07
-122.31
-132.11
-136.43
-136.25
-132.13
-124.19
-112.38
-96.80
-77.84
-56.06
-32.20
-7.26
17.34
39.93
58.86
72.92
81.70
85.70
86.13
84.49
82.19
80.28
79.24
79.03
79.16
78.97
77.87
75.51
71.75
66.50
59.62
50.85
40.02
27.26
13.15
-1.44
-15.61
-28.81
-40.96
-52.15
-62.27
-70.71
-76.43
-78.53
-76.93
-72.76
-68.18
-65.51
-66.10
-69.76
-74.71
-78.64
-79.75
-77.61
-72.91
-66.80
-59.89
-51.91
-42.04
-29.72
-15.30
-0.12
14.15
26.40
36.51
45.25
53.56
61.65
68.69
73.04
73.07
67.91
57.96
44.75
30.43
17.12
6.24
-1.72
-7.21
-11.23
-14.94
-19.33
-24.91
-31.79
-39.74
-48.35
-57.12
-65.61
-73.32
-79.77
-84.44
-86.92
-87.10
-85.31
-82.29
-78.83
-75.40
-71.85
-67.54
-61.88
-54.92
-47.61
-41.38
-37.42
-35.96
-36.23
-37.15
-38.21
-40.04
-44.09
-51.66
-62.78
-75.84
-88.09
-96.71
-99.84
-97.05
-89.09
-77.21
-62.67
-46.51
-29.76
-13.63
0.40
10.85
16.62
17.38
13.73
7.14
-0.41
-6.93
-10.93
-11.92
-10.56
-8.39
-7.27
-8.63
-12.80
-18.95
-25.52
-31.18
-35.62
-39.77
-45.36
-53.89
-65.76
-80.01
-94.72
-107.97
-118.45
-125.81
-130.19
-131.68
-129.87
-123.94
-113.22
-97.55
-77.44
-53.72
-27.07
2.05
33.15
65.14
96.17
123.85
146.10
161.92
171.86
177.61
181.44
185.33
190.53
197.46
205.92
215.29
224.69
233.01
239.02
241.43
239.14
231.35
217.67
198.12
173.06
143.03
108.69
70.82
30.48
-10.89
-51.34
-88.56
-120.08
-143.55
-156.98
-158.92
-148.77
-127.20
-96.36
-59.88
-22.20
12.42
40.98
62.36
77.10
86.68
92.62
95.67
95.70
91.89
83.27
69.18
49.70
25.63
-1.72
-30.87
-60.51
-89.76
-118.05
-145.00
-170.26
-193.53
-214.53
-232.96
-248.37
-259.97
-266.59
-266.88
-259.88
-245.60
-225.26
-200.82
-174.09
-146.22
-117.75
-89.06
-60.76
-33.58
-7.92
16.46
40.53
65.66
92.25
118.65
141.17
155.08
156.49
143.61
117.42
81.26
40.98
2.82
-28.04
-48.17
-55.88
-51.26
-36.96
-18.88
-4.98
-0.11
-4.46
-13.33
-19.52
-16.71
-2.80
18.40
38.61
49.54
50.97
49.26
52.69
65.63
86.50
109.65
129.00
141.13
147.13
156.52
180.76
227.41
296.44
381.34
473.03
562.36
641.06
675.67
641.57
538.37
395.41
252.17
134.67
49.49
-9.42
-51.90
-85.35
-108.26
-116.28
-108.12
-89.02
-68.58
-54.94
-51.61
-57.67
-70.11
-81.27
-84.32
-76.75
-61.35
-44.10
-29.53
-18.90
-11.31
-4.84
4.65
20.41
42.70
71.50
101.94
127.45
146.18
157.72
161.99
159.59
152.63
141.97
127.76
109.72
88.61
66.08
43.23
20.36
-2.41
-25.08
-47.66
-69.71
-90.57
-108.98
-123.90
-135.56
-145.64
-156.54
-170.67
-189.83
-214.42
-243.42
-274.04
-301.88
-322.11
-330.60
-325.39
-307.92
-283.15
-257.69
-237.29
-223.95
-214.94
-204.17
-185.07
-153.80
-111.10
-62.15
-14.38
25.38
53.15
68.30
72.58
68.27
56.77
38.35
12.66
-19.49
-55.51
-91.41
-123.22
-148.83
-168.91
-186.32
-204.44
-224.99
-246.85
-266.81
-281.10
-287.17
-284.39
-273.63
-256.32
-233.39
-205.29
-172.25
-135.33
-96.46
-57.50
-19.21
18.80
56.81
93.36
124.72
146.73
155.88
151.11
134.91
112.93
91.75
75.92
66.02
59.18
52.54
43.02
27.96
6.12
-20.89
-48.55
-71.37
-84.87
-86.48
-73.21
-44.96
-5.24
40.40
87.53
134.15
179.66
223.66
266.26
311.60
362.72
419.11
476.70
530.63
576.80
611.54
631.87
612.10
541.38
432.45
315.20
214.91
140.97
90.21
56.08
27.03
-3.41
-33.96
-62.90
-92.16
-128.21
-174.68
-225.98
-273.27
-309.13
-330.41
-335.61
-326.36
-307.24
-284.39
-262.89
-245.72
-234.88
-231.58
-234.87
-239.56
-238.94
-227.25
-201.85
-163.87
-118.34
-73.45
-37.67
-15.87
-7.00
-6.32
-8.44
-9.72
-8.95
-6.70
-4.18
-2.01
0.23
4.78
13.10
25.09
39.53
54.43
67.93
78.68
86.16
90.78
93.58
95.49
96.95
98.35
99.38
99.32
97.45
93.44
87.67
81.24
75.32
70.82
69.15
71.55
78.79
90.84
106.28
122.26
134.80
139.98
130.19
102.97
61.38
12.66
-34.27
-71.90
-96.13
-106.72
-106.15
-97.92
-84.35
-66.61
-46.81
-29.10
-18.96
-20.45
-33.48
-52.70
-69.13
-73.27
-58.57
-25.19
20.13
67.36
107.64
136.41
153.72
162.11
157.25
137.13
103.60
62.73
21.59
-14.92
-44.99
-69.13
-88.59
-105.57
-119.78
-130.25
-136.58
-139.72
-141.77
-145.19
-150.95
-159.21
-168.51
-174.86
-174.28
-164.67
-146.88
-124.20
-101.10
-81.56
-68.20
-61.62
-60.15
-61.85
-65.67
-71.92
-81.44
-94.32
-108.92
-122.02
-129.80
-128.97
-118.39
-99.36
-74.90
-48.29
-22.02
2.59
24.93
44.52
60.84
73.14
80.64
82.89
80.01
72.76
62.54
51.24
41.01
33.77
30.63
31.59
35.54
40.71
45.40
48.65
50.80
53.50
59.43
71.59
92.58
123.98
165.73
215.74
269.72
321.77
365.31
394.89
407.68
404.33
388.48
365.07
338.07
308.90
276.50
238.93
195.80
149.60
105.03
66.69
36.39
11.67
-13.34
-44.99
-87.11
-139.23
-197.06
-254.69
-306.62
-348.58
-376.93
-388.01
-378.82
-348.99
-302.68
-248.42
-196.25
-153.25
-119.82
-89.61
-53.73
-6.81
48.67
102.84
143.61
162.86
159.92
140.02
109.78
73.36
32.08
-12.33
-54.26
-84.21
-93.21
-79.06
-50.03
-22.91
-15.28
-36.75
-84.04
-142.89
-195.25
-227.49
-235.08
-222.05
-196.69
-166.42
-134.54
-100.42
-61.83
-17.79
29.39
74.37
110.82
134.11
143.83
144.19
142.32
145.22
156.67
175.95
198.74
219.49
233.98
240.71
240.66
236.01
228.86
220.58
211.93
203.46
195.67
188.80
182.87
177.58
172.64
167.98
163.69
159.70
155.61
150.83
144.80
137.33
128.58
118.82
108.49
98.19
88.89
81.77
77.66
76.36
75.98
73.07
63.78
45.32
17.52
-16.80
-52.59
-84.26
-107.86
-122.79
-132.31
-142.45
-159.47
-186.85
-223.00
-261.17
-291.51
-304.69
-295.25
-263.54
-215.24
-159.27
-104.97
-60.03
-29.71
-16.84
-22.19
-44.54
-80.39
-123.88
-167.65
-204.57
-229.72
-241.73
-242.42
-235.17
-222.45
-204.37
-179.08
-144.89
-102.56
-56.23
-12.10
24.16
49.53
64.00
69.11
65.99
54.72
35.27
9.41
-18.32
-41.46
-54.06
-53.32
-40.75
-21.54
-2.20
11.95
18.58
18.65
15.82
14.89
20.05
33.23
53.18
75.59
94.63
105.02
103.99
92.05
72.19
48.14
22.76
-2.62
-27.70
-51.97
-73.94
-91.19
-101.34
-103.36
-98.22
-88.68
-78.27
-69.90
-65.12
-64.13
-66.60
-72.61
-82.93
-98.74
-120.63
-147.47
-175.93
-201.05
-217.88
-223.37
-217.76
-204.86
-190.72
-181.43
-180.73
-188.40
-200.44
-210.63
-212.80
-202.96
-180.27
-146.60
-105.27
-59.58
-12.02
35.69
82.06
125.39
163.84
196.12
222.35
244.74
266.99
293.20
326.18
365.96
409.41
451.02
484.55
505.12
510.63
502.56
485.56
466.11
450.37
442.07
440.99
443.05
441.79
430.98
407.17
370.77
325.43
275.97
226.11
177.03
127.60
75.51
18.47
-44.78
-113.93
-186.38
-256.80
-317.17
-358.56
-373.40
-358.48
-316.49
-255.54
-186.64
-120.44
-64.39
-21.56
8.90
30.38
47.15
63.06
80.64
100.67
122.09
142.49
159.14
170.09
174.96
174.90
171.84
167.28
161.36
152.51
137.98
114.91
81.27
36.66
-17.30
-76.97
-136.93
-190.88
-233.09
-260.36
-273.47
-277.21
-278.65
-284.19
-296.83
-315.10
-334.22
-348.81
-355.50
-353.98
-346.11
-333.99
-318.27
-297.99
-271.77
-239.46
-203.00
-165.93
-131.81
-102.65
-78.17
-56.35
-34.86
-12.23
11.52
35.10
56.59
73.93
85.35
89.89
87.81
80.99
72.63
66.24
64.19
66.63
71.33
74.80
74.00
67.82
57.53
46.19
37.34
33.82
37.02
46.71
61.34
78.58
95.93
111.36
123.44
131.16
133.49
128.97
115.85
92.62
58.93
16.28
-31.78
-80.05
-122.87
-155.12
-173.26
-175.82
-163.63
-139.53
-107.98
-74.18
-43.09
-18.54
-2.53
4.92
5.42
1.32
-5.24
-12.92
-21.31
-30.22
-39.07
-46.30
-49.81
-47.80
-39.82
-27.22
-12.77
0.31
9.58
14.12
14.55
12.38
9.26
6.30
3.92
2.02
0.22
-1.89
-4.65
-8.16
-12.33
-16.87
-21.47
-26.03
-30.93
-37.08
-45.76
-58.13
-74.55
-94.25
-115.14
-134.26
-148.60
-155.62
-153.87
-142.89
-122.92
-94.66
-59.01
-16.85
31.16
84.56
142.59
203.30
262.79
315.27
354.31
374.84
374.99
356.62
324.09
281.86
232.62
177.14
116.19
53.12
-4.98
-48.73
-70.38
-67.84
-46.60
-18.17
4.41
11.58
0.30
-25.82
-59.35
-92.73
-120.94
-142.15
-156.68
-165.43
-168.77
-166.43
-158.02
-143.76
-124.99
-104.22
-84.57
-69.17
-60.26
-58.55
-63.03
-71.06
-79.07
-83.35
-80.89
-70.09
-51.06
-25.54
3.46
32.48
58.40
79.15
93.85
102.62
106.06
104.80
99.42
90.65
79.35
66.45
52.60
37.97
22.38
5.74
-11.36
-27.43
-40.41
-48.39
-50.53
-47.40
-40.78
-32.98
-25.93
-20.66
-17.21
-14.98
-13.33
-11.83
-10.36
-8.83
-6.80
-3.25
3.30
14.52
31.51
54.31
81.57
110.78
138.93
163.42
182.80
197.02
207.16
215.04
222.60
231.43
242.36
255.08
267.97
278.34
283.00
279.43
266.76
246.12
220.25
192.50
165.69
141.56
120.79
103.53
89.79
79.76
73.50
70.55
69.62
68.56
64.55
54.76
37.22
11.73
-19.85
-54.14
-87.46
-117.04
-141.71
-161.41
-176.37
-186.30
-190.48
-188.47
-180.89
-169.60
-157.09
-145.29
-134.90
-125.72
-117.50
-110.92
-107.60
-109.51
-117.86
-132.47
-151.73
-172.86
-192.73
-208.13
-216.55
-216.90
-210.25
-200.41
-193.42
-196.02
-213.06
-245.05
-286.95
-329.10
-360.08
-370.41
-355.63
-317.35
-261.96
-197.69
-131.39
-66.49
-3.14
59.97
123.02
183.20
234.78
270.98
286.94
282.05
260.41
229.10
195.16
163.09
133.87
106.44
80.02
55.79
36.67
25.25
21.55
22.17
21.69
15.44
1.96
-16.64
-36.38
-54.38
-70.72
-88.39
-110.94
-139.51
-171.09
-198.93
-215.08
-213.68
-193.17
-156.58
-109.91
-59.74
-11.47
31.53
67.57
96.02
116.78
130.20
137.32
139.84
139.87
139.42
139.70
140.79
141.51
139.90
133.96
122.56
106.17
86.99
68.29
53.16
43.16
37.64
34.25
30.29
24.24
16.64
9.72
5.98
6.70
10.99
16.17
19.17
17.99
12.58
4.65
-3.45
-9.86
-13.97
-16.22
-17.50
-18.39
-18.80
-18.23
-16.21
-12.74
-8.43
-4.22
-0.97
0.87
1.38
0.95
0.05
-0.95
-1.95
-2.98
-4.18
-5.63
-7.27
-8.88
-10.15
-10.73
-10.41
-9.24
-7.53
-5.89
-4.94
-5.29
-7.28
-10.90
-15.85
-21.48
-26.91
-31.24
-33.73
-34.08
-32.46
-29.26
-24.86
-19.33
-12.41
-3.85
6.15
16.62
25.94
32.36
34.69
32.75
27.45
20.23
12.52
5.15
-1.73
-8.37
-15.05
-21.79
-28.38
-34.57
-40.15
-44.79
-47.61
-47.03
-41.16
-28.78
-10.48
10.87
30.72
44.40
48.98
44.44
33.41
19.82
7.26
-2.13
-7.74
-9.78
-8.49
-3.86
4.03
14.43
25.76
35.90
43.10
46.66
47.27
46.55
46.06
46.48
47.17
46.52
42.85
35.24
24.03
10.66
-2.85
-14.64
-23.28
-27.85
-27.76
-22.70
-12.91
0.58
15.76
30.01
40.71
46.04
45.46
39.64
30.00
18.11
5.36
-7.14
-18.37
-27.26
-32.68
-33.79
-30.44
-23.43
-14.36
-5.22
2.20
6.82
8.45
7.56
4.97
1.38
-2.76
-7.19
-11.69
-15.93
-19.43
-21.67
-22.37
-21.55
-19.62
-17.15
-14.71
-12.68
-11.20
-10.18
-9.50
-9.09
-9.03
-9.49
-10.59
-12.33
-14.53
-16.94
-19.31
-21.53
-23.54
-25.26
-26.49
-26.86
-25.97
-23.51
-19.50
-14.28
-8.56
-3.09
1.47
4.77
6.75
7.55
7.36
6.32
4.52
2.15
-0.45
-2.76
-4.27
-4.67
-4.05
-2.82
-1.59
-0.85
-0.78
-1.25
-1.84
-2.19
-2.06
-1.47
-0.66
0.03
0.30
0.02
-0.80
-1.98
-3.33
-4.68
-5.89
-6.76
-7.05
-6.42
-4.55
-1.41
2.73
7.21
11.28
14.29
15.95
16.40
16.00
15.19
14.27
13.29
12.16
10.76
9.02
7.05
5.07
3.35
2.07
1.25
0.76
0.36
-0.13
-0.76
-1.41
-1.86
-1.96
-1.69
-1.24
-0.94
-1.08
-1.89
-3.43
-5.62
-8.29
-11.20
-14.06
-16.47
-17.96
-18.04
-16.35
-12.84
-7.85
-2.09
3.56
8.37
11.88
14.06
15.16
15.51
15.32
14.65
13.50
11.91
10.10
8.38
7.07
6.32
6.07
6.12
6.21
6.14
5.79
5.16
4.25
3.14
1.86
0.47
-1.00
-2.56
-4.20
-5.91
-7.73
-9.63
-11.60
-13.56
-15.36
-16.68
-17.09
-16.13
-13.47
-9.12
-3.44
2.85
8.95
14.13
17.94
20.28
21.24
21.04
19.90
18.02
15.58
12.85
10.17
7.92
6.39
5.68
5.70
6.14
6.70
7.12
7.28
7.20
6.92
6.45
5.70
4.55
2.90
0.77
-1.73
-4.43
-7.19
-9.97
-12.75
-15.49
-18.01
-19.98
-20.94
-20.49
-18.44
-14.91
-10.28
-5.12
0.02
4.73
8.72
11.80
13.79
14.53
14.03
12.48
10.36
8.28
6.84
6.35
6.73
7.60
8.47
9.02
9.17
9.09
8.95
8.76
8.28
7.19
5.34
2.90
0.29
-2.05
-3.94
-5.57
-7.44
-10.06
-13.57
-17.71
-21.78
-24.97
-26.62
-26.38
-24.24
-20.43
-15.31
-9.35
-3.06
3.05
8.44
12.68
15.47
16.69
16.46
15.05
12.93
10.58
8.46
6.94
6.14
6.03
6.40
6.97
7.46
7.70
7.66
7.42
7.14
6.91
6.71
6.41
5.76
4.61
2.92
0.80
-1.60
-4.14
-6.88
-9.91
-13.32
-16.99
-20.51
-23.26
-24.56
-23.87
-21.00
-16.20
-10.08
-3.44
2.93
8.41
12.69
15.65
17.34
17.85
17.30
15.84
13.74
11.35
9.10
7.40
6.47
6.33
6.81
7.60
8.43
9.11
9.57
9.78
9.70
9.30
8.49
7.25
5.68
3.92
2.18
0.58
-0.90
-2.43
-4.25
-6.55
-9.38
-12.52
-15.57
-17.98
-19.21
-18.91
-16.96
-13.51
-8.98
-3.92
1.10
5.59
9.18
11.64
12.93
13.16
12.56
11.41
10.01
8.58
7.24
6.06
5.09
4.36
3.97
3.97
4.36
4.99
5.62
5.96
5.78
5.00
3.71
2.14
0.58
-0.75
-1.79
-2.66
-3.59
-4.88
-6.68
-9.05
-11.81
-14.68
-17.24
-19.09
-19.82
-19.14
-16.91
-13.20
-8.31
-2.71
3.00
8.20
12.36
15.14
16.47
16.52
15.56
13.88
11.76
9.42
7.11
5.11
3.71
3.13
3.33
4.10
5.07
5.90
6.41
6.55
6.34
5.79
4.82
3.38
1.50
-0.63
-2.73
-4.53
-5.93
-7.10
-8.44
-10.45
-13.39
-17.16
-21.16
-24.47
-26.11
-25.43
-22.44
-17.68
-12.06
-6.46
-1.42
2.83
6.34
9.18
11.25
12.39
12.49
11.66
10.28
8.85
7.82
7.43
7.59
8.02
8.44
8.68
8.77
8.80
8.84
8.83
8.59
7.95
6.86
5.38
3.70
2.00
0.41
-1.01
-2.28
-3.47
-4.70
-6.16
-8.02
-10.41
-13.24
-16.18
-18.68
-20.13
-20.01
-18.09
-14.52
-9.78
-4.49
0.70
5.32
9.12
12.02
14.02
15.08
15.16
14.33
12.76
10.80
8.89
7.40
6.49
6.09
5.98
5.93
5.86
5.84
5.96
6.27
6.64
6.81
6.50
5.53
3.95
2.00
-0.04
-1.95
-3.70
-5.40
-7.26
-9.40
-11.82
-14.38
-16.86
-18.97
-20.46
-21.09
-20.66
-18.99
-15.98
-11.72
-6.56
-1.09
4.01
8.13
10.90
12.29
12.57
12.09
11.22
10.17
9.01
7.84
6.76
5.93
5.50
5.55
6.01
6.68
7.33
7.77
7.88
7.66
7.16
6.43
5.49
4.31
2.80
0.97
-1.14
-3.40
-5.68
-7.92
-10.13
-12.41
-14.85
-17.40
-19.84
-21.79
-22.81
-22.53
-20.77
-17.62
-13.41
-8.63
-3.83
0.53
4.15
6.92
8.88
10.07
10.56
10.39
9.58
8.27
6.69
5.20
4.15
3.77
4.04
4.73
5.51
6.08
6.30
6.19
5.86
5.36
4.65
3.66
2.34
0.77
-0.84
-2.29
-3.51
-4.60
-5.83
-7.52
-9.83
-12.64
-15.50
-17.78
-18.81
-18.19
-15.85
-12.15
-7.70
-3.12
1.13
4.79
7.80
10.12
11.67
12.32
12.03
10.94
9.38
7.87
6.81
6.47
6.78
7.48
8.17
8.53
8.42
7.83
6.85
5.56
3.97
2.10
0.01
-2.12
-3.99
-5.33
-5.97
-6.01
-5.74
-5.61
-6.01
-7.20
-9.19
-11.73
-14.44
-16.80
-18.34
-18.72
-17.76
-15.54
-12.32
-8.49
-4.50
-0.72
2.55
5.14
6.97
8.07
8.52
8.44
8.01
7.34
6.56
5.81
5.19
4.87
4.94
5.37
5.99
6.51
6.63
6.19
5.23
3.96
2.67
1.54
0.61
-0.28
-1.33
-2.75
-4.63
-6.95
-9.59
-12.31
-14.84
-16.88
-18.12
-18.26
-17.10
-14.58
-10.91
-6.50
-1.96
2.14
5.36
7.57
8.87
9.46
9.48
8.96
7.90
6.37
4.64
3.12
2.15
1.91
2.24
2.79
3.24
3.40
3.29
3.03
2.72
2.29
1.59
0.47
-1.09
-2.93
-4.75
-6.26
-7.40
-8.26
-9.24
-10.71
-12.83
-15.39
-17.76
-19.11
-18.72
-16.29
-12.06
-6.76
-1.26
3.68
7.66
10.57
12.50
13.53
13.72
13.12
11.92
10.46
9.15
8.30
8.04
8.30
8.84
9.38
9.74
9.82
9.58
9.04
8.19
7.07
5.68
4.06
2.28
0.42
-1.46
-3.28
-5.03
-6.76
-8.54
-10.49
-12.62
-14.81
-16.76
-18.07
-18.29
-17.13
-14.53
-10.71
-6.11
-1.27
3.25
7.06
9.92
11.80
12.75
12.93
12.52
11.73
10.78
9.87
9.16
8.74
8.60
8.65
8.71
8.63
8.30
7.65
6.73
5.63
4.44
3.27
2.16
1.11
0.05
-1.13
-2.49
-4.03
-5.72
-7.54
-9.50
-11.67
-14.04
-16.42
-18.39
-19.34
-18.72
-16.27
-12.18
-7.04
-1.65
3.23
7.11
9.83
11.46
12.20
12.20
11.58
10.41
8.80
6.95
5.13
3.66
2.78
2.59
2.97
3.70
4.44
4.91
4.96
4.59
3.92
3.09
2.17
1.15
-0.01
-1.34
-2.81
-4.38
-6.09
-8.06
-10.39
-13.05
-15.73
-17.89
-18.89
-18.25
-15.86
-12.01
-7.34
-2.54
1.83
5.43
8.16
10.03
11.09
11.43
11.10
10.22
8.97
7.58
6.32
5.37
4.80
4.54
4.43
4.32
4.17
4.02
3.96
3.93
3.76
3.21
2.09
0.43
-1.50
-3.38
-5.02
-6.52
-8.23
-10.50
-13.49
-16.95
-20.33
-22.92
-24.11
-23.62
-21.47
-17.94
-13.47
-8.49
-3.39
1.48
5.80
9.25
11.57
12.70
12.78
12.12
11.14
10.16
9.33
8.58
7.74
6.69
5.52
4.48
3.88
3.89
4.39
5.00
5.28
4.90
3.85
2.41
0.98
-0.13
-0.82
-1.32
-1.95
-3.05
-4.75
-6.95
-9.37
-11.65
-13.37
-14.21
-13.90
-12.34
-9.59
-5.86
-1.59
2.76
6.70
9.90
12.19
13.57
14.24
14.42
14.35
14.23
14.13
14.08
14.01
13.85
13.50
12.87
11.98
10.85
9.61
8.36
7.20
6.14
5.12
4.05
2.85
1.47
-0.09
-1.80
-3.68
-5.69
-7.85
-10.11
-12.45
-14.82
-17.14
-19.28
-21.00
-21.99
-21.92
-20.54
-17.79
-13.86
-9.06
-3.82
1.42
6.29
10.43
13.59
15.58
16.39
16.17
15.21
13.87
12.50
11.29
10.37
9.74
9.38
9.25
9.29
9.39
9.37
9.01
8.09
6.52
4.39
2.02
-0.23
-2.07
-3.40
-4.43
-5.52
-7.02
-9.12
-11.69
-14.36
-16.63
-17.99
-18.09
-16.73
-13.92
-9.90
-5.09
-0.02
4.74
8.70
11.50
13.04
13.35
12.62
11.14
9.25
7.29
5.63
4.51
4.02
4.12
4.57
5.14
5.59
5.75
5.56
4.98
4.02
2.67
1.00
-0.88
-2.80
-4.61
-6.23
-7.69
-9.13
-10.74
-12.62
-14.73
-16.85
-18.57
-19.42
-19.02
-17.15
-13.91
-9.61
-4.73
0.20
4.72
8.47
11.21
12.83
13.38
13.04
12.13
10.95
9.78
8.76
7.89
7.17
6.61
6.31
6.36
6.82
7.54
8.23
8.52
8.12
6.96
5.20
3.15
1.10
-0.79
-2.56
-4.36
-6.36
-8.58
-10.99
-13.52
-16.05
-18.50
-20.70
-22.34
-22.95
-22.09
-19.50
-15.31
-10.03
-4.40
0.83
5.17
8.42
10.65
12.05
12.79
12.99
12.70
11.98
10.93
9.69
8.47
7.49
6.95
6.94
7.39
8.08
8.69
8.85
8.36
7.19
5.53
3.68
1.87
0.23
-1.31
-2.88
-4.60
-6.49
-8.49
-10.54
-12.58
-14.56
-16.36
-17.69
-18.15
-17.30
-14.91
-11.07
-6.25
-1.14
3.54
7.28
9.87
11.37
12.04
12.19
12.03
11.60
10.85
9.75
8.32
6.76
5.32
4.22
3.59
3.37
3.45
3.73
4.13
4.66
5.21
5.57
5.45
4.63
3.10
1.14
-0.87
-2.63
-4.14
-5.66
-7.54
-9.92
-12.57
-14.88
-16.13
-15.76
-13.71
-10.33
-6.26
-2.10
1.72
5.06
7.83
9.99
11.27
11.45
10.45
8.49
6.14
4.11
2.95
2.86
3.56
4.47
5.02
4.98
4.46
3.83
3.41
3.24
3.05
2.44
1.15
-0.77
-3.00
-5.12
-6.87
-8.27
-9.60
-11.21
-13.31
-15.84
-18.49
-20.77
-22.16
-22.18
-20.58
-17.37
-12.85
-7.56
-2.12
2.88
7.04
10.13
12.09
12.98
12.90
12.04
10.66
9.09
7.65
6.59
6.03
5.94
6.19
6.58
6.96
7.18
7.14
6.77
6.08
5.12
3.99
2.80
1.58
0.29
-1.17
-2.84
-4.71
-6.70
-8.72
-10.74
-12.77
-14.79
-16.60
-17.86
-18.04
-16.77
-13.88
-9.65
-4.69
0.32
4.77
8.30
10.82
12.37
13.06
13.00
12.35
11.32
10.18
9.18
8.44
7.99
7.74
7.61
7.56
7.59
7.68
7.80
7.79
7.50
6.81
5.71
4.24
2.52
0.61
-1.43
-3.55
-5.71
-7.90
-10.09
-12.29
-14.50
-16.63
-18.45
-19.61
-19.69
-18.37
-15.60
-11.63
-6.96
-2.18
2.22
5.98
9.03
11.40
13.13
14.17
14.39
13.79
12.51
10.90
9.33
8.13
7.40
7.03
6.76
6.34
5.67
4.77
3.76
2.79
1.85
0.86
-0.33
-1.82
-3.57
-5.43
-7.30
-9.13
-11.04
-13.23
-15.78
-18.59
-21.24
-23.16
-23.83
-22.92
-20.44
-16.61
-11.87
-6.64
-1.38
3.50
7.58
10.57
12.33
12.95
12.68
11.87
10.88
9.89
8.99
8.12
7.21
6.29
5.47
4.86
4.53
4.31
3.89
2.96
1.35
-0.76
-2.94
-4.74
-5.89
-6.58
-7.28
-8.54
-10.67
-13.57
-16.80
-19.75
-21.95
-23.15
-23.24
-22.18
-19.95
-16.54
-12.05
-6.83
-1.41
3.55
7.53
10.22
11.68
12.20
12.18
11.94
11.69
11.47
11.21
10.91
10.64
10.51
10.64
11.04
11.60
12.08
12.26
11.98
11.22
10.04
8.54
6.82
4.94
2.97
0.95
-1.10
-3.24
-5.59
-8.20
-10.98
-13.59
-15.50
-16.15
-15.19
-12.62
-8.79
-4.27
0.32
4.55
8.17
11.05
13.13
14.38
14.76
14.31
13.15
11.53
9.77
8.20
7.04
6.40
6.26
6.45
6.75
6.97
6.97
6.76
6.41
5.95
5.35
4.48
3.25
1.68
-0.06
-1.70
-3.05
-4.14
-5.20
-6.55
-8.42
-10.72
-13.05
-14.84
-15.53
-14.80
-12.63
-9.32
-5.36
-1.24
2.59
5.84
8.31
9.91
10.62
10.46
9.52
8.01
6.24
4.56
3.27
2.51
2.25
2.34
2.60
2.92
3.24
3.51
3.70
3.68
3.33
2.59
1.51
0.26
-0.99
-2.13
-3.23
-4.51
-6.22
-8.52
-11.30
-14.21
-16.66
-18.10
-18.14
-16.70
-14.00
-10.47
-6.53
-2.53
1.23
4.48
6.92
8.26
8.37
7.37
5.67
3.86
2.46
1.72
1.63
1.87
2.15
2.24
2.13
1.91
1.68
1.44
1.10
0.47
-0.61
-2.14
-4.05
-6.15
-8.31
-10.50
-12.84
-15.47
-18.38
-21.31
-23.76
-25.04
-24.55
-22.06
-17.76
-12.24
-6.30
-0.68
4.11
7.86
10.61
12.50
13.64
14.05
13.71
12.64
11.04
9.27
7.78
6.89
6.72
7.12
7.81
8.42
8.73
8.64
8.15
7.34
6.26
4.95
3.37
1.53
-0.56
-2.85
-5.27
-7.78
-10.30
-12.72
-14.87
-16.45
-17.12
-16.52
-14.48
-11.12
-6.86
-2.31
1.92
5.41
7.99
9.70
10.67
10.99
10.67
9.75
8.30
6.52
4.72
3.17
2.09
1.56
1.48
1.67
1.94
2.11
2.12
1.96
1.69
1.31
0.78
-0.01
-1.19
-2.81
-4.80
-7.02
-9.36
-11.82
-14.47
-17.37
-20.28
-22.70
-23.93
-23.40
-20.92
-16.90
-12.15
-7.59
-3.86
-1.16
0.66
1.88
2.65
2.98
2.80
2.16
1.34
0.80
0.95
1.96
3.70
5.70
7.43
8.43
8.54
7.80
6.48
4.86
3.17
1.59
0.19
-0.98
-1.90
-2.54
-2.94
-3.26
-3.71
-4.50
-5.65
-6.92
-7.72
-7.45
-5.61
-2.14
2.54
7.74
12.79
17.29
21.13
24.31
26.75
28.17
28.25
26.89
24.40
21.42
18.74
16.82
15.75
15.11
14.39
13.21
11.53
9.60
7.79
6.30
5.14
4.16
3.17
2.11
1.04
0.06
-0.84
-1.88
-3.40
-5.80
-9.28
-13.76
-18.75
-23.50
-27.19
-29.11
-28.83
-26.28
-21.78
-15.93
-9.54
-3.46
1.62
5.33
7.70
9.05
9.81
10.32
10.71
10.94
10.97
10.86
10.80
11.07
11.80
12.92
14.16
15.15
15.58
15.34
14.46
13.07
11.34
9.40
7.38
5.40
3.56
1.88
0.31
-1.31
-3.26
-5.81
-9.15
-13.23
-17.67
-21.80
-24.77
-25.80
-24.46
-20.82
-15.46
-9.30
-3.24
2.04
6.25
9.39
11.57
12.85
13.19
12.58
11.14
9.18
7.19
5.59
4.63
4.26
4.28
4.42
4.48
4.37
4.14
3.81
3.32
2.59
1.47
-0.04
-1.87
-3.84
-5.75
-7.57
-9.39
-11.44
-13.90
-16.77
-19.77
-22.40
-24.01
-24.09
-22.36
-18.89
-14.10
-8.61
-3.09
1.88
5.92
8.88
10.84
11.95
12.40
12.38
12.05
11.58
11.18
10.97
11.03
11.30
11.65
11.93
12.02
11.85
11.38
10.60
9.44
7.86
5.87
3.55
1.07
-1.39
-3.72
-5.96
-8.26
-10.88
-14.02
-17.72
-21.80
-25.71
-28.73
-30.08
-29.20
-25.94
-20.64
-14.03
-6.98
-0.25
5.66
10.47
14.09
16.49
17.69
17.80
17.13
16.10
15.12
14.37
13.81
13.21
12.39
11.36
10.38
9.77
9.69
9.98
10.19
9.82
8.57
6.52
4.05
1.65
-0.38
-2.09
-3.82
-5.97
-8.79
-12.24
-15.99
-19.59
-22.59
-24.69
-25.64
-25.23
-23.23
-19.49
-14.09
-7.43
-0.19
6.73
12.54
16.72
19.12
19.96
19.65
18.66
17.36
16.00
14.71
13.59
12.73
12.19
12.00
12.10
12.34
12.56
12.61
12.41
11.95
11.19
10.09
8.62
6.78
4.68
2.42
0.16
-2.03
-4.21
-6.47
-8.95
-11.70
-14.64
-17.52
-19.99
-21.63
-21.98
-20.74
-17.78
-13.28
-7.66
-1.55
4.36
9.48
13.39
15.91
17.10
17.19
16.55
15.53
14.43
13.42
12.53
11.73
10.95
10.20
9.51
8.94
8.50
8.08
7.55
6.78
5.73
4.48
3.11
1.69
0.14
-1.64
-3.73
-6.06
-8.43
-10.63
-12.58
-14.41
-16.41
-18.85
-21.73
-24.66
-26.93
-27.77
-26.60
-23.33
-18.34
-12.40
-6.31
-0.70
4.08
8.02
11.20
13.70
15.48
16.39
16.37
15.48
14.01
12.38
11.00
10.07
9.53
9.13
8.56
7.64
6.37
4.93
3.55
2.42
1.56
0.86
0.11
-0.82
-2.01
-3.34
-4.70
-6.01
-7.38
-9.10
-11.46
-14.58
-18.18
-21.54
-23.74
-23.91
-21.64
-17.11
-11.03
-4.35
2.01
7.47
11.82
15.09
17.39
18.78
19.22
18.72
17.38
15.53
13.61
12.04
11.04
10.55
10.35
10.12
9.69
9.07
8.37
7.68
6.94
6.01
4.70
2.93
0.80
-1.45
-3.61
-5.59
-7.41
-9.28
-11.39
-13.89
-16.75
-19.77
-22.55
-24.59
-25.37
-24.50
-21.90
-17.76
-12.59
-6.98
-1.53
3.29
7.19
10.01
11.75
12.57
12.71
12.47
12.10
11.72
11.29
10.73
9.98
9.11
8.29
7.73
7.51
7.57
7.72
7.73
7.44
6.75
5.71
4.43
3.05
1.65
0.24
-1.29
-3.12
-5.43
-8.29
-11.62
-15.15
-18.45
-21.08
-22.64
-22.86
-21.54
-18.66
-14.36
-8.96
-3.01
2.83
7.87
11.66
14.02
15.08
15.13
14.52
13.47
12.07
10.41
8.65
7.06
5.87
5.28
5.21
5.39
5.45
5.14
4.39
3.34
2.23
1.26
0.43
-0.39
-1.41
-2.82
-4.73
-7.12
-9.87
-12.85
-15.89
-18.79
-21.32
-23.17
-23.98
-23.43
-21.29
-17.67
-12.92
-7.62
-2.45
2.11
5.81
8.61
10.59
11.73
11.94
11.18
9.57
7.52
5.63
4.42
4.10
4.46
5.04
5.35
5.19
4.67
4.11
3.74
3.55
3.21
2.33
0.71
-1.51
-3.87
-5.85
-7.23
-8.11
-9.00
-10.41
-12.53
-15.03
-17.14
-17.93
-16.81
-13.71
-9.18
-4.08
0.75
4.78
7.85
10.05
11.51
12.29
12.32
11.53
9.94
7.80
5.51
3.55
2.30
1.90
2.20
2.81
3.29
3.26
2.60
1.44
0.08
-1.18
-2.12
-2.73
-3.16
-3.65
-4.51
-5.98
-8.22
-11.19
-14.63
-18.07
-20.87
-22.48
-22.51
-20.89
-17.86
-13.82
-9.23
-4.51
-0.03
3.92
7.05
9.13
10.05
9.86
8.80
7.21
5.47
3.91
2.72
2.02
1.80
1.95
2.33
2.71
2.88
2.72
2.17
1.31
0.26
-0.87
-2.05
-3.32
-4.80
-6.63
-8.94
-11.76
-14.95
-18.18
-20.88
-22.38
-22.14
-19.93
-16.00
-10.96
-5.58
-0.51
3.89
7.53
10.42
12.55
13.81
14.09
13.39
11.90
10.01
8.10
6.45
5.18
4.25
3.61
3.13
2.77
2.40
1.91
1.19
0.20
-1.04
-2.40
-3.76
-5.07
-6.39
-7.90
-9.83
-12.38
-15.52
-18.94
-22.02
-23.97
-24.09
-22.01
-17.92
-12.49
-6.68
-1.39
2.85
5.96
8.18
9.79
10.95
11.57
11.50
10.75
9.61
8.58
8.11
8.42
9.26
10.10
10.36
9.72
8.31
6.52
4.79
3.35
2.12
0.82
-0.78
-2.71
-4.81
-6.92
-9.09
-11.49
-14.30
-17.40
-20.17
-21.71
-21.16
-18.19
-13.21
-7.20
-1.30
3.67
7.51
10.43
12.81
14.84
16.28
16.77
16.07
14.34
12.19
10.42
9.57
9.75
10.48
11.06
10.94
10.01
8.57
7.16
6.16
5.62
5.14
4.25
2.58
0.12
-2.81
-5.78
-8.49
-10.91
-13.27
-15.80
-18.54
-21.15
-22.94
-23.21
-21.42
-17.49
-11.88
-5.40
1.09
6.90
11.62
15.13
17.41
18.53
18.52
17.50
15.68
13.43
11.22
9.47
8.50
8.34
8.79
9.43
9.81
9.57
8.60
7.00
5.03
3.04
1.24
-0.26
-1.58
-2.97
-4.75
-7.21
-10.49
-14.46
-18.69
-22.52
-25.20
-26.12
-24.93
-21.66
-16.69
-10.65
-4.26
1.81
7.00
10.96
13.58
14.93
15.23
14.74
13.73
12.42
11.02
9.77
8.91
8.63
9.00
9.90
11.07
12.16
12.86
12.97
12.47
11.39
9.80
7.81
5.50
2.99
0.39
-2.22
-4.84
-7.58
-10.62
-14.08
-17.90
-21.74
-25.02
-27.08
-27.30
-25.40
-21.49
-16.06
-9.83
-3.53
2.20
6.88
10.23
12.15
12.71
12.18
10.98
9.58
8.42
7.71
7.50
7.66
8.02
8.43
8.83
9.16
9.37
9.30
8.75
7.63
5.97
3.98
1.97
0.19
-1.23
-2.41
-3.59
-5.01
-6.83
-9.07
-11.59
-14.23
-16.72
-18.81
-20.09
-20.14
-18.56
-15.16
-10.17
-4.17
1.97
7.45
11.71
14.60
16.30
17.15
17.43
17.26
16.72
15.86
14.89
14.07
13.68
13.83
14.40
15.09
15.55
15.51
14.88
13.81
12.51
11.15
9.80
8.36
6.69
4.70
2.41
-0.01
-2.34
-4.44
-6.34
-8.28
-10.60
-13.61
-17.33
-21.48
-25.48
-28.59
-30.13
-29.64
-27.08
-22.75
-17.25
-11.29
-5.48
-0.23
4.25
7.87
10.60
12.37
13.14
12.97
12.14
11.10
10.34
10.19
10.67
11.58
12.58
13.37
13.84
14.04
14.10
14.05
13.83
13.24
12.08
10.28
7.91
5.27
2.69
0.47
-1.33
-2.85
-4.44
-6.41
-8.97
-12.10
-15.56
-19.01
-22.06
-24.33
-25.45
-25.06
-22.92
-19.01
-13.66
-7.47
-1.25
4.28
8.66
11.74
13.67
14.74
15.18
15.13
14.66
13.85
12.85
11.93
11.37
11.29
11.63
12.15
12.50
12.39
11.74
10.63
9.24
7.63
5.76
3.49
0.81
-2.13
-4.86
-6.98
-8.22
-8.83
-9.34
-10.48
-12.75
-16.21
-20.36
-24.43
-27.64
-29.41
-29.50
-27.91
-24.79
-20.30
-14.67
-8.30
-1.69
4.46
9.50
13.04
15.09
15.99
16.34
16.64
17.13
17.69
18.05
17.97
17.53
17.05
16.94
17.46
18.52
19.65
20.28
20.01
18.81
16.93
14.82
12.75
10.81
8.82
6.57
3.98
1.16
-1.59
-4.00
-5.94
-7.49
-8.97
-10.77
-13.24
-16.49
-20.32
-24.21
-27.43
-29.22
-29.02
-26.65
-22.31
-16.56
-10.14
-3.75
2.06
6.97
10.89
13.88
16.03
17.41
18.04
17.98
17.37
16.48
15.65
15.18
15.18
15.53
15.91
15.96
15.43
14.29
12.74
11.10
9.68
8.61
7.85
7.18
6.37
5.22
3.67
1.81
-0.21
-2.24
-4.18
-6.06
-7.99
-10.08
-12.36
-14.86
-17.53
-20.33
-23.21
-26.05
-28.59
-30.39
-30.91
-29.63
-26.34
-21.18
-14.77
-7.96
-1.58
3.73
7.74
10.52
12.30
13.30
13.66
13.42
12.69
11.73
10.86
10.41
10.53
11.11
11.93
12.68
13.24
13.66
14.05
14.49
14.90
15.04
14.68
13.66
12.02
10.00
7.89
5.97
4.35
3.00
1.72
0.29
-1.48
-3.64
-6.15
-8.90
-11.81
-14.85
-17.91
-20.74
-22.88
-23.74
-22.81
-19.86
-15.17
-9.44
-3.52
1.83
6.21
9.55
12.03
13.82
14.98
15.38
14.92
13.64
11.86
10.07
8.70
8.01
7.90
8.10
8.31
8.37
8.30
8.19
8.07
7.85
7.39
6.54
5.32
3.82
2.25
0.77
-0.61
-1.93
-3.31
-4.85
-6.58
-8.47
-10.48
-12.59
-14.93
-17.62
-20.66
-23.83
-26.54
-28.10
-27.85
-25.52
-21.37
-16.05
-10.35
-4.88
0.04
4.41
8.24
11.48
13.83
14.98
14.79
13.50
11.70
10.09
9.25
9.37
10.13
10.99
11.43
11.19
10.41
9.48
8.75
8.39
8.27
8.05
7.40
6.15
4.35
2.20
-0.03
-2.12
-3.99
-5.71
-7.43
-9.33
-11.55
-14.12
-16.95
-19.79
-22.36
-24.39
-25.62
-25.86
-24.98
-22.85
-19.44
-14.85
-9.39
-3.59
1.87
6.37
9.48
11.09
11.40
10.81
9.80
8.73
7.83
7.19
6.81
6.63
6.61
6.69
6.85
7.05
7.26
7.35
7.22
6.74
5.83
4.52
2.88
1.03
-0.98
-3.09
-5.27
-7.47
-9.56
-11.44
-13.09
-14.61
-16.18
-17.91
-19.65
-20.95
-21.18
-19.75
-16.41
-11.36
-5.27
0.98
6.50
10.63
13.07
13.93
13.60
12.58
11.34
10.17
9.18
8.35
7.66
7.15
6.97
7.23
7.87
8.70
9.41
9.70
9.40
8.58
7.43
6.11
4.72
3.17
1.33
-0.93
-3.58
-6.41
-9.17
-11.70
-14.01
-16.31
-18.84
-21.59
-24.24
-26.15
-26.62
-25.14
-21.68
-16.68
-10.85
-4.97
0.37
4.83
8.26
10.65
11.99
12.34
11.83
10.72
9.33
7.99
7.00
6.49
6.43
6.64
6.89
6.98
6.88
6.69
6.59
6.66
6.79
6.68
5.98
4.50
2.32
-0.16
-2.51
-4.44
-5.93
-7.31
-8.96
-11.19
-14.00
-17.17
-20.25
-22.76
-24.30
-24.55
-23.38
-20.77
-16.85
-11.91
-6.40
-0.86
4.16
8.24
11.11
12.72
13.23
12.89
11.98
10.73
9.33
7.99
6.91
6.26
6.16
6.58
7.29
8.00
8.43
8.41
7.92
7.06
5.95
4.69
3.32
1.84
0.23
-1.50
-3.32
-5.23
-7.22
-9.31
-11.53
-13.89
-16.36
-18.70
-20.56
-21.41
-20.79
-18.38
-14.24
-8.83
-2.87
2.82
7.56
11.03
13.19
14.24
14.45
13.99
12.95
11.40
9.51
7.59
6.02
5.12
5.02
5.57
6.45
7.24
7.62
7.48
6.89
6.06
5.13
4.16
3.06
1.68
-0.14
-2.40
-4.99
-7.72
-10.47
-13.22
-16.06
-19.04
-21.95
-24.30
-25.37
-24.58
-21.67
-16.92
-11.04
-4.89
0.80
5.65
9.55
12.54
14.57
15.57
15.48
14.42
12.77
11.06
9.79
9.22
9.28
9.72
10.24
10.60
10.73
10.66
10.44
9.95
9.10
7.77
5.93
3.72
1.40
-0.82
-2.83
-4.82
-7.11
-10.03
-13.71
-17.95
-22.23
-25.86
-28.22
-28.95
-28.01
-25.55
-21.79
-16.97
-11.32
-5.18
0.96
6.46
10.69
13.28
14.25
13.96
13.00
11.89
10.99
10.39
10.00
9.71
9.51
9.40
9.43
9.62
9.91
10.13
10.08
9.56
8.46
6.77
4.65
2.34
0.10
-1.89
-3.64
-5.33
-7.21
-9.52
-12.37
-15.70
-19.29
-22.77
-25.63
-27.37
-27.53
-25.79
-22.14
-16.87
-10.59
-4.05
1.99
6.96
10.54
12.71
13.62
13.56
12.86
11.88
10.91
10.21
9.95
10.15
10.75
11.56
12.41
13.17
13.75
14.11
14.20
13.93
13.29
12.27
10.99
9.58
8.15
6.68
5.06
3.11
0.72
-2.15
-5.43
-8.95
-12.57
-16.08
-19.27
-21.82
-23.34
-23.41
-21.76
-18.34
-13.42
-7.56
-1.49
4.08
8.62
11.83
13.70
14.40
14.15
13.25
11.95
10.52
9.22
8.30
7.91
8.08
8.65
9.37
9.94
10.10
9.76
8.91
7.69
6.25
4.72
3.17
1.62
0.02
-1.69
-3.52
-5.48
-7.57
-9.78
-12.20
-14.97
-18.14
-21.58
-24.87
-27.30
-28.13
-26.82
-23.30
-17.99
-11.67
-5.16
0.84
5.95
9.99
12.87
14.62
15.30
15.13
14.45
13.67
13.12
12.98
13.18
13.56
13.90
14.07
14.03
13.79
13.42
12.93
12.27
11.35
10.06
8.30
6.08
3.54
0.92
-1.57
-3.78
-5.73
-7.62
-9.72
-12.27
-15.37
-18.94
-22.80
-26.58
-29.76
-31.69
-31.71
-29.28
-24.29
-17.17
-8.87
-0.57
6.62
12.09
15.70
17.76
18.69
18.84
18.35
17.31
15.88
14.34
13.08
12.42
12.48
13.16
14.14
15.05
15.62
15.72
15.33
14.53
13.34
11.78
9.77
7.26
4.31
1.09
-2.12
-5.07
-7.64
-9.83
-11.88
-14.05
-16.51
-19.18
-21.68
-23.41
-23.77
-22.27
-18.86
-13.85
-7.85
-1.64
4.13
8.99
12.70
15.19
16.52
16.85
16.46
15.70
14.95
14.47
14.40
14.66
15.06
15.40
15.53
15.37
14.93
14.26
13.36
12.27
11.01
9.58
7.97
6.10
3.94
1.51
-1.09
-3.64
-5.96
-8.03
-10.01
-12.24
-15.05
-18.62
-22.73
-26.88
-30.32
-32.30
-32.31
-30.18
-26.15
-20.73
-14.56
-8.28
-2.40
2.75
6.97
10.16
12.26
13.32
13.44
12.87
11.90
10.88
10.02
9.46
9.23
9.32
9.75
10.53
11.60
12.73
13.57
13.71
12.87
11.01
8.34
5.29
2.26
-0.45
-2.78
-4.82
-6.79
-8.87
-11.26
-13.98
-17.02
-20.20
-23.24
-25.67
-26.94
-26.52
-24.04
-19.53
-13.41
-6.45
0.44
6.46
11.11
14.20
15.83
16.25
15.81
14.83
13.62
12.46
11.55
11.03
10.92
11.10
11.39
11.55
11.43
10.95
10.23
9.42
8.69
8.12
7.66
7.14
6.29
4.90
2.87
0.31
-2.54
-5.42
-8.15
-10.81
-13.66
-16.98
-20.79
-24.74
-28.05
-29.81
-29.31
-26.29
-21.07
-14.35
-7.03
0.07
6.34
11.41
15.07
17.27
18.06
17.60
16.22
14.37
12.56
11.27
10.83
11.26
12.35
13.69
14.91
15.74
16.11
16.10
15.81
15.24
14.33
12.95
11.00
8.49
5.54
2.41
-0.58
-3.16
-5.18
-6.72
-8.05
-9.60
-11.75
-14.70
-18.33
-22.17
-25.56
-27.77
-28.26
-26.74
-23.27
-18.22
-12.14
-5.68
0.56
6.08
10.56
13.87
16.04
17.23
17.64
17.48
16.92
16.18
15.49
15.14
15.27
15.92
16.90
17.85
18.44
18.42
17.76
16.63
15.25
13.86
12.55
11.33
10.08
8.68
7.01
5.05
2.89
0.66
-1.48
-3.49
-5.47
-7.62
-10.16
-13.22
-16.73
-20.51
-24.24
-27.52
-29.93
-31.06
-30.55
-28.22
-24.11
-18.58
-12.17
-5.59
0.52
5.65
9.51
12.03
13.32
13.63
13.28
12.60
11.89
11.35
11.07
11.02
11.10
11.18
11.16
11.02
10.84
10.61
10.31
9.79
8.88
7.45
5.55
3.33
1.04
-1.17
-3.24
-5.25
-7.31
-9.47
-11.73
-14.09
-16.56
-19.23
-22.12
-25.06
-27.60
-29.09
-28.87
-26.50
-22.00
-15.86
-8.90
-1.98
4.19
9.22
13.02
15.65
17.24
17.88
17.65
16.69
15.29
13.84
12.76
12.27
12.29
12.51
12.51
12.02
11.02
9.76
8.55
7.54
6.68
5.73
4.42
2.72
0.77
-1.13
-2.72
-3.92
-4.82
-5.64
-6.62
-7.99
-9.94
-12.57
-15.83
-19.48
-23.05
-25.92
-27.46
-27.21
-24.97
-20.85
-15.24
-8.73
-2.02
4.20
9.33
13.01
15.15
15.90
15.57
14.55
13.22
11.92
10.90
10.36
10.33
10.71
11.30
11.85
12.21
12.29
12.08
11.54
10.62
9.24
7.33
4.93
2.20
-0.64
-3.36
-5.78
-7.85
-9.61
-11.15
-12.66
-14.29
-16.21
-18.46
-20.92
-23.19
-24.73
-24.92
-23.32
-19.81
-14.70
-8.64
-2.42
3.21
7.75
11.01
13.03
13.99
14.14
13.71
12.88
11.83
10.70
9.66
8.81
8.26
8.05
8.17
8.51
8.96
9.37
9.60
9.54
9.09
8.20
6.84
5.08
3.03
0.89
-1.15
-2.97
-4.61
-6.24
-8.13
-10.51
-13.39
-16.54
-19.43
-21.43
-21.95
-20.65
-17.53
-12.96
-7.52
-1.87
3.42
7.88
11.23
13.29
14.07
13.70
12.53
10.93
9.27
7.79
6.58
5.67
5.07
4.82
4.95
5.33
5.73
5.85
5.51
4.73
3.74
2.85
2.22
1.76
1.17
0.14
-1.59
-3.99
-6.89
-10.02
-13.15
-16.12
-18.70
-20.58
-21.25
-20.22
-17.17
-12.28
-6.21
-0.06
5.07
8.50
10.10
10.30
9.76
8.94
8.00
6.80
5.15
3.13
1.17
-0.16
-0.44
0.36
1.85
3.34
4.23
4.24
3.45
2.20
0.82
-0.52
-1.88
-3.42
-5.32
-7.66
-10.38
-13.41
-16.62
-19.84
-22.76
-24.88
-25.65
-24.56
-21.44
-16.55
-10.51
-4.18
1.71
6.66
10.44
13.04
14.49
14.86
14.26
12.90
11.14
9.41
8.08
7.34
7.15
7.36
7.72
8.07
8.31
8.36
8.12
7.51
6.45
4.94
3.07
0.98
-1.19
-3.39
-5.75
-8.52
-11.93
-16.10
-20.76
-25.30
-28.83
-30.46
-29.63
-26.36
-21.21
-15.05
-8.79
-3.08
1.78
5.74
8.82
11.00
12.17
12.30
11.53
10.23
8.92
8.09
7.99
8.53
9.35
10.04
10.29
10.08
9.60
9.12
8.76
8.41
7.83
6.76
5.12
3.02
0.70
-1.68
-4.16
-6.91
-10.10
-13.65
-17.12
-19.74
-20.74
-19.56
-16.20
-11.18
-5.36
0.33
5.19
8.83
11.22
12.52
12.88
12.42
11.21
9.43
7.33
5.27
3.62
2.63
2.35
2.64
3.19
3.69
3.94
3.87
3.58
3.14
2.61
1.93
0.97
-0.40
-2.22
-4.48
-7.09
-9.94
-12.97
-16.11
-19.19
-21.92
-23.85
-24.48
-23.39
-20.43
-15.83
-10.21
-4.36
0.96
5.23
8.27
10.21
11.33
11.83
11.83
11.30
10.26
8.85
7.39
6.30
5.89
6.26
7.13
8.04
8.48
8.12
6.96
5.27
3.39
1.57
-0.14
-1.88
-3.80
-6.02
-8.57
-11.37
-14.34
-17.35
-20.16
-22.45
-23.74
-23.58
-21.70
-18.10
-13.13
-7.38
-1.56
3.70
7.96
10.99
12.76
13.40
13.12
12.20
10.94
9.63
8.54
7.84
7.59
7.73
8.11
8.51
8.67
8.42
7.65
6.39
4.81
3.13
1.50
-0.06
-1.70
-3.69
-6.25
-9.44
-13.14
-17.05
-20.87
-24.25
-26.82
-28.19
-27.91
-25.67
-21.44
-15.62
-8.98
-2.48
3.08
7.27
10.11
11.88
12.91
13.37
13.23
12.51
11.35
10.13
9.28
9.14
9.71
10.72
11.74
12.41
12.58
12.29
11.62
10.64
9.33
7.64
5.62
3.41
1.14
-1.05
-3.17
-5.38
-7.87
-10.89
-14.49
-18.45
-22.22
-24.98
-25.82
-24.13
-19.83
-13.49
-6.16
1.02
7.19
11.97
15.45
17.86
19.42
20.12
19.88
18.77
17.07
15.33
14.10
13.72
14.18
15.06
15.85
16.14
15.85
15.13
14.30
13.54
12.82
11.88
10.43
8.27
5.48
2.38
-0.62
-3.21
-5.30
-7.14
-9.13
-11.65
-14.77
-18.17
-21.14
-22.87
-22.65
-20.26
-15.93
-10.30
-4.18
1.68
6.75
10.73
13.50
15.02
15.37
14.67
13.18
11.23
9.23
7.54
6.47
6.12
6.40
7.07
7.79
8.27
8.35
8.02
7.36
6.49
5.44
4.16
2.55
0.55
-1.83
-4.48
-7.23
-9.96
-12.66
-15.47
-18.58
-22.05
-25.67
-28.88
-30.82
-30.72
-28.04
-22.88
-15.88
-8.06
-0.48
6.03
11.09
14.66
16.91
18.03
18.20
17.54
16.26
14.67
13.11
11.88
11.17
10.92
10.95
11.02
10.92
10.56
9.95
9.15
8.19
7.03
5.56
3.69
1.36
-1.34
-4.19
-6.97
-9.50
-11.78
-14.04
-16.54
-19.49
-22.75
-25.82
-27.91
-28.25
-26.37
-22.33
-16.65
-10.16
-3.70
2.16
7.10
11.00
13.88
15.71
16.55
16.49
15.79
14.81
13.92
13.38
13.26
13.47
13.82
14.12
14.28
14.34
14.37
14.38
14.28
13.82
12.75
10.94
8.46
5.61
2.74
0.13
-2.16
-4.25
-6.36
-8.73
-11.50
-14.66
-18.07
-21.50
-24.59
-26.90
-27.92
-27.22
-24.57
-20.04
-14.10
-7.46
-0.93
4.82
9.40
12.75
14.98
16.31
16.87
16.70
15.84
14.46
12.88
11.56
10.85
10.87
11.44
12.15
12.62
12.64
12.27
11.65
10.93
10.09
8.89
7.07
4.49
1.25
-2.32
-5.77
-8.75
-11.11
-13.03
-14.91
-17.18
-20.08
-23.51
-26.99
-29.83
-31.30
-30.96
-28.73
-24.88
-19.89
-14.23
-8.29
-2.37
3.23
8.11
11.85
14.08
14.72
14.04
12.55
10.82
9.34
8.30
7.63
7.17
6.74
6.32
5.97
5.80
5.84
5.98
6.03
5.76
4.99
3.62
1.74
-0.52
-2.93
-5.33
-7.67
-10.02
-12.57
-15.49
-18.86
-22.51
-25.96
-28.54
-29.52
-28.37
-24.92
-19.41
-12.36
-4.39
3.95
12.20
19.98
26.93
32.65
36.77
39.12
39.91
39.70
39.28
39.34
40.24
41.82
43.56
44.81
45.02
43.98
41.78
38.82
35.67
32.98
31.42
31.44
33.13
36.11
39.47
42.16
43.33
42.63
40.35
37.01
33.04
28.44
22.82
15.68
6.89
-3.17
-13.54
-23.10
-30.86
-36.30
-39.29
-40.03
-38.89
-36.34
-32.93
-29.28
-25.91
-23.12
-20.93
-19.13
-17.46
-15.81
-14.24
-12.98
-12.15
-11.70
-11.37
-10.87
-10.08
-9.16
-8.49
-8.47
-9.28
-10.77
-12.54
-14.17
-15.46
-16.52
-17.74
-19.50
-21.99
-25.16
-28.62
-31.92
-34.64
-36.40
-36.88
-35.71
-32.54
-27.13
-19.56
-10.39
-0.56
8.83
16.91
23.27
28.12
32.10
35.92
39.96
43.99
47.25
48.68
47.48
43.48
37.45
30.87
25.54
22.97
23.85
27.89
33.99
40.57
45.94
48.57
47.27
41.36
30.92
16.97
1.42
-13.32
-25.01
-32.43
-35.68
-36.09
-35.50
-35.36
-36.20
-37.54
-38.42
-37.94
-35.79
-32.24
-27.84
-23.12
-18.40
-13.80
-9.47
-5.70
-2.85
-1.26
-0.98
-1.83
-3.43
-5.39
-7.46
-9.50
-11.45
-13.30
-15.03
-16.59
-18.00
-19.29
-20.46
-21.49
-22.32
-22.95
-23.42
-23.77
-24.05
-24.23
-24.18
-23.83
-23.21
-22.51
-21.95
-21.63
-21.46
-20.98
-19.61
-16.89
-12.65
-7.15
-0.95
5.29
11.04
16.03
20.22
23.72
26.65
29.01
30.69
31.56
31.57
30.88
29.75
28.52
27.38
26.24
24.78
22.57
19.34
15.10
10.21
5.22
0.65
-3.20
-6.35
-9.08
-11.74
-14.61
-17.88
-21.56
-25.66
-30.15
-34.96
-39.79
-44.12
-47.23
-48.42
-47.22
-43.60
-38.01
-31.18
-23.95
-17.03
-10.94
-6.03
-2.51
-0.41
0.39
0.22
-0.48
-1.32
-2.07
-2.73
-3.39
-4.05
-4.57
-4.70
-4.22
-3.15
-1.80
-0.77
-0.65
-1.77
-4.07
-7.16
-10.42
-13.36
-15.73
-17.66
-19.50
-21.57
-24.10
-27.00
-29.93
-32.33
-33.56
-33.14
-30.71
-26.23
-19.87
-11.95
-2.94
6.61
15.97
24.30
30.84
35.25
37.87
39.62
41.58
44.31
47.52
50.13
50.96
49.41
45.82
41.26
36.86
33.24
30.31
27.50
24.23
20.35
16.11
11.92
8.12
4.81
1.91
-0.78
-3.51
-6.52
-10.09
-14.45
-19.69
-25.62
-31.73
-37.25
-41.29
-43.15
-42.44
-39.29
-34.27
-28.22
-22.02
-16.31
-11.35
-7.16
-3.51
-0.21
2.83
5.56
7.83
9.47
10.41
10.69
10.54
10.32
10.47
11.41
13.42
16.56
20.56
24.84
28.59
31.01
31.52
29.94
26.52
21.75
16.04
9.53
2.01
-6.87
-17.31
-29.09
-41.44
-53.07
-62.49
-68.36
-69.81
-66.70
-59.67
-49.95
-39.03
-28.22
-18.38
-9.86
-2.63
3.42
8.33
12.09
14.78
16.70
18.27
19.87
21.61
23.27
24.49
25.00
24.81
24.22
23.64
23.34
23.35
23.46
23.37
22.79
21.56
19.72
17.44
15.10
13.14
11.89
11.47
11.60
11.72
11.22
9.76
7.42
4.78
2.72
2.14
3.62
7.27
12.62
18.77
24.63
29.17
31.80
32.48
31.70
30.16
28.48
26.99
25.63
24.24
22.59
20.62
18.40
15.99
13.47
10.86
8.26
5.86
3.83
2.30
1.16
0.18
-0.97
-2.50
-4.48
-6.83
-9.47
-12.33
-15.42
-18.69
-22.07
-25.41
-28.47
-31.01
-32.71
-33.25
-32.28
-29.54
-25.13
-19.38
-12.99
-6.68
-1.08
3.50
6.99
9.47
10.98
11.52
11.08
9.82
8.09
6.39
5.13
4.49
4.32
4.27
4.03
3.50
2.81
2.23
1.87
1.67
1.27
0.29
-1.48
-3.95
-6.75
-9.49
-11.90
-13.98
-15.98
-18.18
-20.74
-23.52
-26.15
-28.08
-28.87
-28.15
-25.79
-21.87
-16.68
-10.67
-4.43
1.42
6.36
10.07
12.46
13.63
13.80
13.19
12.01
10.49
8.90
7.55
6.74
6.66
7.25
8.25
9.28
9.99
10.18
9.86
9.15
8.18
7.00
5.58
3.84
1.76
-0.61
-3.13
-5.72
-8.37
-11.15
-14.19
-17.48
-20.82
-23.73
-25.58
-25.76
-23.75
-19.34
-12.68
-4.37
4.59
13.02
19.83
24.29
26.28
26.29
25.16
23.80
22.77
22.23
21.94
21.49
20.65
19.47
18.38
18.08
19.25
22.34
27.35
33.66
40.13
45.31
47.90
47.19
43.40
37.80
32.33
28.89
28.51
30.67
33.19
32.83
26.44
12.30
-9.00
-34.37
-59.11
-78.38
-88.82
-89.66
-82.82
-72.10
-61.76
-55.21
-54.14
-58.39
-66.46
-76.08
-85.00
-91.34
-93.98
-92.63
-87.75
-80.45
-72.17
-64.44
-58.64
-55.86
-56.64
-60.83
-67.42
-74.54
-80.01
-82.04
-79.81
-73.37
-62.99
-48.35
-28.43
-2.30
29.60
64.70
98.76
127.38
147.76
159.32
163.06
160.10
150.73
134.65
112.24
85.91
60.05
39.56
27.57
24.07
26.14
29.66
31.34
29.80
25.30
18.69
10.26
-0.37
-13.46
-27.95
-40.97
-48.21
-45.30
-29.35
-0.03
40.19
86.55
132.83
172.47
199.77
211.40
207.43
191.55
169.94
149.02
133.07
122.77
115.69
108.18
97.54
83.23
66.49
49.08
32.11
15.86
0.52
-13.03
-23.25
-28.78
-29.61
-27.66
-26.17
-28.42
-36.35
-49.88
-67.06
-84.89
-100.07
-109.70
-111.85
-106.06
-93.82
-78.52
-64.70
-56.66
-56.95
-65.56
-80.02
-96.31
-110.13
-118.20
-119.16
-113.96
-105.55
-97.70
-93.43
-93.39
-95.20
-94.08
-84.94
-64.64
-33.62
4.14
42.83
77.02
103.46
121.53
132.58
138.65
141.71
143.25
144.47
146.41
150.08
155.96
163.47
170.62
174.08
170.11
156.01
131.40
99.07
64.67
35.13
16.35
10.91
16.64
27.08
33.39
27.57
5.41
-31.92
-78.27
-124.78
-163.05
-187.84
-198.31
-197.29
-189.46
-178.98
-168.23
-157.61
-146.36
-133.61
-119.21
-103.71
-88.15
-73.37
-59.68
-46.85
-34.34
-21.60
-8.44
4.74
16.84
26.44
32.31
34.02
32.26
28.63
24.98
22.61
21.75
21.69
21.27
19.52
15.98
10.74
4.20
-3.11
-10.77
-18.38
-25.84
-33.67
-43.24
-56.79
-77.03
-106.54
-146.83
-197.25
-254.11
-310.61
-357.87
-387.02
-391.96
-371.39
-329.63
-275.14
-217.69
-165.27
-122.08
-88.25
-61.13
-36.89
-11.70
17.71
53.96
98.60
151.48
209.88
268.23
318.85
353.52
366.00
354.12
320.80
273.31
221.10
172.94
134.54
107.62
90.64
80.65
75.30
74.07
78.31
90.21
111.16
140.40
174.47
207.66
233.64
247.43
247.11
234.16
212.28
185.33
155.35
121.97
83.59
39.32
-9.57
-59.91
-108.07
-151.65
-189.95
-223.09
-250.61
-270.83
-281.45
-280.91
-269.58
-249.81
-224.89
-197.58
-169.39
-140.74
-112.03
-84.55
-60.63
-42.68
-31.87
-27.19
-25.70
-23.57
-17.72
-7.07
7.31
22.90
36.92
47.30
52.95
53.53
48.66
37.87
21.00
-1.02
-25.72
-49.34
-68.18
-80.08
-85.59
-87.68
-90.02
-94.70
-100.39
-102.16
-93.21
-67.68
-22.78
40.48
118.25
205.25
295.51
382.01
456.24
509.13
533.50
527.11
494.24
444.45
388.72
334.90
285.20
236.54
183.62
122.51
53.17
-20.31
-91.19
-152.29
-197.96
-225.22
-234.29
-228.30
-212.29
-191.78
-171.24
-153.12
-137.82
-124.64
-112.68
-101.45
-90.74
-80.37
-69.73
-58.06
-44.81
-29.81
-13.05
5.52
26.13
48.59
71.77
93.29
110.01
119.24
119.98
113.38
102.24
89.82
78.75
70.52
65.65
64.07
65.34
68.47
71.90
73.42
70.80
62.48
48.08
28.43
5.17
-19.83
-44.88
-68.84
-90.84
-110.19
-126.20
-138.11
-145.32
-147.54
-145.08
-138.98
-130.80
-122.26
-114.72
-108.90
-104.81
-101.98
-99.85
-98.18
-97.06
-96.67
-97.06
-97.90
-98.61
-98.76
-98.29
-97.71
-97.91
-99.54
-102.61
-106.23
-108.89
-109.13
-106.12
-99.96
-91.55
-82.25
-73.40
-66.11
-61.08
-58.46
-57.82
-58.15
-58.22
-56.95
-53.94
-49.57
-44.79
-40.52
-36.99
-33.72
-29.76
-24.40
-17.65
-10.45
-4.18
-0.03
1.67
1.66
1.36
2.17
4.60
7.98
10.68
11.08
8.41
3.34
-2.04
-4.79
-1.86
9.16
29.53
58.71
94.04
130.65
162.38
183.53
190.91
185.15
170.31
152.08
135.20
121.55
109.96
97.44
81.24
60.33
35.72
9.71
-15.26
-37.36
-55.34
-68.29
-75.35
-75.86
-69.85
-58.32
-43.30
-27.41
-13.16
-2.34
4.37
7.44
8.11
7.80
7.46
7.10
5.70
1.46
-7.51
-22.27
-42.45
-66.11
-90.22
-111.66
-128.20
-138.99
-144.56
-146.09
-144.72
-141.14
-135.61
-128.40
-120.06
-111.43
-103.30
-96.04
-89.46
-83.00
-76.06
-68.17
-59.06
-48.45
-36.02
-21.29
-3.96
15.91
37.63
59.89
80.94
98.96
112.47
120.81
124.22
123.75
120.87
116.88
112.51
107.81
102.42
96.02
88.62
80.63
72.57
64.74
57.08
49.34
41.46
33.93
27.83
24.48
24.77
28.57
34.62
40.91
45.40
46.90
45.28
41.39
36.36
30.82
24.40
15.81
3.44
-13.72
-35.40
-59.89
-84.53
-106.57
-123.98
-135.77
-141.88
-142.71
-138.67
-130.01
-116.93
-99.75
-79.06
-55.66
-30.30
-3.76
23.03
48.65
70.92
87.12
94.61
91.64
78.11
55.76
27.73
-2.37
-31.31
-56.80
-77.47
-92.48
-101.34
-103.93
-100.79
-93.21
-83.22
-72.95
-63.99
-56.96
-51.51
-46.77
-41.98
-36.96
-32.25
-28.96
-28.44
-31.85
-39.74
-51.75
-66.42
-81.57
-94.76
-104.04
-108.42
-108.00
-103.57
-96.17
-86.62
-75.58
-63.59
-51.22
-39.06
-27.50
-16.61
-6.30
3.37
12.00
18.96
23.69
26.26
27.58
29.13
32.46
38.57
47.67
59.17
72.08
85.15
97.15
106.79
112.89
114.58
111.67
104.73
95.16
84.75
75.10
67.22
61.35
57.07
53.67
50.34
46.54
42.04
36.94
31.60
26.60
22.39
19.20
16.84
14.86
12.81
10.54
8.37
6.90
6.57
7.22
7.82
6.85
2.80
-5.10
-16.47
-29.89
-43.29
-54.56
-62.18
-65.36
-64.09
-58.85
-50.42
-39.72
-27.76
-15.60
-4.33
5.14
12.34
17.31
20.56
22.88
25.03
27.55
30.61
34.17
38.06
42.18
46.50
51.07
55.93
61.04
66.18
71.09
75.37
78.54
80.07
79.49
76.48
71.11
63.78
55.18
46.06
37.07
28.57
20.57
12.77
4.56
-4.84
-16.20
-30.01
-46.08
-63.43
-80.26
-94.46
-104.17
-108.38
-107.19
-101.58
-93.04
-82.96
-72.30
-61.45
-50.32
-38.68
-26.40
-13.67
-0.97
11.05
21.93
31.57
40.27
48.60
57.08
65.95
75.00
83.76
91.58
97.95
102.48
104.84
104.76
101.91
96.10
87.46
76.58
64.50
52.59
42.12
33.99
28.40
24.93
22.65
20.46
17.39
12.92
7.17
0.88
-4.72
-8.26
-8.71
-5.72
0.22
7.98
16.19
23.78
30.14
35.28
39.53
43.25
46.57
49.33
51.29
52.25
52.33
51.90
51.47
51.54
52.40
54.15
56.69
59.65
62.24
63.12
60.51
52.82
39.42
21.33
1.30
-17.07
-30.48
-37.20
-37.50
-33.32
-27.25
-21.60
-17.78
-16.22
-16.71
-18.59
-20.91
-22.45
-21.84
-17.73
-9.21
3.95
21.20
41.36
62.82
83.91
103.10
119.15
131.09
138.19
139.89
135.69
125.30
108.78
86.88
61.10
33.44
6.01
-19.52
-42.24
-61.82
-78.28
-91.62
-101.80
-109.03
-114.01
-117.92
-122.08
-127.37
-133.78
-140.40
-145.88
-149.06
-149.30
-146.57
-141.15
-133.35
-123.31
-111.12
-96.86
-80.94
-63.91
-46.46
-29.30
-13.03
1.82
14.78
25.45
33.51
38.84
41.67
42.59
42.40
41.89
41.48
41.12
40.26
38.20
34.49
29.30
23.38
17.98
14.32
13.28
15.09
19.38
25.27
31.66
37.44
41.67
43.77
43.64
41.57
38.17
34.05
29.59
24.82
19.43
13.10
5.82
-1.91
-9.13
-14.74
-17.86
-18.07
-15.46
-10.47
-3.70
4.20
12.53
20.49
27.26
32.14
34.75
35.17
33.88
31.57
28.89
26.26
23.86
21.71
19.78
18.08
16.68
15.65
15.02
14.69
14.54
14.37
14.01
13.34
12.32
10.98
9.36
7.53
5.52
3.37
1.04
-1.55
-4.54
-8.17
-12.72
-18.34
-24.92
-31.88
-38.22
-42.69
-44.13
-41.86
-35.95
-27.16
-16.77
-6.13
3.63
11.82
18.11
22.50
25.04
25.89
25.23
23.39
20.80
18.01
15.54
13.77
12.83
12.62
12.89
13.42
14.03
14.66
15.25
15.70
15.75
15.15
13.67
11.31
8.30
4.99
1.80
-1.04
-3.54
-5.95
-8.72
-12.24
-16.74
-22.03
-27.50
-32.17
-34.94
-34.92
-31.70
-25.50
-17.11
-7.60
1.97
10.74
18.14
23.94
28.03
30.45
31.40
31.14
30.07
28.57
26.94
25.35
23.81
22.31
20.83
19.39
18.05
16.85
15.68
14.38
12.74
10.60
7.96
4.92
1.70
-1.49
-4.52
-7.40
-10.26
-13.33
-16.91
-21.22
-26.33
-31.97
-37.56
-42.14
-44.64
-44.15
-40.23
-33.08
-23.52
-12.77
-2.11
7.38
15.01
20.48
23.78
25.16
25.02
23.84
22.10
20.24
18.53
17.15
16.16
15.57
15.37
15.50
15.82
16.09
16.05
15.45
14.17
12.23
9.78
6.99
3.98
0.80
-2.55
-6.01
-9.50
-12.96
-16.35
-19.82
-23.66
-28.11
-33.18
-38.41
-42.89
-45.54
-45.43
-42.11
-35.81
-27.28
-17.53
-7.50
2.12
10.89
18.52
24.77
29.41
32.31
33.55
33.46
32.57
31.43
30.39
29.58
28.86
28.03
26.95
25.65
24.25
22.87
21.55
20.15
18.48
16.27
13.36
9.66
5.28
0.48
-4.34
-8.81
-12.74
-16.28
-19.83
-23.88
-28.69
-33.97
-38.94
-42.49
-43.58
-41.63
-36.60
-29.03
-19.76
-9.79
-0.19
8.11
14.38
18.31
20.12
20.45
20.12
19.88
20.08
20.80
22.00
23.60
25.65
28.17
30.98
33.64
35.49
35.98
34.87
32.30
28.78
24.91
21.14
17.71
14.54
11.47
8.51
5.82
3.69
2.20
1.03
-0.54
-3.54
-8.68
-15.96
-24.53
-33.00
-39.93
-44.38
-46.16
-45.76
-43.80
-40.75
-36.71
-31.56
-25.30
-18.27
-11.17
-4.85
0.09
3.49
5.69
7.23
8.59
9.85
10.87
11.29
10.94
9.90
8.54
7.30
6.48
6.09
5.92
5.61
4.88
3.62
1.88
-0.22
-2.51
-4.92
-7.42
-10.09
-13.07
-16.52
-20.55
-25.13
-29.93
-34.32
-37.44
-38.40
-36.59
-31.80
-24.34
-14.92
-4.48
6.01
15.63
23.68
29.68
33.46
35.16
35.15
33.95
32.07
29.97
27.97
26.31
25.14
24.51
24.33
24.38
24.39
24.16
23.57
22.59
21.18
19.25
16.63
13.12
8.72
3.65
-1.65
-6.74
-11.24
-15.05
-18.29
-21.24
-24.21
-27.46
-31.15
-35.26
-39.53
-43.43
-46.23
-47.15
-45.57
-41.29
-34.57
-26.12
-16.90
-7.92
0.03
6.37
10.89
13.64
14.89
15.03
14.45
13.52
12.54
11.75
11.34
11.44
12.09
13.18
14.53
15.91
17.12
18.00
18.42
18.29
17.50
15.97
13.62
10.46
6.59
2.28
-2.10
-6.12
-9.49
-12.13
-14.32
-16.62
-19.65
-23.76
-28.75
-33.79
-37.66
-39.14
-37.46
-32.57
-25.12
-16.15
-6.77
2.15
10.01
16.44
21.21
24.21
25.52
25.45
24.54
23.36
22.32
21.56
21.01
20.48
19.83
19.08
18.31
17.60
16.95
16.28
15.44
14.33
12.86
10.98
8.65
5.85
2.55
-1.13
-5.03
-8.88
-12.41
-15.41
-17.86
-19.91
-21.99
-24.57
-27.90
-31.83
-35.68
-38.38
-38.87
-36.57
-31.60
-24.77
-17.17
-9.80
-3.22
2.48
7.42
11.66
15.01
17.12
17.73
16.85
14.96
12.76
10.97
10.04
9.96
10.41
10.91
11.01
10.47
9.32
7.73
5.95
4.19
2.57
1.15
-0.14
-1.39
-2.69
-4.13
-5.69
-7.31
-8.91
-10.56
-12.41
-14.76
-17.91
-22.02
-26.95
-32.31
-37.51
-41.94
-45.09
-46.61
-46.32
-44.19
-40.27
-34.75
-27.97
-20.39
-12.54
-4.94
2.01
8.07
13.16
17.29
20.53
22.97
24.69
25.77
26.32
26.45
26.29
26.01
25.71
25.42
25.10
24.68
24.08
23.25
22.15
20.72
18.87
16.50
13.56
10.16
6.47
2.75
-0.85
-4.33
-7.87
-11.71
-16.06
-20.90
-25.89
-30.45
-33.81
-35.24
-34.27
-30.81
-25.24
-18.28
-10.77
-3.48
3.13
8.84
13.59
17.36
20.10
21.80
22.57
22.75
22.84
23.31
24.43
26.15
28.11
29.85
31.09
31.73
31.95
31.97
31.89
31.61
30.84
29.33
27.04
24.18
21.14
18.36
16.03
14.07
12.19
10.01
7.28
3.98
0.38
-3.04
-5.75
-7.27
-7.29
-5.69
-2.51
2.08
7.84
14.52
21.82
29.29
36.37
42.38
46.74
49.11
49.64
48.92
47.88
47.44
48.24
50.38
53.49
56.75
59.19
59.82
57.80
52.58
44.08
32.74
19.43
5.20
-9.18
-23.48
-37.95
-52.87
-68.05
-82.48
-94.55
-102.63
-105.87
-104.59
-100.23
-94.82
-90.23
-87.66
-87.38
-88.82
-90.79
-91.76
-90.24
-85.10
-75.85
-62.81
-47.06
-30.09
-13.50
1.35
13.51
22.44
27.97
30.27
29.86
27.61
24.62
21.96
20.42
20.27
21.29
22.89
24.34
25.09
24.88
23.74
21.93
19.89
18.05
16.78
16.29
16.52
17.20
17.87
18.03
17.29
15.42
12.31
7.98
2.50
-4.05
-11.52
-19.65
-28.03
-36.11
-43.27
-48.83
-52.18
-52.86
-50.65
-45.71
-38.55
-30.03
-21.15
-12.86
-5.89
-0.58
3.10
5.46
6.91
7.80
8.40
8.85
9.28
9.81
10.58
11.71
13.11
14.58
15.86
16.70
16.98
16.65
15.69
14.03
11.60
8.33
4.28
-0.28
-5.00
-9.54
-13.66
-17.27
-20.36
-22.91
-24.93
-26.48
-27.60
-28.43
-28.97
-29.09
-28.50
-26.81
-23.67
-18.92
-12.67
-5.46
1.97
8.76
14.25
18.07
20.28
21.16
21.06
20.14
18.38
15.71
12.28
8.51
5.05
2.50
1.11
0.64
0.48
0.05
-0.96
-2.46
-4.03
-5.34
-6.28
-7.15
-8.42
-10.50
-13.43
-16.89
-20.39
-23.44
-25.90
-27.95
-30.02
-32.52
-35.60
-39.02
-42.23
-44.48
-45.04
-43.45
-39.59
-33.71
-26.33
-18.13
-9.79
-1.90
5.13
11.05
15.76
19.25
21.61
22.90
23.23
22.73
21.62
20.17
18.73
17.56
16.82
16.44
16.27
16.13
15.96
15.82
15.83
15.97
16.03
15.68
14.60
12.66
10.05
7.16
4.42
2.08
0.14
-1.65
-3.68
-6.36
-9.91
-14.34
-19.31
-24.20
-28.15
-30.33
-30.10
-27.27
-22.04
-15.03
-7.01
1.15
8.70
15.04
19.75
22.66
23.85
23.63
22.47
20.86
19.18
17.72
16.58
15.76
15.26
14.99
14.88
14.87
14.87
14.82
14.73
14.58
14.34
13.85
12.93
11.36
9.06
6.16
2.92
-0.28
-3.16
-5.67
-8.03
-10.61
-13.76
-17.59
-21.89
-26.11
-29.42
-31.07
-30.50
-27.60
-22.69
-16.46
-9.74
-3.29
2.36
6.94
10.34
12.59
13.73
13.81
12.97
11.50
9.75
8.12
6.93
6.33
6.29
6.64
7.14
7.51
7.56
7.17
6.32
5.05
3.39
1.43
-0.72
-2.89
-4.90
-6.59
-7.98
-9.28
-10.89
-13.22
-16.41
-20.23
-23.97
-26.73
-27.68
-26.35
-22.79
-17.46
-11.05
-4.22
2.55
8.88
14.49
19.03
22.17
23.68
23.59
22.24
20.20
18.02
16.13
14.74
13.86
13.40
13.33
13.60
14.11
14.64
14.85
14.43
13.19
11.24
8.92
6.67
4.82
3.42
2.29
1.16
-0.11
-1.54
-2.96
-4.20
-5.08
-5.52
-5.33
-4.18
-1.55
3.10
10.09
19.29
30.08
41.40
51.99
60.70
66.79
69.99
70.58
69.10
66.19
62.31
57.63
52.09
45.55
37.94
29.37
20.06
10.33
0.48
-9.28
-18.81
-28.00
-36.78
-44.98
-52.37
-58.67
-63.66
-67.27
-69.67
-71.25
-72.46
-73.75
-75.30
-77.05
-78.69
-79.65
-79.29
-76.99
-72.32
-65.21
-56.01
-45.43
-34.37
-23.72
-14.19
-6.24
-0.08
4.28
7.03
8.45
8.97
9.03
9.08
9.42
10.20
11.34
12.66
13.88
14.82
15.38
15.53
15.35
14.87
14.04
12.85
11.25
9.28
7.03
4.61
2.12
-0.37
-2.79
-5.16
-7.50
-9.91
-12.50
-15.22
-17.85
-19.83
-20.47
-19.13
-15.46
-9.57
-2.04
6.20
14.13
20.80
25.60
28.28
28.97
28.10
26.20
23.80
21.27
18.84
16.61
14.65
13.00
11.71
10.74
9.98
9.23
8.31
7.08
5.55
3.83
2.08
0.43
-1.02
-2.35
-3.71
-5.34
-7.42
-10.04
-13.18
-16.66
-20.18
-23.37
-25.82
-27.11
-26.84
-24.76
-20.81
-15.22
-8.57
-1.70
4.55
9.54
12.92
14.74
15.28
14.88
13.82
12.34
10.65
9.03
7.82
7.30
7.59
8.57
9.89
11.07
11.77
11.77
11.15
10.13
8.96
7.81
6.71
5.56
4.21
2.52
0.41
-2.20
-5.36
-9.14
-13.48
-18.17
-22.69
-26.34
-28.27
-27.80
-24.64
-19.07
-11.89
-4.19
2.94
8.69
12.76
15.23
16.42
16.69
16.26
15.25
13.72
11.85
9.99
8.57
7.96
8.27
9.32
10.69
11.89
12.51
12.39
11.55
10.14
8.31
6.21
3.93
1.58
-0.71
-2.84
-4.77
-6.54
-8.37
-10.50
-13.18
-16.45
-20.04
-23.33
-25.46
-25.56
-23.11
-18.17
-11.43
-3.93
3.21
9.21
13.76
16.90
18.84
19.74
19.63
18.55
16.68
14.42
12.31
10.82
10.18
10.30
10.88
11.58
12.17
12.52
12.59
12.29
11.52
10.17
8.25
5.94
3.48
1.19
-0.81
-2.56
-4.33
-6.44
-9.18
-12.60
-16.52
-20.52
-24.07
-26.63
-27.70
-26.94
-24.24
-19.72
-13.78
-7.00
-0.15
6.07
11.05
14.42
16.06
16.14
14.99
13.04
10.69
8.31
6.20
4.59
3.70
3.65
4.43
5.84
7.40
8.55
8.87
8.20
6.71
4.80
2.85
1.06
-0.66
-2.51
-4.60
-6.89
-9.14
-11.13
-12.80
-14.32
-16.07
-18.25
-20.72
-22.84
-23.72
-22.52
-18.91
-13.24
-6.50
0.09
5.55
9.41
11.80
13.15
13.85
14.08
13.69
12.50
10.50
8.06
5.78
4.28
3.92
4.68
6.12
7.64
8.67
8.87
8.15
6.69
4.77
2.72
0.75
-1.07
-2.80
-4.62
-6.75
-9.37
-12.55
-16.19
-20.00
-23.53
-26.21
-27.48
-26.92
-24.34
-19.87
-13.90
-7.08
-0.17
6.08
11.03
14.33
15.89
15.95
14.90
13.15
11.05
8.83
6.68
4.78
3.39
2.73
2.91
3.82
5.20
6.59
7.52
7.63
6.68
4.70
1.95
-1.17
-4.19
-6.79
-8.92
-10.75
-12.62
-14.89
-17.74
-21.13
-24.77
-28.13
-30.55
-31.37
-30.09
-26.58
-21.07
-14.17
-6.71
0.44
6.60
11.28
14.23
15.51
15.37
14.26
12.74
11.29
10.26
9.73
9.64
9.83
10.19
10.69
11.30
11.97
12.51
12.69
12.31
11.27
9.62
7.52
5.16
2.66
0.06
-2.67
-5.58
-8.68
-11.89
-15.16
-18.43
-21.67
-24.75
-27.39
-29.11
-29.33
-27.51
-23.46
-17.45
-10.19
-2.65
4.25
9.88
14.01
16.79
18.55
19.56
19.97
19.76
18.90
17.52
15.96
14.75
14.31
14.76
15.89
17.13
17.97
18.06
17.43
16.33
14.99
13.45
11.56
9.10
6.06
2.69
-0.52
-3.13
-4.95
-6.24
-7.48
-9.23
-11.84
-15.29
-19.27
-23.32
-26.95
-29.71
-31.16
-30.87
-28.50
-23.91
-17.37
-9.61
-1.69
5.29
10.60
14.01
15.78
16.40
16.35
15.94
15.22
14.21
13.06
12.06
11.56
11.80
12.73
14.07
15.34
16.11
16.17
15.53
14.40
12.99
11.42
9.71
7.73
5.37
2.64
-0.27
-3.07
-5.44
-7.23
-8.53
-9.66
-11.06
-13.16
-16.14
-19.92
-24.08
-27.90
-30.52
-31.14
-29.20
-24.64
-17.91
-9.91
-1.70
5.74
11.75
16.03
18.60
19.62
19.31
17.92
15.81
13.43
11.40
10.27
10.34
11.55
13.45
15.35
16.63
16.96
16.43
15.37
14.21
13.20
12.28
11.22
9.69
7.53
4.77
1.64
-1.54
-4.50
-7.07
-9.21
-10.99
-12.61
-14.25
-16.13
-18.44
-21.26
-24.57
-28.10
-31.38
-33.73
-34.37
-32.70
-28.51
-22.13
-14.38
-6.33
1.05
7.16
11.84
15.22
17.58
19.04
19.71
19.63
18.98
18.09
17.38
17.14
17.46
18.19
19.04
19.71
20.02
19.94
19.53
18.86
17.98
16.92
15.66
14.16
12.42
10.47
8.39
6.30
4.32
2.53
0.88
-0.74
-2.49
-4.46
-6.62
-8.99
-11.52
-14.33
-17.51
-21.01
-24.47
-27.23
-28.47
-27.53
-24.21
-18.84
-12.20
-5.24
1.24
6.74
11.12
14.40
16.66
17.88
18.04
17.19
15.58
13.65
11.97
11.00
10.91
11.50
12.32
12.87
12.85
12.27
11.38
10.51
9.81
9.18
8.32
6.91
4.82
2.18
-0.67
-3.35
-5.65
-7.53
-9.20
-10.89
-12.86
-15.24
-17.99
-20.98
-23.90
-26.33
-27.78
-27.76
-25.96
-22.29
-17.02
-10.73
-4.14
2.02
7.20
11.11
13.65
14.95
15.21
14.67
13.63
12.39
11.26
10.48
10.22
10.49
11.15
11.96
12.69
13.15
13.26
13.05
12.55
11.85
10.95
9.79
8.25
6.21
3.62
0.54
-2.80
-6.10
-9.04
-11.42
-13.24
-14.75
-16.35
-18.47
-21.37
-24.97
-28.83
-32.25
-34.44
-34.76
-32.91
-28.95
-23.28
-16.47
-9.16
-1.97
4.54
9.90
13.77
16.01
16.72
16.17
14.81
13.08
11.43
10.14
9.40
9.26
9.61
10.29
11.10
11.88
12.53
12.98
13.19
13.08
12.58
11.67
10.43
8.98
7.47
5.93
4.33
2.56
0.55
-1.63
-3.91
-6.27
-8.77
-11.59
-14.85
-18.47
-22.07
-25.05
-26.82
-26.96
-25.31
-21.98
-17.30
-11.66
-5.54
0.54
5.96
10.19
12.87
13.99
13.90
13.13
12.24
11.56
11.14
10.85
10.57
10.34
10.30
10.64
11.42
12.43
13.30
13.60
13.13
11.96
10.40
8.81
7.37
6.10
4.75
3.07
0.92
-1.60
-4.19
-6.53
-8.43
-9.92
-11.31
-13.05
-15.42
-18.50
-22.03
-25.47
-28.16
-29.46
-28.94
-26.47
-22.24
-16.69
-10.45
-4.18
1.56
6.35
9.98
12.38
13.60
13.75
13.03
11.76
10.27
8.90
7.94
7.53
7.66
8.16
8.74
9.17
9.28
9.06
8.60
8.02
7.33
6.46
5.22
3.46
1.21
-1.33
-3.84
-6.02
-7.79
-9.36
-11.13
-13.49
-16.64
-20.36
-24.05
-26.92
-28.24
-27.59
-24.96
-20.70
-15.33
-9.39
-3.36
2.37
7.41
11.40
14.00
15.05
14.62
13.09
11.02
9.04
7.63
6.98
6.99
7.41
7.90
8.30
8.56
8.76
8.95
9.06
8.88
8.20
6.86
4.89
2.51
0.01
-2.38
-4.57
-6.60
-8.63
-10.87
-13.50
-16.61
-20.20
-24.05
-27.77
-30.82
-32.58
-32.50
-30.29
-25.95
-19.88
-12.74
-5.36
1.50
7.27
11.63
14.47
15.88
16.02
15.15
13.62
11.90
10.44
9.64
9.70
10.54
11.88
13.29
14.41
15.04
15.15
14.84
14.25
13.46
12.40
10.94
8.92
6.33
3.33
0.21
-2.68
-5.15
-7.25
-9.23
-11.46
-14.16
-17.35
-20.74
-23.79
-25.93
-26.60
-25.46
-22.44
-17.75
-11.82
-5.25
1.30
7.17
11.83
14.94
16.41
16.43
15.41
13.87
12.33
11.06
10.16
9.53
9.01
8.53
8.14
7.95
8.07
8.36
8.59
8.47
7.79
6.57
5.01
3.36
1.82
0.34
-1.22
-3.05
-5.20
-7.57
-10.04
-12.49
-14.91
-17.33
-19.61
-21.39
-22.05
-20.98
-17.81
-12.72
-6.34
0.35
6.37
11.05
14.13
15.66
15.89
15.09
13.54
11.49
9.26
7.23
5.71
4.92
4.86
5.40
6.31
7.31
8.18
8.70
8.69
8.01
6.62
4.64
2.29
-0.10
-2.28
-4.17
-5.94
-7.88
-10.35
-13.56
-17.48
-21.75
-25.77
-28.82
-30.21
-29.46
-26.44
-21.36
-14.79
-7.46
-0.16
6.43
11.83
15.74
18.08
18.91
18.47
17.13
15.34
13.53
12.04
11.09
10.69
10.77
11.20
11.81
12.46
12.99
13.19
12.88
11.91
10.23
7.98
5.40
2.83
0.52
-1.43
-3.12
-4.79
-6.73
-9.14
-12.05
-15.41
-18.99
-22.53
-25.65
-27.86
-28.60
-27.37
-23.91
-18.40
-11.46
-4.03
2.95
8.74
13.00
15.80
17.36
17.95
17.76
16.87
15.41
13.68
12.10
11.15
11.09
11.89
13.17
14.37
15.03
14.94
14.26
13.33
12.44
11.66
10.77
9.41
7.30
4.43
1.07
-2.33
-5.37
-7.86
-9.87
-11.72
-13.73
-16.20
-19.20
-22.56
-25.90
-28.66
-30.27
-30.24
-28.31
-24.49
-19.10
-12.58
-5.51
1.51
7.95
13.31
17.20
19.39
19.90
19.03
17.33
15.44
13.93
13.11
13.02
13.49
14.22
14.97
15.56
15.93
16.01
15.76
15.11
14.08
12.67
11.00
9.17
7.24
5.19
2.98
0.56
-2.01
-4.64
-7.10
-9.21
-10.87
-12.15
-13.37
-14.94
-17.22
-20.32
-23.86
-27.13
-29.21
-29.35
-27.19
-22.92
-17.16
-10.68
-4.18
1.82
7.05
11.29
14.39
16.18
16.63
15.91
14.40
12.64
11.19
10.42
10.42
11.00
11.81
12.50
12.82
12.74
12.37
11.85
11.30
10.66
9.79
8.57
6.91
4.90
2.65
0.34
-1.95
-4.17
-6.34
-8.44
-10.51
-12.64
-14.96
-17.66
-20.72
-23.86
-26.47
-27.79
-27.13
-24.17
-19.16
-12.72
-5.75
0.97
6.83
11.56
15.03
17.23
18.17
17.90
16.58
14.59
12.49
10.89
10.22
10.59
11.71
13.01
13.94
14.22
13.90
13.28
12.59
11.90
11.02
9.68
7.74
5.28
2.56
-0.18
-2.80
-5.30
-7.73
-10.10
-12.34
-14.38
-16.33
-18.42
-21.04
-24.42
-28.46
-32.55
-35.74
-37.00
-35.55
-31.19
-24.38
-16.14
-7.64
0.06
6.39
11.24
14.83
17.43
19.11
19.80
19.35
17.87
15.79
13.82
12.63
12.60
13.54
14.90
16.03
16.49
16.24
15.55
14.77
14.08
13.37
12.38
10.82
8.61
5.87
2.88
-0.07
-2.76
-5.10
-7.19
-9.10
-10.97
-12.91
-14.98
-17.27
-19.79
-22.58
-25.54
-28.41
-30.73
-31.91
-31.34
-28.63
-23.75
-17.11
-9.48
-1.78
5.19
10.86
15.02
17.71
19.10
19.45
18.96
17.87
16.47
15.07
14.00
13.49
13.62
14.31
15.33
16.42
17.33
17.90
18.06
17.79
17.13
16.06
14.58
12.67
10.36
7.73
4.94
2.15
-0.43
-2.66
-4.46
-5.87
-7.09
-8.40
-10.09
-12.41
-15.36
-18.70
-21.96
-24.54
-25.91
-25.69
-23.75
-20.20
-15.36
-9.70
-3.79
1.78
6.52
10.11
12.43
13.54
13.59
12.81
11.44
9.72
7.98
6.49
5.46
4.93
4.84
5.02
5.37
5.85
6.44
7.09
7.59
7.65
7.00
5.55
3.41
0.92
-1.59
-3.89
-5.97
-7.95
-10.07
-12.50
-15.29
-18.42
-21.71
-24.91
-27.62
-29.38
-29.67
-28.08
-24.45
-19.02
-12.43
-5.53
0.84
6.07
9.94
12.49
13.91
14.35
13.94
12.82
11.27
9.71
8.58
8.19
8.55
9.44
10.47
11.36
11.98
12.40
12.77
13.13
13.37
13.23
12.41
10.71
8.14
4.93
1.47
-1.90
-4.95
-7.66
-10.20
-12.78
-15.56
-18.61
-21.88
-25.30
-28.71
-31.82
-34.14
-35.06
-33.97
-30.54
-24.87
-17.58
-9.62
-1.93
4.77
10.17
14.26
17.20
19.12
19.99
19.78
18.56
16.68
14.73
13.32
12.91
13.56
14.92
16.39
17.39
17.62
17.09
16.08
14.86
13.61
12.24
10.56
8.37
5.67
2.63
-0.44
-3.22
-5.50
-7.28
-8.74
-10.18
-11.98
-14.44
-17.65
-21.40
-25.13
-28.08
-29.52
-28.94
-26.28
-21.83
-16.17
-9.93
-3.62
2.35
7.66
12.00
15.08
16.70
16.86
15.82
14.10
12.31
10.99
10.40
10.52
11.07
11.71
12.20
12.48
12.66
12.88
13.16
13.33
13.09
12.16
10.41
7.98
5.15
2.31
-0.26
-2.46
-4.36
-6.16
-8.07
-10.29
-12.90
-15.95
-19.31
-22.77
-25.91
-28.21
-29.08
-28.07
-25.00
-20.07
-13.87
-7.16
-0.75
4.76
9.02
12.01
13.87
14.78
14.91
14.35
13.25
11.80
10.33
9.20
8.69
8.90
9.65
10.63
11.49
12.04
12.20
12.04
11.60
10.83
9.60
7.76
5.34
2.50
-0.46
-3.27
-5.79
-8.12
-10.54
-13.35
-16.69
-20.39
-23.97
-26.75
-28.07
-27.51
-25.03
-20.91
-15.66
-9.85
-3.95
1.62
6.51
10.37
12.91
14.00
13.76
12.53
10.86
9.26
8.07
7.44
7.28
7.40
7.63
7.84
8.01
8.17
8.35
8.48
8.42
7.95
6.88
5.15
2.88
0.37
-2.10
-4.38
-6.52
-8.74
-11.31
-14.40
-18.01
-21.94
-25.82
-29.19
-31.46
-32.06
-30.55
-26.78
-20.98
-13.76
-6.01
1.41
7.79
12.69
15.95
17.60
17.83
16.94
15.34
13.47
11.73
10.41
9.67
9.51
9.87
10.62
11.61
12.62
13.42
13.77
13.53
12.70
11.41
9.84
8.18
6.50
4.77
2.95
0.98
-1.17
-3.52
-6.07
-8.87
-11.97
-15.38
-18.99
-22.49
-25.32
-26.82
-26.34
-23.47
-18.27
-11.23
-3.16
5.02
12.53
18.83
23.64
26.79
28.17
27.73
25.55
21.96
17.57
13.13
9.39
6.82
5.52
5.22
5.43
5.70
5.72
5.50
5.16
4.84
4.55
4.09
3.19
1.68
-0.42
-2.88
-5.44
-7.92
-10.28
-12.66
-15.18
-17.87
-20.67
-23.39
-25.84
-27.76
-28.81
-28.56
-26.60
-22.76
-17.20
-10.55
-3.67
2.60
7.68
11.32
13.56
14.59
14.65
13.99
12.89
11.69
10.72
10.27
10.48
11.32
12.57
13.90
14.91
15.27
14.80
13.58
11.88
10.10
8.52
7.20
5.87
4.19
1.87
-1.09
-4.46
-7.90
-11.22
-14.51
-18.07
-22.08
-26.37
-30.26
-32.77
-32.97
-30.38
-25.20
-18.26
-10.70
-3.60
2.35
6.88
10.10
12.22
13.43
13.83
13.43
12.38
10.96
9.60
8.73
8.58
9.14
10.15
11.23
12.04
12.42
12.34
11.84
10.92
9.55
7.69
5.33
2.58
-0.44
-3.50
-6.41
-9.09
-11.52
-13.88
-16.44
-19.46
-22.99
-26.81
-30.32
-32.73
-33.31
-31.56
-27.47
-21.47
-14.28
-6.76
0.29
6.32
11.02
14.30
16.32
17.29
17.48
17.09
16.35
15.51
14.80
14.46
14.57
15.07
15.71
16.25
16.49
16.42
16.10
15.60
14.90
13.82
12.20
9.93
7.16
4.19
1.41
-0.87
-2.59
-3.94
-5.32
-7.17
-9.85
-13.39
-17.49
-21.50
-24.60
-26.02
-25.33
-22.52
-17.99
-12.39
-6.40
-0.58
4.66
9.09
12.50
14.77
15.85
15.82
14.90
13.45
11.91
10.61
9.80
9.49
9.61
9.96
10.36
10.68
10.82
10.76
10.44
9.78
8.66
6.99
4.76
2.13
-0.59
-3.04
-4.99
-6.37
-7.36
-8.33
-9.66
-11.63
-14.26
-17.33
-20.36
-22.73
-23.81
-23.10
-20.41
-15.92
-10.14
-3.82
2.29
7.61
11.82
14.83
16.69
17.55
17.56
16.89
15.74
14.38
13.09
12.14
11.70
11.77
12.20
12.76
13.15
13.19
12.82
12.12
11.20
10.07
8.66
6.78
4.29
1.26
-2.01
-5.12
-7.71
-9.72
-11.40
-13.24
-15.68
-18.92
-22.70
-26.39
-29.21
-30.49
-29.83
-27.18
-22.80
-17.08
-10.54
-3.71
2.83
8.48
12.73
15.28
16.12
15.62
14.33
12.86
11.68
10.96
10.67
10.69
10.91
11.34
12.04
13.02
14.10
14.99
15.31
14.83
13.52
11.55
9.21
6.77
4.36
1.99
-0.40
-2.90
-5.50
-8.16
-10.80
-13.40
-16.01
-18.79
-21.92
-25.36
-28.83
-31.69
-33.15
-32.47
-29.26
-23.63
-16.23
-8.05
-0.10
6.79
12.18
15.95
18.25
19.32
19.39
18.66
17.37
15.83
14.42
13.53
13.41
14.11
15.41
16.94
18.26
19.05
19.18
18.70
17.81
16.74
15.58
14.29
12.67
10.55
7.87
4.77
1.55
-1.43
-3.89
-5.82
-7.40
-8.96
-10.84
-13.29
-16.35
-19.87
-23.53
-26.88
-29.43
-30.66
-30.14
-27.63
-23.15
-17.03
-9.90
-2.58
4.11
9.53
13.36
15.60
16.55
16.58
16.05
15.19
14.21
13.28
12.61
12.38
12.69
13.42
14.34
15.16
15.71
15.93
15.88
15.59
15.04
14.05
12.48
10.25
7.44
4.25
0.93
-2.25
-5.12
-7.62
-9.81
-11.89
-14.14
-16.82
-20.00
-23.46
-26.67
-28.93
-29.50
-27.92
-24.08
-18.35
-11.46
-4.32
2.26
7.69
11.73
14.42
15.88
16.27
15.70
14.32
12.41
10.41
8.84
8.10
8.29
9.18
10.28
11.12
11.45
11.31
10.93
10.57
10.30
9.94
9.18
7.75
5.60
2.93
0.13
-2.47
-4.69
-6.58
-8.38
-10.37
-12.72
-15.48
-18.61
-21.97
-25.33
-28.29
-30.33
-30.86
-29.40
-25.77
-20.27
-13.55
-6.48
0.12
5.70
9.98
12.96
14.74
15.42
15.17
14.16
12.67
11.08
9.80
9.17
9.36
10.29
11.68
13.06
14.01
14.32
14.00
13.28
12.44
11.58
10.64
9.40
7.67
5.39
2.69
-0.17
-2.97
-5.55
-7.95
-10.25
-12.55
-14.92
-17.45
-20.21
-23.26
-26.53
-29.70
-32.22
-33.42
-32.72
-29.85
-24.98
-18.64
-11.61
-4.65
1.64
6.85
10.80
13.44
14.90
15.37
15.16
14.57
13.92
13.39
13.10
13.12
13.44
14.02
14.74
15.43
15.87
15.91
15.50
14.75
13.84
12.98
12.18
11.37
10.28
8.70
6.55
3.93
1.12
-1.55
-3.83
-5.68
-7.24
-8.70
-10.27
-12.09
-14.32
-17.08
-20.40
-24.14
-27.85
-30.81
-32.20
-31.35
-28.12
-22.87
-16.33
-9.35
-2.55
3.70
9.19
13.70
16.89
18.43
18.17
16.40
13.83
11.36
9.79
9.47
10.20
11.36
12.31
12.65
12.42
11.97
11.70
11.77
11.94
11.76
10.75
8.74
5.98
3.02
0.44
-1.48
-2.87
-4.15
-5.74
-7.79
-10.20
-12.68
-15.05
-17.30
-19.60
-21.97
-24.16
-25.59
-25.52
-23.45
-19.31
-13.56
-6.96
-0.37
5.52
10.26
13.64
15.62
16.34
16.00
14.88
13.28
11.48
9.69
8.07
6.77
5.91
5.56
5.73
6.34
7.17
7.96
8.44
8.42
7.81
6.69
5.17
3.40
1.43
-0.73
-3.12
-5.79
-8.65
-11.59
-14.46
-17.24
-19.99
-22.89
-25.99
-29.13
-31.78
-33.22
-32.71
-29.86
-24.80
-18.16
-10.88
-3.87
2.17
6.92
10.31
12.44
13.43
13.43
12.60
11.18
9.54
8.09
7.16
6.92
7.32
8.13
9.00
9.65
9.95
9.96
9.83
9.71
9.59
9.30
8.57
7.18
5.11
2.50
-0.30
-2.99
-5.35
-7.38
-9.25
-11.20
-13.53
-16.33
-19.56
-22.91
-25.91
-28.01
-28.67
-27.49
-24.36
-19.44
-13.24
-6.46
0.10
5.71
9.87
12.35
13.29
13.05
12.13
11.00
10.00
9.31
9.01
9.10
9.54
10.27
11.22
12.26
13.20
13.90
14.19
13.96
13.19
11.93
10.27
8.36
6.33
4.25
2.16
0.01
-2.21
-4.53
-7.02
-9.73
-12.80
-16.30
-20.15
-24.01
-27.30
-29.31
-29.45
-27.46
-23.49
-18.06
-11.79
-5.31
0.90
6.48
11.10
14.46
16.33
16.66
15.65
13.75
11.54
9.54
8.04
7.13
6.74
6.76
7.14
7.87
8.87
10.00
10.89
11.18
10.62
9.22
7.22
5.04
3.03
1.33
-0.23
-1.96
-4.14
-6.90
-10.11
-13.54
-16.97
-20.22
-23.16
-25.56
-27.04
-27.07
-25.21
-21.31
-15.69
-9.04
-2.28
3.75
8.51
11.82
13.79
14.68
14.76
14.27
13.38
12.29
11.20
10.33
9.85
9.82
10.19
10.80
11.46
12.00
12.37
12.49
12.31
11.75
10.72
9.19
7.25
5.06
2.77
0.47
-1.87
-4.27
-6.73
-9.20
-11.59
-13.96
-16.46
-19.33
-22.61
-26.02
-28.93
-30.50
-30.02
-27.23
-22.42
-16.36
-9.93
-3.82
1.57
6.17
10.00
12.98
14.98
15.80
15.44
14.15
12.41
10.82
9.83
9.62
10.11
11.03
12.06
12.97
13.63
14.01
14.13
14.02
13.67
12.99
11.91
10.32
8.23
5.77
3.18
0.69
-1.53
-3.52
-5.45
-7.61
-10.22
-13.37
-16.97
-20.76
-24.33
-27.23
-28.98
-29.13
-27.35
-23.54
-17.95
-11.19
-4.07
2.54
8.08
12.30
15.23
17.10
18.05
18.13
17.38
15.95
14.19
12.69
11.95
12.27
13.56
15.40
17.27
18.73
19.55
19.73
19.37
18.61
17.52
16.14
14.41
12.29
9.78
6.95
3.95
1.02
-1.62
-3.82
-5.61
-7.22
-8.95
-11.09
-13.82
-17.05
-20.46
-23.53
-25.67
-26.35
-25.25
-22.31
-17.77
-12.04
-5.71
0.65
6.50
11.40
15.04
17.25
18.02
17.53
16.11
14.21
12.27
10.66
9.59
9.05
8.90
8.95
9.02
9.02
8.94
8.75
8.42
7.77
6.63
4.86
2.51
-0.24
-3.09
-5.75
-8.05
-9.95
-11.57
-13.07
-14.65
-16.50
-18.76
-21.47
-24.48
-27.35
-29.37
-29.74
-27.89
-23.65
-17.41
-10.00
-2.42
4.46
10.11
14.32
17.18
18.84
19.48
19.19
18.15
16.60
14.91
13.52
12.76
12.78
13.48
14.51
15.45
15.95
15.85
15.18
14.13
12.87
11.46
9.84
7.90
5.58
2.94
0.20
-2.39
-4.64
-6.56
-8.30
-10.10
-12.17
-14.63
-17.44
-20.50
-23.64
-26.54
-28.79
-29.87
-29.27
-26.64
-22.03
-15.88
-8.98
-2.18
3.81
8.58
12.08
14.41
15.75
16.18
15.82
14.82
13.48
12.27
11.64
11.81
12.68
13.87
14.88
15.39
15.35
15.03
14.74
14.68
14.76
14.67
14.01
12.54
10.25
7.38
4.31
1.37
-1.32
-3.74
-6.05
-8.38
-10.84
-13.48
-16.30
-19.28
-22.42
-25.62
-28.55
-30.66
-31.27
-29.75
-25.84
-19.87
-12.71
-5.49
0.85
5.85
9.58
12.46
14.80
16.66
17.80
17.96
17.11
15.62
14.12
13.21
13.16
13.86
14.89
15.75
16.13
16.00
15.50
14.83
14.13
13.40
12.46
11.14
9.26
6.81
3.94
0.90
-2.01
-4.52
-6.54
-8.18
-9.65
-11.28
-13.36
-16.02
-19.19
-22.49
-25.32
-26.99
-26.90
-24.77
-20.74
-15.33
-9.25
-3.25
2.12
6.56
9.92
12.16
13.26
13.26
12.27
10.58
8.65
7.01
6.08
6.02
6.68
7.67
8.55
9.06
9.16
9.05
8.89
8.67
8.14
6.93
4.83
1.90
-1.46
-4.69
-7.31
-9.15
-10.29
-11.07
-11.88
-13.06
-14.84
-17.29
-20.33
-23.61
-26.54
-28.41
-28.54
-26.54
-22.42
-16.63
-9.90
-3.07
3.18
8.37
12.23
14.63
15.59
15.24
13.87
11.94
9.98
8.47
7.68
7.64
8.14
8.86
9.56
10.08
10.46
10.74
10.96
11.08
10.95
10.39
9.23
7.40
4.92
1.96
-1.24
-4.37
-7.20
-9.59
-11.59
-13.43
-15.45
-17.97
-21.06
-24.49
-27.68
-29.90
-30.48
-29.08
-25.69
-20.71
-14.67
-8.11
-1.55
4.56
9.76
13.65
15.98
16.74
16.20
14.88
13.28
11.79
10.61
9.82
9.43
9.49
10.01
10.97
12.13
13.20
13.83
13.80
13.08
11.79
10.11
8.23
6.19
3.98
1.61
-0.85
-3.24
-5.44
-7.44
-9.45
-11.85
-14.95
-18.80
-22.94
-26.55
-28.63
-28.41
-25.60
-20.62
-14.37
-7.89
-1.99
2.95
6.91
10.04
12.42
13.91
14.30
13.51
11.80
9.72
7.95
7.01
7.09
7.97
9.18
10.29
11.01
11.29
11.19
10.84
10.28
9.45
8.22
6.47
4.17
1.45
-1.47
-4.37
-7.05
-9.53
-11.97
-14.58
-17.47
-20.52
-23.34
-25.33
-25.81
-24.34
-20.79
-15.52
-9.22
-2.79
2.95
7.48
10.64
12.56
13.45
13.51
12.80
11.37
9.40
7.22
5.29
4.00
3.53
3.77
4.49
5.33
6.07
6.57
6.78
6.64
6.08
5.02
3.43
1.39
-1.00
-3.55
-6.16
-8.77
-11.46
-14.32
-17.45
-20.83
-24.28
-27.37
-29.46
-29.86
-28.06
-23.96
-17.95
-10.87
-3.71
2.70
7.83
11.54
13.96
15.30
15.75
15.45
14.54
13.25
11.87
10.77
10.18
10.20
10.71
11.47
12.12
12.37
12.08
11.28
10.10
8.67
7.05
5.17
2.96
0.44
-2.25
-4.93
-7.49
-9.98
-12.66
-15.80
-19.49
-23.43
-26.92
-29.08
-29.14
-26.77
-22.18
-16.03
-9.22
-2.58
3.34
8.28
12.17
15.03
16.82
17.54
17.25
16.22
14.84
13.55
12.67
12.28
12.29
12.50
12.75
12.96
13.15
13.29
13.29
13.00
12.21
10.82
8.84
6.41
3.73
0.99
-1.68
-4.24
-6.77
-9.36
-12.13
-15.13
-18.19
-21.01
-23.11
-24.00
-23.31
-20.95
-17.08
-12.08
-6.50
-0.90
4.22
8.47
11.58
13.47
14.14
13.78
12.68
11.23
9.80
8.74
8.25
8.35
8.94
9.80
10.70
11.43
11.86
11.90
11.46
10.49
9.03
7.21
5.28
3.45
1.84
0.32
-1.40
-3.59
-6.42
-9.76
-13.29
-16.60
-19.33
-21.25
-22.16
-21.91
-20.31
-17.24
-12.72
-7.10
-0.98
4.87
9.71
13.07
14.81
15.15
14.47
13.23
11.77
10.30
8.94
7.74
6.77
6.15
5.99
6.31
7.03
7.88
8.53
8.62
7.94
6.51
4.53
2.36
0.27
-1.61
-3.36
-5.19
-7.26
-9.66
-12.33
-15.15
-17.96
-20.60
-22.80
-24.20
-24.32
-22.74
-19.30
-14.22
-8.09
-1.70
4.20
9.08
12.69
15.02
16.18
16.33
15.63
14.33
12.74
11.23
10.12
9.60
9.63
10.01
10.45
10.75
10.79
10.56
10.08
9.35
8.27
6.75
4.80
2.55
0.25
-1.80
-3.45
-4.73
-5.94
-7.49
-9.72
-12.78
-16.43
-20.14
-23.23
-25.01
-25.11
-23.46
-20.26
-15.87
-10.65
-4.92
0.96
6.58
11.44
15.04
17.11
17.71
17.26
16.37
15.56
15.18
15.16
15.26
15.20
14.87
14.36
13.91
13.66
13.65
13.64
13.35
12.58
11.27
9.51
7.46
5.28
3.07
0.87
-1.28
-3.33
-5.29
-7.19
-9.18
-11.45
-14.16
-17.28
-20.56
-23.49
-25.46
-25.88
-24.41
-21.06
-16.16
-10.25
-3.95
2.17
7.62
12.10
15.37
17.34
18.13
17.98
17.27
16.37
15.57
15.02
14.74
14.71
14.87
15.15
15.46
15.71
15.77
15.58
15.13
14.47
13.60
12.56
11.28
9.71
7.82
5.62
3.21
0.68
-1.83
-4.16
-6.27
-8.14
-9.93
-11.91
-14.37
-17.46
-21.05
-24.62
-27.42
-28.66
-27.78
-24.74
-19.88
-13.90
-7.50
-1.31
4.26
8.93
12.45
14.65
15.43
14.94
13.51
11.68
10.00
8.89
8.49
8.69
9.18
9.61
9.78
9.66
9.39
9.14
8.95
8.69
8.08
6.88
4.97
2.50
-0.19
-2.79
-5.07
-7.02
-8.79
-10.55
-12.46
-14.66
-17.21
-20.10
-23.20
-26.12
-28.29
-29.03
-27.79
-24.34
-18.98
-12.45
-5.67
0.54
5.67
9.61
12.46
14.43
15.65
16.11
15.84
14.93
13.64
12.39
11.58
11.47
12.04
13.02
14.00
14.57
14.49
13.77
12.66
11.43
10.29
9.23
8.07
6.51
4.40
1.80
-1.02
-3.73
-6.06
-7.93
-9.47
-10.89
-12.44
-14.32
-16.68
-19.61
-23.10
-26.89
-30.44
-32.97
-33.61
-31.77
-27.37
-20.95
-13.55
-6.31
-0.11
4.63
8.00
10.33
11.98
13.05
13.48
13.18
12.22
10.94
9.84
9.35
9.65
10.51
11.53
12.33
12.75
12.91
13.03
13.23
13.43
13.28
12.46
10.79
8.37
5.51
2.58
-0.13
-2.46
-4.44
-6.19
-7.92
-9.84
-12.10
-14.81
-17.91
-21.19
-24.30
-26.77
-28.09
-27.82
-25.74
-21.86
-16.50
-10.25
-3.79
2.22
7.32
11.28
14.10
15.84
16.63
16.62
16.00
14.98
13.87
12.93
12.36
12.23
12.47
12.91
13.38
13.75
13.93
13.94
13.80
13.49
12.94
12.08
10.80
9.07
6.96
4.60
2.17
-0.21
-2.52
-4.81
-7.25
-10.01
-13.19
-16.79
-20.56
-24.08
-26.80
-28.13
-27.63
-25.14
-20.84
-15.22
-8.99
-2.88
2.47
6.67
9.58
11.25
11.86
11.59
10.65
9.26
7.68
6.24
5.22
4.77
4.83
5.15
5.43
5.46
5.19
4.73
4.26
3.81
3.30
2.51
1.28
-0.45
-2.55
-4.76
-6.79
-8.51
-9.97
-11.47
-13.40
-16.04
-19.41
-23.07
-26.27
-28.11
-27.92
-25.49
-21.17
-15.63
-9.68
-3.98
1.06
5.18
8.24
10.11
10.76
10.30
9.03
7.40
5.90
4.89
4.48
4.53
4.78
4.98
5.01
4.90
4.81
4.85
5.01
5.13
4.94
4.20
2.78
0.78
-1.57
-3.92
-6.00
-7.76
-9.31
-10.95
-12.96
-15.48
-18.37
-21.31
-23.78
-25.33
-25.60
-24.37
-21.57
-17.29
-11.79
-5.54
0.80
6.50
10.92
13.67
14.69
14.25
12.85
11.08
9.48
8.41
8.01
8.22
8.81
9.54
10.24
10.82
11.24
11.52
11.58
11.33
10.66
9.57
8.13
6.48
4.81
3.19
1.65
0.09
-1.59
-3.50
-5.72
-8.31
-11.31
-14.67
-18.22
-21.54
-24.05
-25.12
-24.24
-21.26
-16.44
-10.47
-4.19
1.63
6.48
10.20
12.84
14.54
15.40
15.46
14.79
13.55
12.05
10.71
9.85
9.63
9.94
10.51
11.01
11.22
11.09
10.68
10.12
9.46
8.66
7.63
6.26
4.54
2.55
0.42
-1.68
-3.68
-5.63
-7.63
-9.87
-12.45
-15.33
-18.29
-20.89
-22.59
-22.90
-21.49
-18.34
-13.74
-8.22
-2.42
3.03
7.62
11.01
13.03
13.70
13.20
11.85
9.94
7.79
5.65
3.73
2.26
1.45
1.46
2.29
3.65
5.03
5.90
5.86
4.91
3.33
1.53
-0.19
-1.82
-3.58
-5.69
-8.18
-10.87
-13.45
-15.71
-17.70
-19.74
-22.11
-24.78
-27.27
-28.70
-28.14
-25.09
-19.69
-12.84
-5.76
0.46
5.24
8.63
11.08
13.02
14.58
15.53
15.52
14.38
12.40
10.16
8.39
7.55
7.70
8.52
9.56
10.43
10.97
11.19
11.14
10.84
10.20
9.06
7.32
5.00
2.27
-0.62
-3.35
-5.74
-7.73
-9.50
-11.42
-13.92
-17.25
-21.33
-25.61
-29.20
-31.14
-30.65
-27.49
-21.99
-15.00
-7.56
-0.64
5.14
9.49
12.48
14.31
15.21
15.37
14.98
14.27
13.52
13.00
12.93
13.32
14.01
14.75
15.30
15.56
15.55
15.36
15.05
14.60
13.88
12.77
11.18
9.10
6.68
4.09
1.55
-0.79
-2.87
-4.78
-6.76
-9.11
-12.06
-15.58
-19.31
-22.58
-24.58
-24.67
-22.60
-18.55
-13.13
-7.10
-1.12
4.30
8.85
12.27
14.41
15.19
14.68
13.21
11.26
9.38
7.97
7.26
7.20
7.60
8.22
8.92
9.58
10.15
10.58
10.75
10.51
9.71
8.34
6.50
4.40
2.31
0.38
-1.40
-3.22
-5.35
-8.06
-11.41
-15.26
-19.21
-22.66
-25.00
-25.68
-24.40
-21.15
-16.27
-10.35
-4.07
1.88
6.98
10.87
13.38
14.48
14.30
13.09
11.21
9.09
7.14
5.69
4.92
4.86
5.35
6.12
6.82
7.17
6.98
6.23
5.04
3.57
2.00
0.32
-1.59
-3.87
-6.60
-9.72
-13.00
-16.23
-19.29
-22.18
-24.94
-27.50
-29.51
-30.42
-29.60
-26.63
-21.55
-14.94
-7.74
-0.94
4.73
8.99
11.91
13.78
14.86
15.21
14.78
13.56
11.75
9.83
8.40
7.93
8.52
9.79
11.11
11.85
11.74
10.87
9.60
8.30
7.09
5.81
4.16
1.97
-0.67
-3.42
-5.94
-8.06
-9.90
-11.85
-14.32
-17.51
-21.23
-24.88
-27.67
-28.82
-27.83
-24.64
-19.61
-13.36
-6.64
-0.05
5.94
11.08
15.20
18.19
19.96
20.51
20.00
18.75
17.20
15.87
15.10
15.06
15.61
16.43
17.14
17.47
17.32
16.79
16.07
15.31
14.53
13.63
12.43
10.81
8.73
6.30
3.74
1.28
-0.96
-3.00
-5.08
-7.52
-10.61
-14.37
-18.52
-22.47
-25.51
-27.04
-26.73
-24.54
-20.73
-15.69
-9.85
-3.69
2.32
7.68
11.98
14.96
16.57
16.99
16.60
15.81
15.00
14.41
14.15
14.26
14.68
15.35
16.11
16.81
17.27
17.30
16.81
15.75
14.16
12.14
9.79
7.23
4.57
1.94
-0.52
-2.73
-4.72
-6.60
-8.59
-10.93
-13.72
-16.88
-20.08
-22.76
-24.32
-24.28
-22.38
-18.76
-13.80
-8.13
-2.40
2.80
7.06
10.13
11.96
12.63
12.31
11.29
9.86
8.38
7.15
6.46
6.41
6.97
7.94
9.01
9.87
10.31
10.25
9.72
8.80
7.54
5.95
4.03
1.81
-0.62
-3.11
-5.51
-7.69
-9.64
-11.46
-13.37
-15.67
-18.56
-22.06
-25.84
-29.25
-31.42
-31.60
-29.40
-24.95
-18.86
-12.03
-5.29
0.79
5.98
10.25
13.65
16.16
17.69
18.20
17.80
16.81
15.64
14.74
14.41
14.70
15.43
16.30
16.97
17.24
17.06
16.54
15.87
15.12
14.25
13.11
11.52
9.38
6.80
3.98
1.18
-1.41
-3.75
-5.98
-8.29
-10.89
-13.84
-17.10
-20.45
-23.57
-26.06
-27.43
-27.25
-25.23
-21.32
-15.83
-9.32
-2.52
3.88
9.33
13.55
16.46
18.15
18.77
18.55
17.72
16.59
15.44
14.55
14.08
14.08
14.50
15.13
15.74
16.12
16.17
15.91
15.46
14.91
14.25
13.34
12.02
10.17
7.88
5.38
2.98
0.95
-0.71
-2.17
-3.81
-6.01
-8.99
-12.72
-16.90
-20.98
-24.33
-26.37
-26.75
-25.35
-22.31
-17.91
-12.58
-6.78
-0.98
4.36
8.89
12.38
14.75
16.04
16.29
15.64
14.23
12.33
10.33
8.69
7.76
7.67
8.22
8.98
9.51
9.53
9.01
8.14
7.15
6.19
5.18
3.90
2.14
-0.13
-2.68
-5.16
-7.22
-8.77
-10.17
-11.98
-14.74
-18.57
-22.98
-27.00
-29.55
-29.83
-27.73
-23.68
-18.47
-12.82
-7.18
-1.70
3.52
8.28
12.19
14.76
15.69
15.05
13.31
11.19
9.40
8.40
8.21
8.55
9.03
9.36
9.49
9.53
9.61
9.76
9.78
9.38
8.30
6.47
4.08
1.51
-0.90
-2.93
-4.61
-6.16
-7.87
-10.01
-12.71
-15.96
-19.57
-23.17
-26.22
-28.13
-28.40
-26.74
-23.19
-18.08
-11.99
-5.59
0.59
6.13
10.78
14.36
16.73
17.84
17.76
16.77
15.30
13.85
12.83
12.39
12.46
12.78
13.10
13.27
13.29
13.24
13.14
12.91
12.36
11.32
9.67
7.51
5.05
2.58
0.34
-1.60
-3.31
-5.00
-6.92
-9.28
-12.15
-15.46
-18.99
-22.34
-25.03
-26.50
-26.23
-23.88
-19.44
-13.28
-6.11
1.17
7.66
12.69
15.96
17.50
17.62
16.74
15.27
13.48
11.55
9.65
7.95
6.68
6.07
6.20
6.96
8.03
8.99
9.45
9.26
8.43
7.18
5.71
4.11
2.39
0.47
-1.65
-3.88
-6.09
-8.19
-10.25
-12.51
-15.19
-18.36
-21.74
-24.69
-26.37
-26.10
-23.56
-19.05
-13.29
-7.22
-1.66
2.88
6.21
8.35
9.40
9.45
8.60
7.06
5.15
3.30
1.93
1.23
1.24
1.76
2.56
3.40
4.13
4.65
4.86
4.61
3.76
2.24
0.12
-2.37
-4.93
-7.29
-9.32
-11.19
-13.20
-15.69
-18.81
-22.38
-25.89
-28.64
-29.91
-29.34
-26.87
-22.80
-17.59
-11.72
-5.68
0.14
5.33
9.47
12.19
13.34
13.08
11.85
10.28
8.90
8.02
7.58
7.37
7.17
6.91
6.73
6.83
7.26
7.86
8.25
7.94
6.66
4.45
1.70
-1.06
-3.43
-5.30
-6.95
-8.83
-11.36
-14.70
-18.64
-22.65
-26.04
-28.10
-28.31
-26.45
-22.62
-17.22
-10.86
-4.23
2.03
7.42
11.62
14.49
16.01
16.27
15.50
14.05
12.33
10.77
9.68
9.22
9.37
9.97
10.75
11.47
11.92
12.00
11.66
10.88
9.66
7.97
5.82
3.30
0.57
-2.17
-4.76
-7.15
-9.47
-11.92
-14.72
-17.85
-21.04
-23.70
-25.08
-24.54
-21.77
-16.92
-10.63
-3.75
2.89
8.69
13.32
16.69
18.77
19.57
19.16
17.76
15.78
13.78
12.26
11.49
11.48
11.96
12.60
13.15
13.46
13.53
13.35
12.85
11.95
10.52
8.59
6.31
3.96
1.80
-0.00
-1.52
-3.02
-4.88
-7.42
-10.75
-14.57
-18.24
-20.90
-21.79
-20.44
-16.97
-11.92
-6.17
-0.53
4.46
8.54
11.72
13.98
15.29
15.54
14.75
13.13
11.11
9.19
7.79
7.08
6.98
7.27
7.66
7.92
7.93
7.62
6.97
6.00
4.75
3.23
1.50
-0.43
-2.47
-4.56
-6.65
-8.76
-11.02
-13.57
-16.53
-19.83
-23.13
-25.84
-27.28
-26.91
-24.50
-20.24
-14.71
-8.62
-2.66
2.68
7.11
10.54
12.91
14.22
14.49
13.88
12.66
11.24
9.99
9.16
8.77
8.66
8.61
8.45
8.19
7.92
7.68
7.43
6.93
5.95
4.28
1.97
-0.68
-3.28
-5.50
-7.20
-8.54
-9.90
-11.69
-14.19
-17.36
-20.88
-24.16
-26.52
-27.38
-26.36
-23.38
-18.59
-12.44
-5.48
1.61
8.11
13.47
17.26
19.36
19.94
19.40
18.22
16.86
15.67
14.84
14.43
14.38
14.52
14.70
14.79
14.71
14.50
14.22
13.88
13.48
12.91
12.09
10.91
9.37
7.42
5.10
2.50
-0.25
-2.90
-5.26
-7.27
-9.06
-10.95
-13.35
-16.43
-20.03
-23.56
-26.17
-27.05
-25.68
-22.08
-16.71
-10.34
-3.73
2.51
7.96
12.44
15.79
17.95
18.90
18.78
17.91
16.71
15.60
14.82
14.44
14.39
14.50
14.66
14.76
14.78
14.65
14.29
13.63
12.61
11.22
9.56
7.74
5.86
3.95
1.98
-0.08
-2.24
-4.42
-6.51
-8.50
-10.46
-12.68
-15.44
-18.78
-22.37
-25.43
-26.99
-26.26
-23.02
-17.78
-11.54
-5.40
-0.11
4.07
7.32
9.91
11.92
13.11
13.19
12.03
9.98
7.74
6.11
5.61
6.23
7.42
8.43
8.69
8.08
6.95
5.88
5.25
5.10
5.05
4.60
3.39
1.46
-0.87
-3.19
-5.21
-6.92
-8.52
-10.27
-12.34
-14.80
-17.62
-20.71
-23.94
-27.01
-29.43
-30.59
-29.91
-27.07
-22.17
-15.74
-8.56
-1.45
4.96
10.25
14.24
16.91
18.30
18.57
17.98
16.90
15.74
14.84
14.34
14.20
14.19
14.06
13.67
13.01
12.22
11.49
10.93
10.51
10.07
9.37
8.19
6.49
4.36
2.05
-0.20
-2.20
-3.93
-5.46
-6.89
-8.33
-9.85
-11.53
-13.58
-16.17
-19.37
-22.93
-26.24
-28.38
-28.55
-26.24
-21.60
-15.24
-8.11
-1.10
5.19
10.48
14.73
17.92
20.04
21.01
20.92
19.98
18.60
17.26
16.35
16.09
16.39
16.99
17.55
17.82
17.71
17.27
16.63
15.91
15.15
14.28
13.19
11.73
9.83
7.51
4.93
2.30
-0.10
-2.11
-3.73
-5.11
-6.57
-8.39
-10.76
-13.72
-17.14
-20.75
-24.14
-26.81
-28.15
-27.67
-25.11
-20.57
-14.59
-7.95
-1.50
4.13
8.55
11.66
13.50
14.19
13.85
12.70
11.03
9.21
7.60
6.47
5.93
5.87
6.14
6.47
6.69
6.67
6.43
6.06
5.68
5.33
4.93
4.28
3.15
1.42
-0.79
-3.20
-5.52
-7.56
-9.38
-11.18
-13.21
-15.62
-18.41
-21.40
-24.34
-26.90
-28.64
-29.12
-27.94
-24.91
-20.17
-14.24
-7.88
-1.89
3.18
7.07
9.83
11.61
12.59
12.81
12.23
10.87
8.94
6.86
5.22
4.48
4.86
6.21
8.01
9.64
10.63
10.83
10.44
9.78
9.11
8.50
7.72
6.47
4.57
2.05
-0.78
-3.52
-5.85
-7.62
-9.02
-10.37
-12.03
-14.21
-16.96
-20.06
-23.16
-25.76
-27.35
-27.50
-25.89
-22.46
-17.43
-11.31
-4.74
1.63
7.30
11.95
15.42
17.64
18.56
18.22
16.85
14.89
12.89
11.44
10.88
11.25
12.24
13.37
14.18
14.42
14.07
13.33
12.51
11.83
11.31
10.80
10.03
8.77
6.96
4.75
2.41
0.18
-1.83
-3.64
-5.38
-7.18
-9.14
-11.34
-13.84
-16.62
-19.55
-22.23
-24.11
-24.58
-23.22
-19.98
-15.19
-9.52
-3.68
1.66
6.09
9.36
11.43
12.32
12.13
10.98
9.13
6.92
4.77
3.16
2.38
2.50
3.33
4.45
5.50
6.20
6.48
6.37
5.98
5.30
4.26
2.80
0.94
-1.18
-3.34
-5.33
-7.05
-8.57
-10.07
-11.85
-14.16
-17.11
-20.57
-24.13
-27.17
-29.02
-29.12
-27.22
-23.39
-18.04
-11.81
-5.33
0.79
6.08
10.20
12.94
14.21
14.09
12.82
10.79
8.51
6.41
4.84
3.91
3.56
3.65
3.98
4.44
4.94
5.39
5.66
5.56
4.90
3.60
1.77
-0.34
-2.43
-4.26
-5.78
-7.16
-8.65
-10.52
-12.90
-15.75
-18.91
-22.10
-24.98
-27.17
-28.25
-27.79
-25.49
-21.30
-15.51
-8.75
-1.84
4.41
9.43
12.91
14.86
15.54
15.27
14.41
13.23
11.99
10.88
10.08
9.70
9.83
10.44
11.38
12.40
13.18
13.47
13.14
12.23
10.90
9.32
7.65
5.93
4.15
2.27
0.28
-1.81
-3.98
-6.29
-8.82
-11.70
-14.94
-18.36
-21.52
-23.83
-24.64
-23.48
-20.24
-15.22
-9.10
-2.71
3.21
8.15
11.94
14.62
16.27
16.97
16.67
15.42
13.40
11.01
8.76
7.16
6.47
6.67
7.48
8.50
9.41
9.99
10.17
10.00
9.48
8.58
7.24
5.46
3.34
1.09
-1.10
-3.09
-4.98
-7.01
-9.49
-12.62
-16.31
-20.14
-23.43
-25.46
-25.64
-23.67
-19.72
-14.27
-8.06
-1.82
3.77
8.28
11.47
13.26
13.68
12.92
11.32
9.30
7.29
5.60
4.41
3.72
3.53
3.82
4.58
5.72
6.95
7.87
8.11
7.48
6.10
4.32
2.54
0.97
-0.42
-1.91
-3.80
-6.30
-9.41
-12.98
-16.74
-20.40
-23.70
-26.30
-27.71
-27.41
-24.93
-20.20
-13.63
-6.13
1.09
6.99
10.92
12.87
13.27
12.74
11.81
10.78
9.73
8.62
7.43
6.27
5.26
4.57
4.30
4.47
4.96
5.55
5.97
6.04
5.63
4.75
3.53
2.10
0.53
-1.15
-2.96
-4.94
-7.06
-9.31
-11.68
-14.22
-16.96
-19.88
-22.72
-25.00
-26.11
-25.46
-22.72
-18.00
-11.82
-4.95
1.75
7.56
12.05
15.04
16.57
16.84
16.09
14.66
12.94
11.35
10.30
10.01
10.53
11.67
13.13
14.53
15.64
16.27
16.38
15.95
14.95
13.39
11.40
9.21
7.08
5.21
3.64
2.24
0.78
-0.95
-3.11
-5.71
-8.74
-12.06
-15.44
-18.51
-20.74
-21.57
-20.52
-17.46
-12.65
-6.72
-0.51
5.19
9.81
13.04
14.91
15.59
15.35
14.41
12.99
11.29
9.55
8.01
6.91
6.44
6.64
7.41
8.55
9.78
10.81
11.44
11.49
10.92
9.77
8.10
6.03
3.66
1.16
-1.35
-3.81
-6.26
-8.86
-11.86
-15.40
-19.37
-23.38
-26.72
-28.65
-28.57
-26.30
-22.08
-16.54
-10.38
-4.27
1.36
6.24
10.14
12.87
14.15
13.84
12.07
9.31
6.31
3.87
2.55
2.46
3.31
4.59
5.85
6.85
7.55
7.91
7.84
7.14
5.64
3.39
0.75
-1.82
-3.90
-5.39
-6.54
-7.82
-9.72
-12.46
-15.97
-19.88
-23.71
-26.97
-29.18
-29.95
-28.96
-26.05
-21.28
-15.00
-7.87
-0.77
5.49
10.34
13.55
15.28
15.87
15.70
15.02
13.91
12.41
10.63
8.84
7.44
6.79
7.07
8.14
9.59
10.87
11.56
11.46
10.69
9.52
8.23
6.95
5.62
4.07
2.24
0.19
-1.86
-3.75
-5.49
-7.30
-9.50
-12.33
-15.66
-18.97
-21.50
-22.52
-21.56
-18.53
-13.75
-7.78
-1.29
5.08
10.79
15.43
18.78
20.79
21.56
21.33
20.39
19.04
17.56
16.23
15.26
14.82
14.93
15.48
16.23
16.86
17.09
16.77
15.95
14.78
13.42
11.97
10.36
8.43
6.05
3.22
0.12
-2.97
-5.75
-8.11
-10.15
-12.19
-14.58
-17.54
-20.93
-24.24
-26.68
-27.49
-26.18
-22.74
-17.63
-11.62
-5.46
0.28
5.26
9.29
12.18
13.77
13.98
12.93
11.05
8.96
7.24
6.22
5.93
6.12
6.51
6.85
7.08
7.21
7.23
7.14
6.82
6.14
4.99
3.33
1.23
-1.09
-3.39
-5.44
-7.13
-8.58
-10.06
-11.91
-14.35
-17.38
-20.78
-24.05
-26.64
-27.98
-27.67
-25.52
-21.69
-16.56
-10.74
-4.88
0.47
4.90
8.19
10.26
11.12
10.89
9.81
8.22
6.56
5.23
4.55
4.61
5.26
6.24
7.26
8.11
8.72
9.11
9.34
9.39
9.19
8.61
7.56
6.02
4.08
1.85
-0.51
-2.87
-5.13
-7.21
-9.10
-10.94
-13.02
-15.63
-18.94
-22.79
-26.59
-29.46
-30.49
-29.07
-25.11
-19.07
-11.81
-4.26
2.80
8.87
13.71
17.21
19.34
20.07
19.51
17.89
15.71
13.54
11.96
11.28
11.52
12.36
13.39
14.21
14.65
14.78
14.84
15.01
15.36
15.73
15.86
15.48
14.46
12.86
10.93
8.93
7.11
5.57
4.26
3.02
1.62
-0.15
-2.42
-5.25
-8.61
-12.33
-16.16
-19.67
-22.35
-23.68
-23.23
-20.87
-16.79
-11.48
-5.61
0.13
5.19
9.19
11.97
13.54
13.99
13.55
12.49
11.12
9.74
8.56
7.67
7.05
6.63
6.37
6.30
6.52
7.05
7.80
8.51
8.80
8.35
7.05
4.97
2.46
-0.13
-2.49
-4.54
-6.34
-8.09
-10.01
-12.29
-15.05
-18.26
-21.76
-25.17
-27.94
-29.44
-29.14
-26.75
-22.36
-16.41
-9.65
-2.97
2.85
7.26
10.08
11.46
11.69
11.14
10.00
8.42
6.52
4.51
2.76
1.63
1.36
1.86
2.81
3.75
4.39
4.68
4.76
4.89
5.10
5.27
5.00
3.91
1.90
-0.80
-3.63
-5.95
-7.40
-8.03
-8.39
-9.24
-11.19
-14.42
-18.52
-22.64
-25.86
-27.40
-26.94
-24.52
-20.46
-15.13
-8.93
-2.22
4.59
10.99
16.38
20.21
22.19
22.39
21.33
19.79
18.53
18.03
18.36
19.28
20.38
21.29
21.79
21.78
21.27
20.33
19.06
17.56
15.93
14.18
12.22
9.89
7.13
4.03
0.86
-2.03
-4.39
-6.20
-7.66
-9.15
-11.05
-13.60
-16.82
-20.57
-24.53
-28.23
-31.09
-32.50
-31.93
-29.12
-24.18
-17.60
-10.18
-2.82
3.77
9.15
13.20
16.02
17.81
18.76
19.04
18.80
18.23
17.60
17.21
17.28
17.84
18.76
19.74
20.44
20.63
20.25
19.44
18.40
17.33
16.29
15.13
13.64
11.59
8.86
5.58
2.04
-1.35
-4.29
-6.66
-8.59
-10.34
-12.21
-14.41
-17.06
-20.12
-23.46
-26.81
-29.70
-31.60
-31.91
-30.21
-26.38
-20.69
-13.79
-6.48
0.39
6.19
10.53
13.34
14.76
15.13
14.79
14.08
13.26
12.53
12.04
11.86
12.00
12.39
12.89
13.36
13.68
13.81
13.73
13.43
12.86
11.97
10.67
8.92
6.72
4.20
1.55
-1.01
-3.27
-5.17
-6.81
-8.47
-10.51
-13.19
-16.59
-20.48
-24.43
-27.91
-30.36
-31.34
-30.54
-27.82
-23.27
-17.25
-10.33
-3.28
3.15
8.41
12.24
14.71
16.10
16.75
16.89
16.70
16.26
15.68
15.11
14.71
14.56
14.67
14.97
15.29
15.46
15.32
14.72
13.55
11.79
9.46
6.75
3.78
0.73
-2.26
-5.12
-7.78
-10.18
-12.31
-14.29
-16.36
-18.84
-22.01
-25.85
-30.01
-33.74
-36.20
-36.69
-34.87
-30.92
-25.32
-18.71
-11.68
-4.70
1.83
7.57
12.14
15.28
16.89
17.15
16.47
15.41
14.48
14.04
14.23
14.99
16.13
17.39
18.52
19.31
19.65
19.53
19.01
18.19
17.11
15.73
13.98
11.79
9.19
6.35
3.46
0.71
-1.83
-4.22
-6.56
-8.93
-11.36
-13.76
-16.13
-18.56
-21.24
-24.30
-27.68
-30.98
-33.50
-34.40
-33.03
-29.14
-23.08
-15.59
-7.67
-0.20
6.22
11.35
15.21
17.97
19.73
20.58
20.53
19.74
18.49
17.22
16.37
16.21
16.74
17.73
18.82
19.72
20.25
20.45
20.40
20.21
19.86
19.27
18.32
16.99
15.34
13.55
11.79
10.14
8.48
6.61
4.31
1.54
-1.54
-4.61
-7.32
-9.48
-11.18
-12.73
-14.60
-17.19
-20.66
-24.80
-29.10
-32.77
-35.02
-35.29
-33.31
-29.28
-23.69
-17.18
-10.45
-4.08
1.46
5.89
9.08
11.06
12.02
12.27
12.19
12.15
12.35
12.87
13.61
14.40
15.06
15.52
15.81
15.98
16.07
16.03
15.74
15.03
13.82
12.12
10.08
7.88
5.67
3.55
1.50
-0.51
-2.53
-4.57
-6.62
-8.69
-10.92
-13.55
-16.85
-20.90
-25.46
-29.94
-33.42
-35.03
-34.15
-30.68
-25.02
-17.91
-10.26
-2.86
3.70
9.08
13.14
15.88
17.35
17.72
17.20
16.12
14.86
13.79
13.20
13.15
13.48
13.92
14.20
14.17
13.85
13.35
12.77
12.07
11.13
9.77
7.94
5.75
3.40
1.08
-1.07
-3.07
-4.98
-6.88
-8.78
-10.64
-12.42
-14.13
-15.85
-17.75
-20.00
-22.65
-25.51
-28.12
-29.82
-29.95
-28.07
-24.15
-18.60
-12.11
-5.46
0.76
6.20
10.74
14.32
16.89
18.38
18.83
18.42
17.52
16.53
15.76
15.38
15.34
15.51
15.73
15.89
15.95
15.89
15.69
15.37
14.91
14.32
13.57
12.64
11.50
10.11
8.49
6.65
4.60
2.33
-0.13
-2.70
-5.24
-7.59
-9.71
-11.68
-13.74
-16.20
-19.26
-22.86
-26.67
-30.07
-32.39
-32.99
-31.53
-27.94
-22.54
-15.91
-8.86
-2.24
3.27
7.29
9.78
11.01
11.34
11.17
10.77
10.35
10.09
10.16
10.67
11.65
12.95
14.31
15.40
15.97
15.91
15.32
14.41
13.43
12.53
11.73
10.80
9.42
7.31
4.45
1.11
-2.17
-4.89
-6.81
-8.18
-9.52
-11.41
-14.12
-17.50
-21.10
-24.41
-27.12
-29.19
-30.65
-31.37
-30.98
-28.95
-24.95
-19.09
-12.01
-4.72
1.79
6.88
10.36
12.43
13.46
13.77
13.52
12.82
11.74
10.48
9.26
8.33
7.82
7.72
7.92
8.24
8.53
8.68
8.62
8.24
7.46
6.20
4.48
2.44
0.29
-1.79
-3.72
-5.53
-7.35
-9.31
-11.48
-13.91
-16.60
-19.53
-22.60
-25.51
-27.77
-28.77
-27.98
-25.13
-20.40
-14.32
-7.67
-1.21
4.45
8.98
12.21
14.16
14.86
14.40
12.99
10.95
8.75
6.92
5.90
5.89
6.77
8.18
9.62
10.69
11.18
11.12
10.67
9.98
9.10
7.94
6.37
4.35
1.95
-0.60
-3.04
-5.18
-7.03
-8.79
-10.82
-13.40
-16.68
-20.53
-24.55
-28.13
-30.59
-31.38
-30.19
-26.99
-22.11
-16.09
-9.53
-3.02
2.95
8.06
12.04
14.71
16.03
16.09
15.21
13.86
12.55
11.67
11.42
11.70
12.27
12.87
13.33
13.65
13.90
14.11
14.18
13.89
13.00
11.39
9.14
6.54
3.94
1.60
-0.41
-2.21
-4.03
-6.04
-8.32
-10.89
-13.77
-16.95
-20.33
-23.59
-26.11
-27.17
-26.14
-22.82
-17.55
-11.18
-4.71
0.99
5.46
8.63
10.70
11.93
12.49
12.42
11.75
10.59
9.16
7.78
6.83
6.52
6.93
7.91
9.18
10.42
11.37
11.88
11.88
11.34
10.25
8.60
6.43
3.88
1.15
-1.51
-3.93
-6.12
-8.20
-10.47
-13.15
-16.34
-19.84
-23.20
-25.79
-27.08
-26.68
-24.46
-20.60
-15.45
-9.50
-3.28
2.65
7.73
11.50
13.69
14.29
13.64
12.26
10.67
9.33
8.42
7.90
7.70
7.72
7.90
8.24
8.71
9.17
9.44
9.29
8.56
7.20
5.26
2.90
0.30
-2.29
-4.68
-6.77
-8.63
-10.46
-12.57
-15.21
-18.40
-21.88
-25.13
-27.49
-28.37
-27.39
-24.49
-19.87
-14.03
-7.56
-1.07
4.85
9.76
13.37
15.56
16.38
16.03
14.84
13.24
11.68
10.51
9.92
9.91
10.30
10.83
11.27
11.48
11.43
11.13
10.61
9.83
8.70
7.13
5.09
2.65
0.01
-2.61
-5.06
-7.31
-9.52
-11.90
-14.67
-17.87
-21.37
-24.80
-27.61
-29.22
-29.11
-26.98
-22.87
-17.15
-10.43
-3.45
3.09
8.68
13.02
16.02
17.74
18.38
18.19
17.51
16.66
15.96
15.64
15.75
16.25
16.98
17.72
18.28
18.51
18.37
17.87
17.04
15.91
14.43
12.53
10.19
7.47
4.58
1.81
-0.59
-2.49
-3.98
-5.35
-7.02
-9.36
-12.57
-16.58
-20.96
-25.00
-27.90
-28.94
-27.75
-24.38
-19.34
-13.36
-7.27
-1.69
3.00
6.69
9.36
11.06
11.81
11.67
10.77
9.40
7.96
6.88
6.47
6.79
7.68
8.76
9.73
10.40
10.73
10.80
10.66
10.24
9.40
7.99
6.04
3.69
1.22
-1.13
-3.26
-5.30
-7.52
-10.24
-13.65
-17.65
-21.78
-25.35
-27.58
-27.89
-26.05
-22.23
-16.93
-10.76
-4.29
1.97
7.62
12.27
15.62
17.50
17.95
17.27
15.89
14.23
12.60
11.17
9.97
9.07
8.53
8.43
8.76
9.38
9.99
10.26
9.93
8.89
7.23
5.20
3.07
1.03
-0.84
-2.61
-4.43
-6.51
-9.00
-11.96
-15.34
-18.97
-22.53
-25.58
-27.63
-28.16
-26.80
-23.48
-18.42
-12.18
-5.45
1.05
6.78
11.36
14.63
16.59
17.32
17.02
15.95
14.39
12.66
11.09
9.92
9.30
9.25
9.66
10.35
11.11
11.76
12.15
12.20
11.81
10.90
9.40
7.32
4.77
1.97
-0.80
-3.27
-5.31
-6.98
-8.51
-10.28
-12.67
-15.88
-19.78
-23.88
-27.36
-29.35
-29.15
-26.50
-21.65
-15.27
-8.21
-1.22
5.12
10.49
14.73
17.73
19.44
19.92
19.41
18.35
17.14
16.14
15.51
15.22
15.18
15.35
15.70
16.24
16.83
17.19
17.03
16.14
14.56
12.54
10.41
8.37
6.41
4.35
1.97
-0.75
-3.66
-6.43
-8.84
-10.86
-12.82
-15.11
-18.00
-21.29
-24.33
-26.18
-25.97
-23.29
-18.43
-12.19
-5.60
0.48
5.55
9.49
12.40
14.37
15.35
15.24
14.04
12.00
9.60
7.47
6.09
5.74
6.28
7.36
8.50
9.32
9.60
9.33
8.63
7.69
6.61
5.38
3.89
1.99
-0.36
-3.02
-5.73
-8.18
-10.24
-12.07
-14.05
-16.64
-20.04
-23.99
-27.78
-30.40
-30.95
-28.93
-24.46
-18.22
-11.17
-4.28
1.80
6.76
10.54
13.18
14.70
15.07
14.33
12.74
10.71
8.74
7.29
6.60
6.65
7.24
8.06
8.85
9.40
9.63
9.49
8.96
8.01
6.60
4.74
2.49
-0.01
-2.57
-5.04
-7.29
-9.35
-11.34
-13.46
-15.89
-18.72
-21.85
-24.89
-27.26
-28.22
-27.23
-24.06
-18.99
-12.68
-5.96
0.45
6.07
10.64
14.10
16.37
17.45
17.38
16.38
14.81
13.12
11.67
10.69
10.23
10.21
10.51
10.95
11.39
11.73
11.88
11.78
11.37
10.55
9.24
7.42
5.21
2.84
0.54
-1.54
-3.46
-5.42
-7.67
-10.36
-13.48
-16.85
-20.18
-23.13
-25.33
-26.36
-25.80
-23.34
-18.92
-12.88
-5.91
1.08
7.26
12.06
15.26
17.02
17.65
17.48
16.76
15.61
14.18
12.68
11.42
10.75
10.79
11.47
12.46
13.36
13.90
14.03
13.86
13.51
12.95
11.97
10.33
7.91
4.88
1.65
-1.30
-3.65
-5.45
-7.05
-8.95
-11.53
-14.87
-18.64
-22.19
-24.76
-25.79
-25.03
-22.48
-18.42
-13.18
-7.16
-0.82
5.28
10.45
14.02
15.59
15.19
13.31
10.78
8.43
6.83
6.11
6.07
6.34
6.69
7.07
7.60
8.38
9.36
10.22
10.56
10.07
8.67
6.58
4.17
1.82
-0.22
-1.98
-3.64
-5.45
-7.69
-10.53
-14.01
-18.02
-22.17
-25.92
-28.58
-29.55
-28.46
-25.24
-20.19
-13.83
-6.84
0.09
6.37
11.50
15.17
17.27
17.86
17.18
15.62
13.58
11.46
9.56
8.11
7.19
6.79
6.78
7.02
7.35
7.64
7.80
7.69
7.18
6.16
4.51
2.30
-0.28
-2.91
-5.31
-7.35
-9.07
-10.69
-12.47
-14.63
-17.25
-20.25
-23.38
-26.26
-28.39
-29.22
-28.27
-25.22
-20.11
-13.36
-5.72
1.93
8.78
14.23
18.04
20.25
21.07
20.79
19.73
18.17
16.44
14.85
13.70
13.17
13.29
13.90
14.71
15.42
15.81
15.78
15.41
14.80
14.02
13.00
11.61
9.70
7.29
4.58
1.88
-0.48
-2.37
-3.88
-5.30
-7.02
-9.36
-12.44
-16.09
-19.85
-22.99
-24.70
-24.35
-21.68
-16.95
-10.87
-4.35
1.78
6.95
10.91
13.64
15.13
15.44
14.65
13.02
11.02
9.21
8.06
7.76
8.20
9.04
9.90
10.51
10.83
10.91
10.87
10.68
10.20
9.23
7.64
5.44
2.87
0.27
-2.04
-3.87
-5.27
-6.43
-7.68
-9.28
-11.40
-14.08
-17.22
-20.62
-23.91
-26.57
-27.99
-27.59
-25.03
-20.34
-14.02
-6.90
0.07
6.04
10.45
13.07
14.04
13.68
12.44
10.74
8.95
7.37
6.17
5.47
5.25
5.43
5.84
6.30
6.62
6.66
6.39
5.77
4.83
3.60
2.08
0.26
-1.82
-4.10
-6.50
-8.93
-11.32
-13.65
-16.01
-18.52
-21.35
-24.47
-27.61
-30.19
-31.38
-30.45
-27.00
-21.23
-13.86
-5.97
1.41
7.55
12.14
15.18
16.83
17.28
16.73
15.45
13.79
12.17
10.89
10.10
9.74
9.62
9.55
9.42
9.22
8.97
8.67
8.22
7.43
6.18
4.40
2.21
-0.17
-2.49
-4.58
-6.39
-8.03
-9.72
-11.75
-14.33
-17.54
-21.13
-24.62
-27.24
-28.20
-26.95
-23.37
-17.79
-10.94
-3.68
3.14
8.89
13.17
15.87
17.14
17.27
16.69
15.76
14.72
13.68
12.70
11.86
11.36
11.35
11.90
12.90
14.00
14.79
14.94
14.27
12.83
10.80
8.43
5.93
3.38
0.80
-1.80
-4.35
-6.76
-8.93
-10.91
-12.89
-15.21
-18.12
-21.54
-24.92
-27.35
-27.83
-25.67
-20.83
-14.02
-6.38
0.87
6.85
11.24
14.20
16.07
17.16
17.50
17.02
15.73
13.87
11.99
10.70
10.40
11.03
12.18
13.23
13.68
13.41
12.64
11.69
10.85
10.10
9.25
7.97
6.10
3.69
1.00
-1.63
-3.89
-5.67
-7.10
-8.50
-10.25
-12.65
-15.86
-19.67
-23.57
-26.74
-28.34
-27.74
-24.75
-19.76
-13.58
-7.14
-1.21
3.78
7.78
10.87
13.09
14.39
14.66
13.93
12.46
10.73
9.30
8.61
8.79
9.72
11.06
12.40
13.42
13.92
13.84
13.22
12.09
10.43
8.25
5.59
2.61
-0.39
-3.08
-5.23
-6.89
-8.41
-10.29
-12.95
-16.50
-20.58
-24.48
-27.37
-28.51
-27.52
-24.39
-19.44
-13.22
-6.40
0.36
6.45
11.35
14.74
16.49
16.72
15.76
14.06
12.16
10.52
9.49
9.21
9.60
10.44
11.39
12.17
12.60
12.59
12.16
11.38
10.26
8.82
7.04
4.97
2.73
0.44
-1.85
-4.15
-6.58
-9.26
-12.27
-15.60
-19.18
-22.88
-26.53
-29.86
-32.43
-33.63
-32.85
-29.64
-24.00
-16.47
-8.07
0.01
6.81
11.80
15.03
16.87
17.77
18.08
17.90
17.29
16.32
15.25
14.40
14.08
14.31
14.89
15.47
15.77
15.76
15.57
15.41
15.29
14.93
13.85
11.67
8.28
4.01
-0.51
-4.68
-8.08
-10.74
-13.05
-15.51
-18.54
-22.26
-26.42
-30.41
-33.49
-35.03
-34.60
-32.09
-27.67
-21.64
-14.46
-6.67
1.11
8.15
13.80
17.63
19.48
19.67
18.74
17.38
16.16
15.34
14.94
14.80
14.76
14.81
15.04
15.56
16.36
17.17
17.55
17.09
15.56
13.06
9.94
6.67
3.63
0.97
-1.40
-3.63
-5.90
-8.30
-10.90
-13.75
-16.89
-20.26
-23.64
-26.59
-28.41
-28.44
-26.22
-21.77
-15.52
-8.30
-1.02
5.52
10.80
14.55
16.76
17.51
17.04
15.66
13.79
11.86
10.25
9.19
8.72
8.72
8.97
9.30
9.58
9.75
9.79
9.65
9.23
8.36
6.96
5.01
2.67
0.17
-2.31
-4.66
-6.97
-9.45
-12.33
-15.71
-19.56
-23.60
-27.37
-30.30
-31.80
-31.35
-28.69
-23.95
-17.59
-10.39
-3.22
3.15
8.17
11.62
13.52
14.10
13.67
12.63
11.28
9.90
8.69
7.75
7.20
7.07
7.38
8.07
8.98
9.91
10.66
11.09
11.10
10.67
9.72
8.21
6.09
3.46
0.52
-2.46
-5.22
-7.68
-9.99
-12.42
-15.28
-18.73
-22.56
-26.24
-28.96
-29.88
-28.42
-24.45
-18.39
-11.04
-3.38
3.72
9.70
14.32
17.59
19.56
20.28
19.82
18.38
16.34
14.22
12.56
11.68
11.59
12.04
12.65
13.09
13.24
13.15
12.94
12.64
12.16
11.32
9.94
7.99
5.61
3.08
0.70
-1.36
-3.06
-4.58
-6.20
-8.25
-10.96
-14.39
-18.33
-22.31
-25.70
-27.81
-28.07
-26.16
-22.10
-16.23
-9.21
-1.88
4.93
10.49
14.39
16.53
17.09
16.51
15.28
13.90
12.74
12.07
11.96
12.31
12.93
13.57
14.06
14.34
14.43
14.35
14.13
13.69
12.93
11.76
10.17
8.17
5.85
3.31
0.66
-1.96
-4.45
-6.74
-8.89
-11.10
-13.60
-16.59
-20.08
-23.76
-27.01
-29.04
-29.12
-26.87
-22.35
-16.12
-9.09
-2.21
3.75
8.37
11.55
13.39
14.06
13.75
12.68
11.16
9.54
8.22
7.48
7.38
7.78
8.40
8.96
9.26
9.26
9.04
8.68
8.16
7.36
6.06
4.06
1.31
-1.95
-5.34
-8.38
-10.77
-12.57
-14.11
-15.90
-18.37
-21.58
-25.20
-28.57
-30.89
-31.48
-29.93
-26.15
-20.45
-13.41
-5.86
1.37
7.51
12.02
14.69
15.64
15.26
14.08
12.63
11.32
10.35
9.74
9.37
9.11
8.85
8.63
8.50
8.50
8.58
8.61
8.41
7.85
6.90
5.61
3.98
1.96
-0.47
-3.29
-6.31
-9.16
-11.55
-13.37
-14.94
-16.81
-19.49
-23.08
-27.04
-30.32
-31.77
-30.60
-26.78
-20.92
-14.00
-6.90
-0.21
5.82
11.06
15.27
18.04
19.00
18.11
15.80
12.90
10.33
8.73
8.30
8.74
9.54
10.25
10.66
10.78
10.77
10.71
10.61
10.33
9.72
8.67
7.16
5.27
3.11
0.83
-1.43
-3.57
-5.58
-7.54
-9.59
-11.99
-14.89
-18.32
-22.04
-25.54
-28.13
-29.12
-28.00
-24.61
-19.24
-12.52
-5.31
1.57
7.46
11.99
15.05
16.72
17.15
16.58
15.29
13.62
11.97
10.71
10.04
10.01
10.43
11.06
11.70
12.25
12.67
12.89
12.77
12.05
10.57
8.30
5.48
2.44
-0.43
-2.91
-5.04
-6.96
-8.94
-11.18
-13.83
-16.90
-20.23
-23.45
-26.02
-27.24
-26.48
-23.42
-18.15
-11.26
-3.65
3.65
9.75
14.04
16.29
16.62
15.41
13.21
10.54
7.86
5.46
3.47
1.95
0.94
0.51
0.71
1.58
3.04
4.92
6.92
8.69
9.89
10.26
9.71
8.29
6.20
3.66
0.85
-2.10
-5.11
-8.11
-11.11
-14.14
-17.32
-20.76
-24.39
-27.91
-30.71
-32.05
-31.32
-28.27
-23.14
-16.58
-9.49
-2.68
3.20
7.82
11.11
13.15
14.12
14.22
13.66
12.65
11.45
10.36
9.65
9.55
10.08
11.06
12.15
12.98
13.30
13.07
12.37
11.34
10.05
8.53
6.74
4.70
2.54
0.47
-1.34
-2.85
-4.20
-5.69
-7.62
-10.19
-13.39
-16.93
-20.37
-23.15
-24.76
-24.76
-22.90
-19.15
-13.77
-7.26
-0.40
5.95
11.07
14.50
16.21
16.53
15.95
14.97
13.87
12.77
11.70
10.75
10.15
10.15
10.83
12.06
13.36
14.15
14.01
12.84
10.90
8.67
6.57
4.75
3.08
1.31
-0.74
-3.05
-5.42
-7.68
-9.82
-12.01
-14.52
-17.44
-20.50
-23.11
-24.48
-23.96
-21.30
-16.66
-10.64
-4.02
2.42
8.05
12.45
15.42
16.92
17.04
15.97
14.02
11.56
9.02
6.82
5.30
4.65
4.90
5.92
7.41
9.00
10.27
10.87
10.54
9.24
7.12
4.52
1.81
-0.70
-2.87
-4.77
-6.63
-8.72
-11.29
-14.45
-18.11
-21.95
-25.45
-27.99
-28.91
-27.73
-24.21
-18.60
-11.52
-3.89
3.31
9.29
13.59
16.15
17.24
17.25
16.53
15.36
13.91
12.30
10.74
9.46
8.66
8.44
8.75
9.38
10.02
10.37
10.20
9.44
8.13
6.42
4.45
2.35
0.21
-1.92
-3.98
-5.98
-7.99
-10.15
-12.72
-15.85
-19.52
-23.42
-26.89
-29.15
-29.43
-27.29
-22.76
-16.37
-9.04
-1.71
4.81
10.05
13.92
16.50
17.96
18.43
18.01
16.86
15.28
13.65
12.37
11.68
11.61
11.99
12.51
12.90
12.97
12.63
11.91
10.83
9.42
7.70
5.67
3.36
0.80
-1.92
-4.71
-7.50
-10.24
-12.99
-15.88
-19.04
-22.51
-26.08
-29.22
-31.12
-31.01
-28.42
-23.48
-16.88
-9.65
-2.75
3.16
7.84
11.30
13.58
14.68
14.59
13.43
11.58
9.59
7.99
7.12
7.01
7.45
8.14
8.84
9.40
9.79
9.94
9.76
9.14
8.00
6.34
4.24
1.89
-0.51
-2.81
-4.97
-7.15
-9.57
-12.47
-15.90
-19.61
-23.08
-25.60
-26.48
-25.26
-21.82
-16.45
-9.73
-2.40
4.76
11.11
16.16
19.66
21.56
21.98
21.21
19.64
17.69
15.76
14.14
12.97
12.27
11.95
11.87
11.93
12.01
11.99
11.73
11.06
9.82
7.94
5.52
2.80
0.06
-2.44
-4.64
-6.71
-8.93
-11.60
-14.87
-18.68
-22.65
-26.21
-28.64
-29.31
-27.82
-24.16
-18.69
-12.09
-5.15
1.36
6.87
11.04
13.77
15.14
15.39
14.84
13.88
12.80
11.83
11.08
10.61
10.42
10.53
10.98
11.68
12.53
13.27
13.66
13.46
12.57
11.04
9.08
6.93
4.75
2.62
0.48
-1.79
-4.28
-7.01
-9.96
-13.12
-16.44
-19.80
-22.86
-25.00
-25.49
-23.72
-19.55
-13.43
-6.39
0.40
5.98
9.91
12.25
13.36
13.66
13.32
12.36
10.78
8.78
6.76
5.29
4.77
5.32
6.60
8.05
9.07
9.32
8.78
7.72
6.48
5.30
4.20
3.03
1.64
-0.08
-2.07
-4.25
-6.55
-9.00
-11.70
-14.72
-17.90
-20.80
-22.75
-23.02
-21.14
-17.04
-11.25
-4.59
1.92
7.51
11.71
14.44
15.85
16.20
15.73
14.63
13.05
11.15
9.17
7.38
6.05
5.39
5.43
6.05
6.93
7.70
7.99
7.58
6.46
4.77
2.72
0.49
-1.81
-4.12
-6.46
-8.82
-11.28
-13.90
-16.77
-19.78
-22.64
-24.84
-25.75
-24.83
-21.88
-17.07
-10.92
-4.18
2.38
8.13
12.59
15.49
16.76
16.58
15.28
13.35
11.27
9.45
8.14
7.39
7.13
7.26
7.63
8.11
8.50
8.59
8.14
7.01
5.21
2.97
0.64
-1.48
-3.23
-4.70
-6.19
-8.09
-10.68
-14.03
-17.90
-21.77
-24.95
-26.72
-26.54
-24.21
-19.93
-14.24
-7.85
-1.49
4.23
8.94
12.43
14.66
15.74
15.91
15.53
15.02
14.75
14.96
15.74
16.96
18.44
19.94
21.24
22.17
22.56
22.24
21.11
19.16
16.52
13.49
10.39
7.45
4.71
2.04
-0.79
-3.98
-7.55
-11.33
-14.89
-17.77
-19.46
-19.65
-18.21
-15.27
-11.16
-6.31
-1.19
3.76
8.19
11.79
14.32
15.61
15.58
14.36
12.23
9.65
7.18
5.35
4.57
4.98
6.42
8.38
10.18
11.18
10.95
9.44
6.93
3.92
0.86
-1.90
-4.33
-6.58
-8.95
-11.64
-14.76
-18.15
-21.51
-24.42
-26.46
-27.24
-26.51
-24.13
-20.12
-14.74
-8.50
-2.12
3.52
7.67
9.84
10.00
8.53
6.13
3.48
1.16
-0.54
-1.55
-1.90
-1.67
-0.91
0.23
1.50
2.60
3.18
3.05
2.17
0.73
-1.02
-2.83
-4.57
-6.21
-7.86
-9.72
-11.97
-14.74
-17.96
-21.32
-24.26
-26.06
-26.10
-24.04
-20.00
-14.48
-8.31
-2.29
2.91
6.91
9.61
11.02
11.23
10.30
8.38
5.71
2.72
-0.01
-1.90
-2.64
-2.24
-1.11
0.12
0.91
0.91
0.13
-1.17
-2.68
-4.16
-5.53
-6.82
-8.11
-9.47
-10.99
-12.81
-15.11
-17.98
-21.32
-24.67
-27.27
-28.24
-26.93
-23.13
-17.26
-10.18
-2.97
3.44
8.43
11.75
13.47
13.81
13.11
11.71
9.95
8.16
6.61
5.48
4.92
4.96
5.56
6.56
7.66
8.51
8.81
8.38
7.27
5.69
3.93
2.21
0.63
-0.83
-2.23
-3.61
-5.00
-6.46
-8.12
-10.19
-12.81
-15.95
-19.34
-22.41
-24.45
-24.81
-23.11
-19.37
-14.04
-7.81
-1.40
4.64
9.97
14.49
18.13
20.86
22.57
23.24
22.99
22.13
21.11
20.34
20.02
20.12
20.43
20.70
20.78
20.67
20.37
19.88
19.05
17.66
15.55
12.66
9.11
5.16
1.12
-2.69
-6.00
-8.63
-10.49
-11.66
-12.35
-12.92
-13.68
-14.74
-15.98
-16.95
-17.13
-16.04
-13.49
-9.60
-4.74
0.64
6.13
11.41
16.25
20.44
23.73
25.90
26.84
26.61
25.49
23.90
22.29
21.02
20.34
20.28
20.81
21.79
23.06
24.41
25.57
26.30
26.37
25.65
24.19
22.12
19.63
16.87
13.89
10.65
7.04
3.01
-1.42
-6.15
-11.10
-16.24
-21.54
-26.84
-31.66
-35.25
-36.75
-35.51
-31.40
-24.98
-17.33
-9.67
-2.97
2.28
6.07
8.62
10.13
10.66
10.19
8.82
6.85
4.78
3.16
2.33
2.34
2.91
3.61
4.10
4.19
3.94
3.47
2.91
2.23
1.32
0.04
-1.67
-3.74
-5.96
-8.08
-10.00
-11.77
-13.62
-15.87
-18.76
-22.27
-26.07
-29.55
-32.00
-32.78
-31.54
-28.31
-23.42
-17.37
-10.74
-4.09
2.04
7.17
10.89
12.97
13.43
12.56
10.89
8.91
7.03
5.42
4.16
3.25
2.76
2.83
3.49
4.63
5.91
6.97
7.48
7.36
6.71
5.71
4.49
2.97
1.06
-1.31
-4.00
-6.71
-9.11
-11.08
-12.77
-14.66
-17.23
-20.67
-24.68
-28.48
-30.99
-31.28
-28.82
-23.79
-16.88
-9.03
-1.15
6.20
12.71
18.34
23.01
26.59
28.83
29.61
28.99
27.38
25.36
23.53
22.23
21.49
21.06
20.61
19.95
19.07
18.15
17.33
16.67
16.01
15.10
13.74
11.80
9.36
6.60
3.73
1.02
-1.45
-3.65
-5.74
-8.01
-10.77
-14.23
-18.33
-22.65
-26.51
-29.09
-29.67
-27.89
-23.85
-18.10
-11.41
-4.61
1.67
7.07
11.41
14.61
16.60
17.34
16.90
15.54
13.73
11.99
10.79
10.28
10.39
10.87
11.42
11.86
12.15
12.25
12.06
11.40
9.99
7.60
4.15
-0.29
-5.42
-10.88
-16.28
-21.35
-25.97
-30.18
-34.11
-37.95
-41.76
-45.48
-48.82
-51.30
-52.37
-51.52
-48.42
-43.04
-35.71
-27.08
-17.99
-9.32
-1.75
4.26
8.63
11.57
13.42
14.55
15.20
15.48
15.36
14.82
13.92
12.87
11.98
11.57
11.89
12.98
14.71
16.79
18.85
20.56
21.69
22.20
22.14
21.63
20.69
19.24
17.08
14.00
9.84
4.59
-1.61
-8.48
-15.50
-22.01
-27.16
-30.07
-30.07
-26.93
-20.96
-13.02
-4.22
4.29
11.64
17.34
21.26
23.49
24.28
23.87
22.58
20.68
18.51
16.39
14.56
13.18
12.23
11.64
11.26
10.97
10.65
10.21
9.52
8.39
6.72
4.44
1.63
-1.53
-4.80
-7.98
-11.00
-13.88
-16.75
-19.74
-22.93
-26.24
-29.41
-32.07
-33.72
-33.88
-32.22
-28.61
-23.24
-16.59
-9.32
-2.17
4.19
9.30
12.93
15.09
15.98
15.93
15.32
14.50
13.74
13.19
12.93
12.96
13.26
13.80
14.51
15.25
15.81
15.97
15.51
14.37
12.59
10.32
7.75
5.07
2.39
-0.24
-2.79
-5.32
-7.88
-10.60
-13.63
-17.04
-20.81
-24.69
-28.19
-30.66
-31.37
-29.82
-25.86
-19.77
-12.30
-4.36
3.12
9.44
14.21
17.37
19.03
19.42
18.78
17.34
15.40
13.31
11.43
10.04
9.26
9.04
9.18
9.45
9.67
9.79
9.78
9.66
9.34
8.72
7.64
6.10
4.20
2.15
0.13
-1.81
-3.87
-6.37
-9.60
-13.59
-17.99
-22.13
-25.20
-26.55
-25.85
-23.16
-18.87
-13.51
-7.71
-2.06
2.89
6.65
8.95
9.79
9.43
8.30
6.89
5.55
4.46
3.69
3.24
3.18
3.57
4.40
5.51
6.66
7.52
7.85
7.57
6.73
5.51
4.03
2.39
0.59
-1.36
-3.50
-5.86
-8.48
-11.46
-14.85
-18.59
-22.41
-25.82
-28.15
-28.75
-27.13
-23.18
-17.28
-10.12
-2.65
4.22
9.82
13.83
16.25
17.30
17.27
16.41
14.88
12.85
10.52
8.21
6.28
5.04
4.63
4.97
5.72
6.45
6.80
6.54
5.68
4.35
2.69
0.82
-1.27
-3.61
-6.21
-9.01
-11.90
-14.80
-17.76
-20.88
-24.32
-27.95
-31.38
-33.85
-34.54
-32.83
-28.59
-22.28
-14.80
-7.19
-0.31
5.36
9.75
12.96
15.14
16.31
16.43
15.52
13.81
11.77
10.04
9.16
9.39
10.66
12.56
14.58
16.26
17.31
17.69
17.43
16.58
15.14
13.12
10.55
7.54
4.29
1.01
-2.13
-5.09
-7.96
-10.93
-14.13
-17.51
-20.75
-23.23
-24.22
-23.14
-19.77
-14.42
-7.84
-0.99
5.25
10.29
13.92
16.15
17.13
16.98
15.84
13.94
11.60
9.28
7.42
6.32
6.05
6.43
7.14
7.84
8.26
8.26
7.79
6.90
5.62
4.04
2.22
0.28
-1.72
-3.69
-5.66
-7.75
-10.14
-13.04
-16.55
-20.49
-24.43
-27.64
-29.34
-28.89
-26.03
-21.01
-14.47
-7.34
-0.50
5.36
9.93
13.11
15.01
15.77
15.53
14.42
12.65
10.46
8.13
5.94
4.12
2.79
2.02
1.76
1.87
2.13
2.23
1.90
0.98
-0.51
-2.36
-4.28
-6.00
-7.49
-8.93
-10.64
-12.97
-16.06
-19.71
-23.41
-26.38
-27.95
-27.61
-25.18
-20.75
-14.68
-7.40
0.49
8.30
15.19
20.39
23.43
24.31
23.57
22.06
20.57
19.52
18.87
18.24
17.28
15.95
14.55
13.54
13.18
13.34
13.48
12.99
11.52
9.12
6.26
3.46
1.09
-0.89
-2.81
-5.13
-8.19
-12.03
-16.40
-20.80
-24.64
-27.32
-28.35
-27.39
-24.33
-19.36
-12.92
-5.72
1.44
7.81
12.85
16.28
18.09
18.49
17.77
16.26
14.31
12.32
10.64
9.53
9.04
9.06
9.31
9.52
9.52
9.28
8.88
8.35
7.67
6.70
5.28
3.37
1.01
-1.59
-4.29
-7.00
-9.85
-13.02
-16.64
-20.59
-24.42
-27.40
-28.68
-27.60
-23.97
-18.14
-10.90
-3.30
3.72
9.54
13.88
16.76
18.30
18.68
18.05
16.62
14.72
12.81
11.37
10.71
10.87
11.59
12.47
13.10
13.28
12.99
12.32
11.36
10.09
8.46
6.44
4.10
1.61
-0.84
-3.13
-5.31
-7.62
-10.33
-13.62
-17.45
-21.44
-24.92
-27.10
-27.31
-25.14
-20.70
-14.50
-7.36
-0.20
6.26
11.49
15.24
17.44
18.15
17.56
15.99
13.85
11.61
9.68
8.35
7.69
7.65
8.07
8.71
9.34
9.77
9.84
9.49
8.65
7.34
5.62
3.63
1.56
-0.43
-2.25
-3.99
-5.91
-8.34
-11.50
-15.33
-19.45
-23.18
-25.74
-26.49
-25.10
-21.59
-16.34
-9.90
-2.98
3.76
9.72
14.46
17.67
19.21
19.18
17.84
15.66
13.20
10.89
9.05
7.78
7.06
6.79
6.90
7.29
7.80
8.15
8.05
7.28
5.82
3.91
1.84
-0.14
-1.98
-3.84
-5.97
-8.54
-11.59
-15.00
-18.53
-21.94
-24.87
-27.04
-28.07
-27.58
-25.25
-20.98
-14.96
-7.73
-0.10
6.98
12.63
16.33
17.94
17.78
16.42
14.49
12.52
10.80
9.46
8.56
8.10
8.11
8.54
9.27
10.11
10.79
11.04
10.62
9.43
7.51
5.07
2.36
-0.29
-2.68
-4.74
-6.58
-8.44
-10.56
-13.20
-16.45
-20.22
-24.23
-27.99
-30.83
-32.11
-31.29
-28.15
-22.85
-15.88
-8.05
-0.25
6.68
12.11
15.70
17.50
17.78
17.03
15.74
14.35
13.14
12.29
11.86
11.83
12.11
12.59
13.10
13.53
13.79
13.89
13.85
13.66
13.22
12.39
11.05
9.16
6.81
4.23
1.64
-0.76
-2.92
-4.92
-6.96
-9.32
-12.27
-15.97
-20.34
-24.94
-29.03
-31.72
-32.18
-30.01
-25.30
-18.67
-11.03
-3.37
3.50
9.09
13.20
15.86
17.21
17.46
16.86
15.73
14.42
13.31
12.67
12.58
12.84
13.11
13.06
12.52
11.58
10.54
9.69
9.14
8.75
8.17
7.06
5.22
2.72
-0.15
-3.01
-5.61
-7.89
-10.00
-12.18
-14.62
-17.43
-20.52
-23.74
-26.82
-29.45
-31.26
-31.82
-30.73
-27.76
-22.96
-16.67
-9.53
-2.25
4.47
10.10
14.35
17.08
18.38
18.44
17.60
16.22
14.64
13.11
11.78
10.74
10.09
9.93
10.32
11.19
12.29
13.23
13.60
13.17
11.91
10.05
7.85
5.54
3.20
0.82
-1.65
-4.21
-6.82
-9.47
-12.23
-15.28
-18.69
-22.31
-25.64
-27.92
-28.38
-26.54
-22.42
-16.57
-9.79
-2.96
3.28
8.57
12.77
15.89
17.96
19.01
19.14
18.53
17.49
16.38
15.63
15.54
16.20
17.45
18.92
20.17
20.88
20.93
20.45
19.65
18.69
17.59
16.22
14.43
12.20
9.64
7.00
4.53
2.36
0.43
-1.49
-3.73
-6.62
-10.34
-14.84
-19.82
-24.74
-28.86
-31.51
-32.10
-30.32
-26.19
-20.08
-12.64
-4.72
2.74
8.98
13.48
16.10
17.02
16.62
15.37
13.69
11.93
10.32
9.06
8.29
8.05
8.25
8.69
9.11
9.26
9.01
8.41
7.59
6.73
5.91
5.03
3.90
2.22
-0.15
-3.16
-6.49
-9.67
-12.28
-14.10
-15.26
-16.20
-17.48
-19.55
-22.54
-26.12
-29.71
-32.53
-33.87
-33.19
-30.27
-25.19
-18.38
-10.51
-2.48
4.87
10.92
15.32
18.09
19.55
20.09
20.12
19.95
19.79
19.84
20.30
21.39
23.23
25.73
28.52
31.02
32.61
32.92
31.97
30.17
28.05
25.99
24.01
21.74
18.78
14.91
10.32
5.53
1.15
-2.45
-5.22
-7.55
-9.94
-12.75
-15.95
-19.05
-21.31
-21.93
-20.39
-16.57
-10.77
-3.59
4.17
11.59
17.79
21.96
23.65
22.93
20.48
17.50
15.29
14.86
16.53
19.91
24.10
28.08
31.04
32.47
32.11
29.77
25.35
18.90
10.83
1.95
-6.71
-14.27
-20.27
-24.68
-27.74
-29.65
-30.37
-29.80
-27.97
-25.37
-22.83
-21.34
-21.57
-23.60
-26.90
-30.52
-33.38
-34.65
-33.83
-30.80
-25.88
-19.70
-13.13
-7.09
-2.32
0.77
2.15
2.09
0.98
-0.87
-3.27
-6.09
-9.20
-12.29
-15.01
-16.98
-18.03
-18.18
-17.62
-16.58
-15.24
-13.71
-12.03
-10.20
-8.14
-5.78
-2.97
0.37
4.27
8.60
13.08
17.31
20.75
22.82
23.11
21.65
19.18
17.14
17.30
21.09
28.95
40.01
52.36
63.74
72.35
77.42
79.19
78.61
76.64
73.95
70.74
66.94
62.44
57.31
51.75
45.95
40.04
33.89
27.35
20.32
12.87
5.21
-2.45
-10.08
-17.85
-26.01
-34.76
-44.00
-53.35
-62.24
-70.15
-76.89
-82.59
-87.70
-92.72
-98.07
-103.85
-109.88
-115.66
-120.38
-123.13
-123.01
-119.42
-112.36
-102.43
-90.63
-78.01
-65.16
-52.00
-38.13
-23.28
-7.91
6.87
19.70
29.66
36.72
41.71
45.78
49.78
53.90
57.77
60.87
62.92
64.08
64.78
65.43
66.34
67.39
68.32
68.71
68.04
65.84
61.78
55.73
47.82
38.17
27.04
14.79
1.98
-10.57
-21.87
-31.13
-37.99
-42.83
-46.50
-49.89
-53.50
-57.18
-60.22
-61.76
-61.20
-58.40
-53.60
-47.24
-39.73
-31.43
-22.82
-14.40
-6.68
-0.13
5.09
9.09
12.15
14.60
16.61
18.19
19.21
19.44
18.64
16.68
13.60
9.64
5.24
1.05
-2.34
-4.51
-5.42
-5.37
-4.90
-4.59
-4.90
-6.10
-8.25
-11.30
-15.13
-19.69
-24.86
-30.48
-36.18
-41.37
-45.31
-47.24
-46.62
-43.28
-37.51
-29.92
-21.29
-12.35
-3.63
4.52
11.83
17.99
22.60
25.25
25.73
24.14
20.98
17.04
13.19
10.17
8.36
7.86
8.42
9.65
11.14
12.54
13.54
13.89
13.39
11.89
9.42
6.16
2.52
-1.09
-4.31
-7.03
-9.41
-11.83
-14.72
-18.33
-22.55
-26.89
-30.53
-32.50
-32.01
-28.63
-22.54
-14.40
-5.24
3.85
11.98
18.54
23.27
26.11
27.17
26.68
25.04
22.78
20.54
18.88
18.14
18.36
19.26
20.41
21.40
21.99
22.16
22.07
21.83
21.44
20.68
19.27
16.95
13.69
9.72
5.43
1.20
-2.74
-6.39
-9.96
-13.74
-17.97
-22.63
-27.46
-31.90
-35.16
-36.51
-35.38
-31.57
-25.32
-17.27
-8.26
0.80
9.11
16.17
21.69
25.63
28.07
29.17
29.06
27.92
25.98
23.57
21.15
19.23
18.15
18.05
18.69
19.61
20.24
20.12
19.08
17.33
15.32
13.63
12.62
12.31
12.27
11.78
10.16
7.00
2.40
-3.09
-8.69
-13.72
-17.72
-20.52
-22.21
-22.98
-23.02
-22.46
-21.29
-19.31
-16.11
-11.26
-4.55
3.84
13.15
22.30
30.24
36.36
40.74
44.16
47.72
52.47
58.99
67.30
76.80
86.39
94.60
99.86
100.93
97.28
89.48
79.04
67.91
57.61
48.57
40.00
30.53
19.17
6.02
-7.62
-19.98
-29.73
-36.71
-41.88
-46.81
-52.84
-60.63
-69.97
-80.08
-89.91
-98.41
-104.62
-107.73
-107.19
-102.85
-95.07
-84.72
-73.01
-61.16
-50.15
-40.56
-32.54
-25.91
-20.38
-15.66
-11.54
-7.89
-4.51
-1.19
2.27
5.88
9.46
12.63
15.03
16.59
17.51
18.15
18.72
19.06
18.69
17.04
13.84
9.36
4.29
-0.63
-5.12
-9.47
-14.49
-21.01
-29.43
-39.43
-50.07
-60.07
-68.18
-73.39
-75.10
-73.10
-67.68
-59.52
-49.75
-39.66
-30.52
-23.12
-17.60
-13.47
-9.97
-6.42
-2.61
1.28
4.78
7.66
10.11
12.79
16.48
21.58
27.81
34.11
39.02
41.24
40.09
35.81
29.28
21.71
14.17
7.52
2.41
-0.63
-1.18
0.75
4.44
8.44
10.91
10.24
5.63
-2.50
-12.71
-22.94
-31.17
-35.79
-35.90
-31.29
-22.45
-10.45
3.27
17.13
29.75
40.27
48.40
54.34
58.51
61.27
62.80
63.13
62.26
60.31
57.57
54.52
51.67
49.38
47.82
46.94
46.49
46.22
45.86
45.25
44.26
42.80
40.78
38.26
35.45
32.78
30.73
29.57
29.18
28.89
27.68
24.53
18.81
10.58
0.59
-9.92
-19.57
-27.22
-32.13
-34.04
-33.08
-29.57
-23.98
-16.82
-8.68
-0.22
7.80
14.52
19.15
21.09
20.02
16.00
9.48
1.30
-7.45
-15.53
-21.81
-25.51
-26.39
-24.74
-21.30
-17.08
-13.05
-9.96
-8.20
-7.78
-8.41
-9.68
-11.22
-12.83
-14.53
-16.51
-18.96
-22.01
-25.63
-29.65
-33.84
-37.96
-41.77
-45.02
-47.43
-48.66
-48.38
-46.32
-42.40
-36.77
-29.74
-21.83
-13.62
-5.73
1.23
6.79
10.63
12.63
12.99
12.14
10.73
9.49
9.11
10.07
12.49
16.08
20.20
24.02
26.78
28.00
27.57
25.71
22.79
19.20
15.30
11.42
7.86
4.90
2.66
0.98
-0.59
-2.64
-5.64
-9.74
-14.68
-20.03
-25.35
-30.33
-34.82
-38.62
-41.31
-42.32
-41.07
-37.23
-30.92
-22.70
-13.47
-4.20
4.29
11.39
16.83
20.57
22.75
23.67
23.58
22.72
21.28
19.51
17.73
16.32
15.56
15.43
15.55
15.34
14.35
12.50
10.23
8.24
7.10
6.92
7.17
7.03
5.81
3.35
0.10
-3.12
