1548368564.00
64.000000
-0.00
-0.00
-0.00
-0.00
-0.00
-0.00
-0.00
-0.00
-0.00
-0.00
0.00
0.01
0.01
-0.00
-0.03
-0.05
-0.05
0.00
0.13
0.36
0.66
1.01
1.37
1.72
2.06
2.40
2.79
3.24
3.80
4.42
5.06
5.66
6.20
6.68
7.15
7.68
8.31
9.14
10.09
11.04
11.88
12.56
13.14
13.76
14.65
15.96
17.91
20.32
22.90
25.38
27.58
29.57
31.68
34.32
37.81
42.54
48.15
54.10
59.83
64.97
69.58
74.14
79.34
85.71
93.76
103.00
112.62
121.73
129.77
136.75
143.30
150.75
157.77
166.64
177.95
191.79
206.97
220.57
228.25
225.36
208.53
176.87
132.76
80.05
23.07
-34.94
-92.44
-149.16
-205.23
-260.37
-313.74
-363.87
-409.83
-450.91
-486.50
-515.74
-537.23
-549.22
-549.96
-538.37
-514.21
-478.67
-433.88
-382.45
-327.02
-269.84
-212.63
-156.66
-102.95
-52.37
-5.90
35.58
71.43
101.35
125.50
144.38
158.69
169.15
176.37
180.75
182.57
182.07
179.51
175.23
169.65
163.18
156.15
148.81
141.30
133.69
126.02
118.33
110.69
103.16
95.80
88.68
81.83
75.25
68.95
62.95
57.25
51.86
46.78
42.03
37.59
33.45
29.61
26.07
22.81
19.83
17.11
14.67
12.48
10.54
8.83
7.35
6.07
4.97
4.05
3.27
2.62
2.09
1.65
1.30
1.01
0.79
0.61
0.48
0.37
0.29
0.24
0.20
0.18
0.17
0.17
0.18
0.20
0.23
0.26
0.30
0.34
0.39
0.43
0.47
0.53
0.57
0.63
0.68
0.74
0.80
0.87
0.94
1.02
1.11
1.21
1.33
1.45
1.59
1.75
1.93
2.12
2.34
2.58
2.85
3.15
3.47
3.83
4.21
4.64
5.10
5.60
6.13
6.70
7.32
7.99
8.69
9.44
10.24
11.08
11.97
12.90
13.88
14.93
16.03
17.21
18.44
19.71
21.00
22.25
23.39
24.33
24.95
25.12
24.74
23.69
21.94
19.46
16.30
12.51
8.27
3.75
-0.83
-5.26
-9.34
-12.90
-15.79
-17.95
-19.34
-19.98
-19.95
-19.35
-18.28
-16.86
-15.19
-13.34
-11.38
-9.39
-7.42
-5.53
-3.76
-2.09
-0.46
1.22
3.00
4.95
7.07
9.38
11.75
14.12
16.47
18.87
21.40
24.11
27.03
30.17
33.54
36.84
39.95
42.93
45.92
49.14
52.75
56.78
61.16
65.80
70.08
73.78
76.97
79.99
83.29
87.16
91.62
96.35
100.89
104.14
105.54
105.08
103.14
100.18
96.16
90.11
79.75
66.84
51.04
32.29
11.19
-11.13
-33.32
-54.38
-73.95
-92.35
-110.28
-129.41
-151.22
-176.90
-206.75
-239.35
-271.12
-296.47
-309.30
-305.12
-283.46
-247.88
-204.81
-161.34
-122.87
-91.93
-68.39
-50.81
-37.71
-28.48
-22.69
-19.55
-17.55
-14.79
-9.74
-1.85
8.23
18.94
28.37
35.18
38.93
40.11
39.66
38.51
37.25
35.99
34.49
32.43
29.57
25.97
21.82
17.44
13.09
9.00
5.25
1.78
-1.61
-5.24
-9.40
-14.29
-19.98
-26.44
-33.52
-40.86
-47.76
-53.01
-55.03
-52.21
-43.54
-29.11
-10.30
10.53
30.66
47.78
60.50
68.43
71.98
71.91
69.08
64.37
58.61
52.64
47.26
43.15
40.64
39.71
40.00
40.99
42.09
42.82
42.79
41.69
39.33
35.66
30.87
25.40
19.78
14.50
9.79
5.62
1.69
-2.34
-6.73
-11.51
-16.47
-21.34
-25.86
-29.96
-33.73
-37.54
-41.85
-47.16
-53.74
-61.48
-69.59
-76.63
-80.66
-79.74
-72.56
-58.95
-40.10
-18.29
3.75
23.57
39.52
50.95
57.91
60.90
60.55
57.51
52.63
46.93
41.59
37.66
35.81
36.07
37.92
40.41
42.60
43.76
43.60
42.19
39.88
37.01
33.81
30.35
26.58
22.50
18.27
14.13
10.31
6.88
3.61
0.08
-4.14
-9.26
-15.07
-21.07
-26.61
-31.23
-34.84
-37.82
-40.87
-44.78
-50.20
-57.31
-65.61
-73.79
-79.87
-81.66
-77.37
-66.31
-49.27
-28.36
-6.42
13.88
30.63
43.03
51.16
55.46
56.44
54.57
50.40
44.85
39.15
34.62
32.12
31.80
32.98
34.58
35.60
35.56
34.51
32.85
30.95
28.88
26.45
23.43
19.71
15.45
10.92
6.33
1.68
-3.20
-8.49
-14.26
-20.33
-26.34
-31.88
-36.65
-40.54
-43.71
-46.54
-49.55
-53.33
-58.35
-64.80
-72.31
-79.86
-85.75
-87.95
-84.67
-75.03
-59.40
-39.52
-18.00
2.43
19.63
32.47
40.80
45.17
46.31
44.94
41.69
37.27
32.58
28.61
26.28
26.04
27.71
30.51
33.35
35.20
35.47
34.10
31.42
27.94
24.09
20.13
16.11
12.00
7.78
3.45
-0.93
-5.29
-9.49
-13.42
-16.93
-19.99
-22.74
-25.46
-28.60
-32.59
-37.72
-43.87
-50.48
-56.42
-60.25
-60.47
-56.04
-46.66
-32.96
-16.33
1.36
18.25
32.74
43.64
50.26
52.36
50.25
44.76
37.24
29.30
22.49
17.97
16.19
16.91
19.31
22.33
24.95
26.43
26.41
24.92
22.21
18.61
14.35
9.57
4.30
-1.40
-7.34
-13.18
-18.57
-23.25
-27.21
-30.71
-34.24
-38.33
-43.47
-49.94
-57.67
-66.15
-74.31
-80.53
-82.89
-79.66
-69.91
-53.96
-33.49
-11.18
10.07
27.88
40.95
49.09
52.96
53.52
51.70
48.25
43.76
38.93
34.53
31.37
29.99
30.42
32.07
33.96
34.91
34.10
31.32
27.05
22.13
17.49
13.58
10.30
7.00
2.91
-2.41
-8.81
-15.58
-21.77
-26.77
-30.52
-33.74
-37.45
-42.60
-49.69
-58.57
-68.52
-78.44
-86.94
-92.47
-93.44
-88.51
-76.95
-59.14
-36.68
-12.18
11.47
31.77
47.30
57.78
63.87
66.58
66.90
65.57
63.19
60.29
57.48
55.38
54.35
54.43
55.23
56.13
56.57
56.21
54.99
53.04
50.52
47.43
43.70
39.26
34.21
28.81
23.45
18.45
13.84
9.39
4.68
-0.66
-6.73
-13.23
-19.62
-25.31
-30.01
-33.89
-37.61
-42.09
-48.21
-56.42
-66.41
-76.93
-85.92
-90.86
-89.50
-80.56
-64.24
-42.28
-17.54
6.80
28.09
44.79
56.52
63.81
67.56
68.63
67.77
65.60
62.77
59.98
57.86
56.78
56.75
57.38
58.07
58.24
57.53
55.93
53.72
51.23
48.73
46.26
43.65
40.61
36.94
32.57
27.65
22.52
17.56
13.14
9.41
6.32
3.56
0.63
-2.98
-7.61
-13.27
-19.58
-25.89
-31.57
-36.26
-39.99
-43.16
-46.34
-50.10
-54.92
-61.13
-68.79
-77.53
-86.26
-93.17
-95.96
-92.54
-81.80
-64.19
-41.77
-17.61
5.12
24.04
38.05
47.32
52.74
55.40
56.21
55.70
54.24
52.21
50.12
48.56
47.92
48.31
49.38
50.58
51.32
51.28
50.43
48.98
47.13
44.95
42.36
39.23
35.60
31.68
27.78
24.17
20.92
17.87
14.71
11.20
7.26
3.03
-1.26
-5.31
-9.06
-12.62
-16.21
-20.07
-24.28
-28.68
-32.97
-36.83
-40.19
-43.25
-46.44
-50.31
-55.30
-61.53
-68.73
-75.99
-81.93
-84.79
-82.86
-75.07
-61.42
-43.14
-22.47
-2.04
15.81
29.61
38.89
44.02
45.89
45.41
43.38
40.45
37.14
34.00
31.58
30.35
30.51
31.90
33.97
36.00
37.33
37.60
36.84
35.30
33.26
30.87
28.12
24.99
21.55
18.01
14.64
11.58
8.79
6.06
3.15
0.02
-3.27
-6.54
-9.68
-12.77
-15.97
-19.44
-23.15
-26.92
-30.42
-33.38
-35.75
-37.68
-39.56
-41.81
-44.88
-49.01
-54.18
-59.95
-65.40
-69.21
-69.94
-66.43
-58.19
-45.63
-30.00
-13.13
3.13
17.23
28.18
35.58
39.48
40.26
38.49
34.93
30.43
25.86
22.00
19.38
18.25
18.55
19.94
21.87
23.74
25.00
25.29
24.58
23.10
21.24
19.36
17.59
15.78
13.62
10.87
7.51
3.82
0.27
-2.69
-4.84
-6.27
-7.36
-8.58
-10.29
-12.66
-15.57
-18.71
-21.77
-24.49
-26.84
-28.93
-30.93
-33.08
-35.56
-38.54
-42.21
-46.66
-51.75
-56.87
-60.91
-62.36
-59.81
-52.44
-40.46
-25.17
-8.63
6.99
20.01
29.56
35.55
38.35
38.45
36.30
32.35
27.27
21.93
17.32
14.28
13.19
13.85
15.62
17.66
19.29
20.09
20.03
19.31
18.24
17.08
15.90
14.62
13.04
10.93
8.23
5.08
1.78
-1.37
-4.16
-6.64
-9.03
-11.59
-14.45
-17.59
-20.84
-24.06
-27.16
-30.12
-32.93
-35.53
-37.90
-40.06
-42.19
-44.64
-47.82
-52.06
-57.38
-63.27
-68.68
-72.12
-72.02
-67.25
-57.53
-43.64
-27.23
-10.31
5.27
18.26
28.06
34.58
38.02
38.71
37.13
33.97
30.07
26.41
23.79
22.72
23.27
25.08
27.49
29.71
31.10
31.31
30.38
28.66
26.56
24.39
22.19
19.84
17.13
14.05
10.71
7.36
4.24
1.44
-1.07
-3.42
-5.75
-8.15
-10.66
-13.34
-16.20
-19.29
-22.61
-26.08
-29.56
-32.85
-35.88
-38.66
-41.42
-44.52
-48.39
-53.36
-59.40
-66.00
-72.04
-76.01
-76.36
-71.93
-62.40
-48.41
-31.44
-13.42
3.77
18.66
30.37
38.60
43.43
45.21
44.36
41.47
37.25
32.58
28.37
25.44
24.34
25.12
27.38
30.32
32.99
34.68
35.10
34.43
33.14
31.72
30.39
29.05
27.31
24.81
21.40
17.27
12.85
8.65
5.01
2.01
-0.56
-2.99
-5.57
-8.47
-11.68
-15.08
-18.57
-22.21
-26.10
-30.32
-34.80
-39.35
-43.73
-47.92
-52.27
-57.34
-63.53
-70.50
-76.98
-80.91
-80.15
-73.33
-60.48
-43.21
-24.03
-5.51
10.51
23.24
32.74
39.37
43.38
44.72
43.34
39.49
34.06
28.41
24.02
21.97
22.59
25.38
29.24
32.98
35.65
36.87
36.74
35.66
34.15
32.50
30.73
28.68
26.11
22.88
19.07
14.95
10.89
7.19
3.96
1.11
-1.59
-4.39
-7.44
-10.77
-14.35
-18.03
-21.71
-25.35
-28.97
-32.62
-36.46
-40.62
-45.29
-50.64
-56.81
-63.65
-70.62
-76.57
-79.86
-78.80
-72.14
-59.74
-42.68
-23.08
-3.43
14.12
28.19
38.26
44.41
46.99
46.46
43.40
38.58
33.04
27.95
24.37
22.97
23.83
26.50
30.07
33.55
36.08
37.22
36.90
35.42
33.21
30.63
27.90
25.02
21.92
18.47
14.70
10.77
6.99
3.73
1.28
-0.33
-1.42
-2.57
-4.50
-7.67
-12.17
-17.65
-23.46
-29.02
-33.93
-38.19
-42.03
-45.80
-49.88
-54.48
-59.59
-64.84
-69.36
-71.87
-70.94
-65.47
-55.17
-40.76
-23.86
-6.47
9.64
23.31
34.04
41.86
46.90
49.25
48.92
46.05
41.11
34.94
28.66
23.42
20.04
18.88
19.76
22.14
25.31
28.51
31.09
32.42
31.88
28.97
23.44
15.52
6.05
-3.69
-12.26
-18.55
-22.20
-23.66
-23.97
-24.22
-25.03
-26.22
-26.87
-25.76
-22.00
-15.50
-7.20
1.30
8.25
12.37
13.21
11.10
6.95
2.07
-2.05
-3.74
-1.41
6.15
19.25
37.02
57.35
77.46
94.67
107.11
114.09
115.88
113.23
106.89
97.36
85.23
71.40
57.32
44.74
35.23
29.57
27.49
27.81
29.02
29.83
29.63
28.45
26.61
24.35
21.60
18.06
13.50
8.04
2.15
-3.41
-8.03
-11.46
-13.93
-16.03
-18.35
-21.27
-24.71
-28.24
-31.31
-33.51
-34.79
-35.61
-36.76
-39.17
-43.56
-50.12
-58.20
-66.34
-72.43
-74.25
-70.17
-59.67
-43.65
-24.19
-3.95
14.60
29.73
40.74
47.71
51.12
51.54
49.42
45.26
39.76
33.88
28.68
25.04
23.41
23.64
25.16
27.17
28.89
29.77
29.51
28.02
25.34
21.64
17.14
12.10
6.78
1.43
-3.76
-8.67
-13.30
-17.73
-22.09
-26.49
-30.94
-35.33
-39.50
-43.38
-47.11
-51.09
-55.85
-61.68
-68.41
-75.08
-80.13
-81.70
-78.21
-68.96
-54.33
-35.81
-15.54
4.21
21.56
35.30
44.91
50.42
52.17
50.69
46.65
40.95
34.63
28.89
24.76
22.83
23.10
24.89
27.13
28.79
29.19
28.17
25.97
23.00
19.50
15.48
10.81
5.36
-0.84
-7.54
-14.34
-20.88
-26.84
-32.09
-36.65
-40.75
-44.78
-49.30
-54.85
-61.82
-70.12
-79.03
-87.05
-92.17
-92.33
-86.03
-72.89
-53.89
-31.23
-7.65
14.26
32.74
47.07
57.44
64.45
68.65
70.38
69.89
67.56
64.19
60.89
58.76
58.47
59.93
62.32
64.40
64.99
63.38
59.54
53.94
47.34
40.44
33.67
27.10
20.63
14.10
7.50
1.02
-5.03
-10.31
-14.70
-18.29
-21.42
-24.54
-28.07
-32.43
-37.97
-44.98
-53.49
-62.99
-72.24
-79.26
-81.83
-78.13
-67.51
-50.83
-30.28
-8.72
11.17
27.52
39.55
47.27
51.13
51.64
49.34
44.90
39.29
33.75
29.49
27.37
27.53
29.50
32.30
34.98
36.81
37.47
36.94
35.30
32.68
29.20
25.11
20.81
16.79
13.40
10.70
8.33
5.63
1.93
-3.20
-9.70
-17.08
-24.57
-31.42
-37.17
-41.70
-45.33
-48.58
-52.08
-56.34
-61.54
-67.24
-72.30
-75.05
-73.61
-66.58
-53.52
-35.29
-13.86
8.17
28.32
44.74
56.50
63.58
66.56
66.34
63.89
60.13
55.85
51.69
48.15
45.57
44.15
43.86
44.53
45.78
47.17
48.24
48.63
48.11
46.55
43.92
40.18
35.35
29.56
23.10
16.44
10.11
4.53
-0.18
-4.31
-8.40
-12.97
-18.23
-23.94
-29.50
-34.29
-38.00
-40.99
-44.10
-48.36
-54.54
-62.70
-71.95
-80.63
-86.64
-88.08
-83.72
-73.33
-57.77
-38.69
-18.17
1.71
19.18
32.90
42.08
46.46
46.39
42.69
36.58
29.43
22.51
16.71
12.59
10.37
10.06
11.44
14.12
17.43
20.59
22.74
23.29
22.03
19.21
15.37
11.12
6.90
2.85
-1.19
-5.49
-10.24
-15.37
-20.57
-25.37
-29.37
-32.42
-34.80
-37.09
-40.01
-44.19
-49.90
-56.91
-64.44
-71.15
-75.35
-75.35
-69.88
-58.54
-42.07
-22.25
-1.49
17.86
33.96
45.82
53.20
56.33
55.73
52.04
46.10
38.98
31.97
26.30
22.92
22.18
23.83
27.07
30.80
33.99
35.87
36.06
34.61
31.85
28.22
24.18
20.06
15.97
11.87
7.58
2.87
-2.32
-7.89
-13.55
-18.88
-23.57
-27.55
-31.04
-34.56
-38.72
-44.11
-51.06
-59.45
-68.51
-76.78
-82.28
-82.93
-77.26
-64.88
-46.84
-25.33
-3.15
17.15
33.75
45.84
53.46
57.07
57.29
54.74
50.14
44.36
38.46
33.47
30.19
28.92
29.41
31.04
33.06
34.88
36.15
36.72
36.46
35.21
32.78
29.09
24.33
18.90
13.28
7.83
2.65
-2.46
-7.76
-13.36
-19.14
-24.73
-29.73
-33.93
-37.44
-40.64
-44.06
-48.23
-53.59
-60.32
-68.21
-76.45
-83.64
-87.81
-86.97
-79.72
-65.83
-46.50
-24.13
-1.63
18.37
34.19
45.18
51.59
54.13
53.54
50.57
45.96
40.61
35.55
31.78
29.99
30.30
32.19
34.75
37.05
38.48
38.89
38.50
37.56
36.16
34.07
30.99
26.76
21.55
15.93
10.58
6.02
2.30
-1.01
-4.54
-8.82
-13.97
-19.65
-25.23
-30.15
-34.18
-37.60
-41.00
-45.14
-50.63
-57.72
-66.10
-74.88
-82.49
-87.01
-86.52
-79.66
-66.18
-47.17
-24.89
-2.17
18.37
34.86
46.51
53.38
56.11
55.52
52.44
47.71
42.29
37.13
33.16
31.02
30.85
32.24
34.45
36.64
38.23
39.03
39.14
38.73
37.89
36.40
33.96
30.31
25.53
20.08
14.63
9.84
5.97
2.86
-0.01
-3.23
-7.17
-11.79
-16.74
-21.52
-25.81
-29.54
-32.97
-36.53
-40.64
-45.65
-51.70
-58.64
-65.89
-72.30
-76.22
-75.83
-69.71
-57.44
-39.93
-19.33
1.62
20.36
35.14
45.26
50.91
52.69
51.30
47.40
41.70
35.08
28.68
23.65
20.84
20.53
22.30
25.28
28.45
31.07
32.76
33.50
33.41
32.50
30.65
27.64
23.43
18.19
12.38
6.59
1.32
-3.18
-6.99
-10.40
-13.79
-17.35
-21.09
-24.81
-28.21
-31.08
-33.45
-35.60
-38.12
-41.70
-46.96
-54.18
-63.00
-72.30
-80.26
-84.64
-83.53
-75.82
-61.73
-42.82
-21.49
-0.36
18.40
33.37
43.99
50.26
52.52
51.30
47.35
41.69
35.56
30.26
26.75
25.54
26.47
28.94
32.18
35.46
38.31
40.47
41.75
41.95
40.90
38.49
34.80
30.09
24.75
19.16
13.60
8.19
2.90
-2.40
-7.87
-13.54
-19.33
-25.01
-30.26
-34.82
-38.55
-41.64
-44.51
-47.77
-52.05
-57.68
-64.49
-71.56
-77.40
-80.12
-78.05
-70.25
-56.95
-39.53
-20.17
-1.23
15.30
28.20
36.99
41.75
42.84
40.72
36.00
29.54
22.48
16.17
11.91
10.58
12.44
16.97
23.12
29.55
35.04
38.79
40.49
40.33
38.79
36.35
33.35
29.92
26.10
22.01
17.89
14.02
10.57
7.43
4.20
0.36
-4.41
-10.07
-16.28
-22.59
-28.79
-35.08
-41.90
-49.55
-57.74
-65.37
-70.64
-71.65
-66.98
-56.35
-40.71
-22.05
-2.83
14.76
29.17
39.72
46.33
49.26
48.83
45.38
39.44
31.96
24.24
17.76
13.72
12.71
14.40
17.83
21.69
24.88
26.72
27.07
26.10
24.05
21.13
17.42
13.01
8.05
2.75
-2.63
-7.90
-12.94
-17.74
-22.23
-26.38
-30.15
-33.67
-37.23
-41.22
-46.05
-51.94
-58.76
-66.07
-72.97
-78.27
-80.54
-78.41
-70.95
-58.08
-40.71
-20.75
-0.54
17.63
32.13
42.21
47.84
49.51
47.88
43.67
37.74
30.97
24.43
19.13
15.93
15.27
17.05
20.55
24.63
27.91
29.34
28.49
25.67
21.74
17.70
14.17
11.19
8.24
4.66
0.08
-5.32
-10.92
-15.98
-20.02
-23.08
-25.68
-28.56
-32.42
-37.60
-44.14
-51.69
-59.57
-66.69
-71.69
-73.02
-69.38
-60.15
-45.69
-27.44
-7.53
11.72
28.39
41.28
49.92
54.41
55.13
52.64
47.71
41.40
35.00
29.89
27.15
27.23
29.75
33.64
37.60
40.48
41.68
41.14
39.16
36.11
32.15
27.30
21.45
14.68
7.26
-0.35
-7.60
-14.07
-19.55
-24.09
-28.04
-31.90
-36.26
-41.69
-48.55
-56.83
-65.93
-74.55
-80.89
-82.90
-78.96
-68.42
-51.87
-31.13
-8.80
12.46
30.47
43.88
52.28
55.85
55.23
51.21
44.78
37.10
29.43
23.04
18.88
17.38
18.28
20.72
23.59
25.88
27.05
26.99
25.95
24.16
21.62
18.07
13.18
6.81
-0.76
-8.86
-16.67
-23.48
-29.02
-33.45
-37.27
-41.03
-45.09
-49.44
-53.58
-56.61
-57.37
-54.77
-48.07
-37.21
-22.93
-6.64
9.87
24.85
36.96
45.45
50.14
51.30
49.41
45.18
39.50
33.45
28.14
24.53
23.11
23.75
25.74
28.07
29.77
30.29
29.51
27.60
24.80
21.18
16.69
11.28
5.13
-1.31
-7.39
-12.53
-16.39
-19.08
-21.08
-23.12
-26.03
-30.42
-36.44
-43.63
-50.72
-55.94
-57.41
-53.77
-44.67
-30.97
-14.53
2.38
17.69
30.03
38.85
44.23
46.57
46.37
44.15
40.51
36.20
32.05
28.76
26.72
25.82
25.64
25.58
25.16
24.19
22.75
21.03
19.17
17.03
14.33
10.85
6.66
2.30
-1.40
-3.63
-4.07
-3.19
-2.22
-2.76
-6.24
-13.45
-24.19
-37.25
-50.61
-61.83
-68.55
-69.06
-62.76
-50.31
-33.65
-15.46
1.40
14.65
22.99
26.33
25.58
22.21
17.79
13.64
10.75
9.76
11.04
14.68
20.38
27.35
34.40
40.22
43.82
44.82
43.58
40.79
37.08
32.68
27.33
20.62
12.35
2.85
-7.03
-16.13
-23.51
-28.74
-32.05
-34.18
-36.17
-38.92
-43.00
-48.52
-55.02
-61.49
-66.45
-68.15
-65.06
-56.35
-42.29
-24.32
-4.74
13.95
29.71
41.41
48.86
52.52
53.14
51.47
48.19
44.02
39.85
36.59
35.03
35.52
37.76
40.89
43.71
45.19
44.70
42.30
38.56
34.28
30.09
26.23
22.44
18.19
13.05
6.96
0.35
-6.08
-11.71
-16.30
-20.18
-24.06
-28.71
-34.69
-42.19
-51.10
-61.00
-71.14
-80.36
-86.92
-88.85
-84.44
-72.87
-54.75
-32.10
-7.81
15.16
34.46
48.76
57.62
61.23
60.15
55.17
47.42
38.32
29.46
22.26
17.61
15.71
16.20
18.40
21.52
24.88
27.84
29.83
30.36
29.22
26.51
22.66
18.19
13.47
8.59
3.43
-2.15
-8.08
-14.08
-19.84
-25.15
-30.04
-34.69
-39.28
-43.91
-48.62
-53.57
-59.01
-65.14
-71.73
-77.82
-81.75
-81.57
-75.74
-63.78
-46.53
-26.01
-4.73
14.95
31.34
43.58
51.48
55.27
55.38
52.41
47.19
40.77
34.38
29.23
26.13
25.39
26.73
29.43
32.60
35.36
36.99
36.93
34.91
30.90
25.14
18.15
10.52
2.76
-4.75
-11.89
-18.60
-24.79
-30.29
-34.99
-38.87
-42.21
-45.47
-49.15
-53.59
-58.90
-64.98
-71.58
-78.38
-84.83
-90.04
-92.70
-91.22
-84.14
-70.68
-51.20
-27.27
-1.36
23.81
45.92
63.48
75.91
83.32
86.17
85.05
80.63
73.68
65.16
56.11
47.47
39.81
33.31
27.69
22.57
17.59
12.74
8.25
4.46
1.59
-0.41
-1.85
-3.14
-4.56
-6.16
-7.81
-9.24
-10.25
-10.79
-10.87
-10.48
-9.51
-7.73
-5.04
-1.54
2.24
5.41
6.98
6.25
3.16
-1.48
-6.08
-8.67
-7.48
-1.51
9.15
23.32
39.06
54.20
66.93
76.05
81.14
82.36
80.21
75.32
68.31
59.84
50.54
41.20
32.70
25.94
21.59
19.91
20.53
22.54
24.57
25.23
23.46
18.87
11.87
3.50
-4.97
-12.57
-18.93
-24.35
-29.64
-35.80
-43.58
-53.07
-63.75
-74.67
-84.84
-93.57
-100.74
-106.87
-113.14
-120.95
-131.29
-144.18
-158.38
-171.53
-180.63
-183.22
-178.30
-167.32
-153.40
-139.76
-128.28
-118.71
-108.97
-95.96
-76.60
-48.85
-13.24
27.87
70.82
110.93
142.90
162.04
166.33
158.11
144.04
131.36
125.99
130.14
141.22
152.53
155.91
145.35
119.35
80.81
33.20
-19.49
-73.23
-124.21
-169.29
-206.22
-233.51
-250.30
-245.09
-212.64
-158.10
-95.66
-39.18
4.54
35.44
56.64
71.66
82.81
89.13
89.32
83.88
75.94
69.88
69.24
75.20
86.10
98.06
105.07
102.79
90.75
72.54
53.61
38.42
28.97
24.75
23.90
23.50
21.68
18.26
14.60
12.40
12.70
15.64
20.60
26.43
31.62
35.13
37.10
38.68
41.23
45.29
50.09
53.88
54.88
52.10
46.09
38.84
32.61
29.02
28.13
28.68
28.70
26.57
21.62
14.48
6.91
0.54
-3.37
-4.70
-4.56
-4.77
-7.18
-12.95
-22.06
-33.13
-43.87
-51.56
-53.94
-50.19
-41.37
-30.40
-20.58
-15.37
-15.63
-19.61
-23.84
-25.07
-21.94
-15.69
-9.46
-6.60
-9.08
-16.38
-26.03
-34.83
-40.08
-40.59
-36.88
-30.81
-24.37
-18.99
-15.10
-12.33
-10.22
-8.68
-7.89
-8.18
-9.43
-11.02
-11.96
-11.45
-9.32
-6.28
-3.47
-2.02
-2.50
-4.79
-8.18
-11.73
-14.63
-16.49
-17.40
-17.82
-18.42
-19.64
-21.41
-23.32
-24.66
-24.84
-23.60
-21.10
-17.74
-13.85
-9.51
-4.47
1.72
9.27
17.97
27.06
35.53
42.47
47.38
50.40
52.18
53.48
55.03
57.34
60.70
64.98
69.31
71.97
70.60
63.11
48.89
29.49
8.46
-10.03
-22.88
-29.17
-30.20
-28.28
-25.30
-21.93
-17.87
-12.77
-7.10
-2.21
0.36
-0.17
-3.39
-8.00
-12.57
-16.07
-18.19
-19.07
-19.02
-18.36
-17.46
-16.76
-16.66
-17.29
-18.34
-19.16
-19.12
-18.14
-16.81
-16.11
-16.88
-19.21
-22.35
-25.04
-26.18
-25.36
-23.11
-20.45
-18.39
-17.37
-17.09
-16.74
-15.63
-13.52
-10.78
-8.22
-6.58
-6.07
-6.24
-6.15
-4.92
-2.18
1.68
5.83
9.48
12.42
15.16
18.59
23.36
29.32
35.44
40.25
42.53
41.89
38.91
34.66
30.13
25.80
21.62
17.32
12.72
7.81
2.53
-3.51
-11.00
-20.54
-32.22
-45.29
-58.33
-69.80
-78.68
-84.71
-88.21
-89.67
-89.49
-88.04
-85.96
-84.15
-83.44
-83.80
-83.83
-81.09
-73.18
-59.18
-40.26
-19.15
1.44
20.11
37.18
53.72
70.11
85.28
97.18
104.22
106.50
105.97
105.19
105.68
106.92
106.90
103.59
96.58
87.52
79.09
73.45
70.91
69.90
68.11
64.02
57.95
51.76
47.74
47.29
50.11
54.59
58.82
61.59
62.73
62.61
61.17
57.51
50.25
38.65
23.73
8.48
-3.15
-8.03
-5.53
2.04
10.37
15.12
13.77
6.47
-4.43
-15.78
-25.05
-31.19
-34.44
-35.62
-35.48
-34.39
-32.47
-30.08
-27.95
-27.09
-28.26
-31.53
-36.04
-40.27
-42.57
-42.02
-38.77
-34.14
-30.11
-28.50
-30.23
-34.99
-41.43
-47.78
-52.64
-55.37
-56.14
-55.55
-54.24
-52.48
-50.18
-46.99
-42.60
-36.95
-30.47
-23.95
-18.48
-15.05
-14.19
-15.66
-18.46
-21.22
-22.87
-23.06
-22.32
-21.70
-22.04
-23.43
-25.14
-26.00
-25.12
-22.31
-18.08
-13.18
-8.06
-2.52
4.05
12.13
21.44
30.81
38.44
42.66
42.64
38.87
32.97
27.25
23.80
23.81
27.16
32.54
37.89
41.21
41.14
37.40
30.67
22.35
14.16
7.72
4.23
4.15
6.97
11.19
14.63
15.13
11.37
3.49
-7.01
-17.89
-27.15
-33.87
-38.36
-41.73
-45.06
-48.70
-52.05
-53.95
-53.28
-49.60
-43.26
-35.20
-26.49
-17.89
-9.63
-1.60
6.44
14.39
21.92
28.50
33.65
37.26
39.56
41.07
42.26
43.38
44.33
44.81
44.58
43.75
42.84
42.62
43.69
46.01
48.92
51.28
52.09
50.95
48.23
44.86
41.88
39.92
39.02
38.73
38.44
37.55
35.65
32.45
27.84
21.82
14.64
6.85
-0.76
-7.32
-12.04
-14.34
-13.87
-10.61
-4.76
3.16
12.42
22.06
31.16
38.94
44.98
49.11
51.48
52.55
53.18
54.63
58.44
65.88
77.28
91.55
106.32
118.71
126.57
129.46
128.89
127.63
128.38
132.48
139.35
146.56
150.77
148.76
138.36
119.01
91.78
59.12
24.12
-10.24
-41.76
-69.28
-92.61
-112.19
-128.76
-143.32
-156.89
-170.25
-183.32
-194.85
-202.76
-205.10
-201.14
-191.75
-179.04
-165.11
-151.03
-136.80
-122.12
-107.69
-95.56
-88.52
-88.57
-95.67
-107.60
-120.99
-132.80
-141.24
-146.05
-147.93
-148.01
-147.18
-145.51
-142.07
-135.25
-123.50
-106.62
-86.28
-65.74
-48.79
-38.04
-33.95
-34.58
-36.63
-36.57
-31.63
-20.72
-4.37
15.37
35.38
52.22
62.96
66.02
61.29
49.82
33.38
14.41
-3.86
-17.33
-21.77
-14.15
5.97
35.93
70.91
105.60
135.89
159.39
175.46
184.35
186.95
184.86
180.41
176.51
175.65
179.02
185.70
193.11
198.24
198.84
194.41
186.17
176.31
166.97
159.00
151.19
140.20
121.44
90.69
46.29
-9.57
-70.78
-128.96
-176.07
-206.87
-220.03
-217.60
-203.56
-182.21
-157.59
-133.36
-112.96
-99.39
-94.24
-97.14
-105.70
-116.38
-125.73
-131.68
-133.81
-133.11
-131.18
-129.30
-128.07
-127.39
-126.74
-125.29
-122.02
-115.82
-105.77
-91.59
-73.92
-54.60
-36.05
-20.58
-9.59
-3.57
-2.25
-5.32
-12.51
-23.11
-35.18
-45.43
-50.01
-46.23
-34.14
-16.97
-0.04
11.57
15.11
11.11
2.70
-6.16
-12.65
-16.12
-17.84
-19.72
-22.94
-27.21
-31.11
-33.48
-34.66
-36.69
-42.20
-52.58
-66.55
-80.30
-89.12
-89.81
-82.05
-68.29
-52.18
-36.70
-23.18
-11.51
-1.05
8.52
17.05
24.25
30.07
34.66
38.31
41.27
43.93
46.89
50.86
56.22
62.57
68.67
72.93
73.96
70.96
63.72
52.41
37.69
21.21
6.04
-3.51
-3.20
9.48
33.95
66.60
102.13
135.32
162.27
180.51
188.38
184.48
167.90
139.01
100.24
55.91
11.00
-30.35
-65.74
-94.40
-116.12
-130.00
-134.19
-126.73
-106.81
-75.43
-35.21
10.43
58.05
104.33
145.65
177.97
197.47
201.72
190.98
168.51
139.96
111.75
89.56
77.23
76.22
85.57
102.21
121.67
139.28
151.56
157.37
158.05
156.42
155.17
155.74
158.00
161.09
164.38
168.13
172.89
178.65
184.03
186.43
183.09
172.49
155.40
134.56
113.55
95.00
79.73
66.78
54.28
40.62
25.03
7.60
-11.17
-30.77
-50.94
-71.10
-90.13
-106.40
-118.43
-125.67
-128.86
-129.82
-130.81
-133.96
-140.06
-148.17
-155.94
-160.73
-160.69
-155.23
-145.04
-131.60
-117.60
-105.48
-96.82
-92.37
-92.35
-96.32
-102.66
-108.61
-111.12
-110.03
-106.47
-101.77
-96.64
-91.36
-85.84
-79.50
-71.77
-62.60
-55.85
-54.80
-59.65
-67.31
-73.74
-76.35
-74.81
-71.20
-69.41
-77.78
-101.98
-141.46
-189.79
-238.47
-281.08
-314.30
-337.73
-328.21
-276.23
-192.82
-102.96
-26.62
29.69
67.78
91.84
104.88
108.18
97.94
73.10
38.19
0.72
-29.74
-47.56
-51.55
-44.18
-29.74
-16.23
-8.67
-7.36
-8.18
-5.99
2.05
16.67
36.32
57.36
73.62
82.53
82.85
77.52
70.74
64.10
56.39
44.97
33.75
22.89
14.60
11.73
16.26
28.07
40.86
50.72
57.11
63.30
73.36
91.04
116.77
147.21
176.49
198.89
212.32
218.53
221.11
221.79
219.66
211.50
195.08
171.91
147.77
130.98
127.33
136.90
153.30
167.49
171.89
163.71
145.49
123.12
103.19
90.00
84.49
84.22
85.25
84.04
79.08
71.67
65.05
62.75
66.42
75.00
85.54
95.06
101.86
105.89
107.92
108.72
108.80
108.38
107.75
106.87
104.98
100.46
91.29
76.20
55.39
30.61
4.21
-22.17
-48.28
-75.22
-104.56
-137.59
-174.76
-215.67
-258.94
-301.92
-340.51
-369.44
-383.56
-379.54
-357.40
-321.11
-277.33
-233.07
-193.22
-159.32
-130.50
-105.43
-84.15
-68.70
-61.71
-64.49
-75.63
-91.17
-106.33
-117.71
-124.49
-127.88
-129.27
-128.36
-122.58
-108.44
-84.03
-50.83
-13.93
19.57
43.48
54.85
55.17
49.48
44.23
44.71
53.30
68.88
87.58
104.37
114.68
115.94
107.97
92.71
73.23
52.26
31.16
9.64
-13.53
-39.44
-68.02
-97.83
-126.56
-152.00
-172.81
-188.63
-199.69
-206.22
-208.16
-205.32
-197.62
-185.30
-168.48
-146.84
-119.63
-86.84
-50.85
-17.47
4.77
7.82
-12.02
-51.63
-101.95
-152.09
-194.26
-226.48
-251.73
-274.29
-296.19
-316.17
-331.27
-339.73
-342.59
-342.86
-342.98
-342.67
-338.71
-326.92
-304.55
-271.91
-232.09
-189.30
-147.23
-107.87
-71.60
-37.84
-5.99
23.98
51.46
75.87
97.44
117.41
137.56
159.08
181.75
204.02
223.93
240.37
253.49
264.19
272.96
279.02
280.62
276.10
265.28
249.81
232.36
215.08
198.55
181.72
162.94
141.36
117.60
93.58
71.52
53.03
38.68
28.41
22.21
20.62
24.70
35.29
52.35
74.56
99.64
124.98
148.44
168.50
184.37
195.83
202.99
206.26
206.19
203.41
198.45
191.50
182.64
172.02
160.05
147.48
135.51
124.79
114.95
104.46
91.16
73.14
49.33
19.99
-13.47
-48.51
-82.76
-114.63
-143.28
-168.30
-189.21
-205.34
-216.00
-220.90
-219.58
-212.81
-202.35
-190.14
-177.05
-162.32
-143.98
-119.83
-88.49
-47.90
1.27
55.53
110.11
161.45
208.42
252.13
294.87
338.82
389.82
449.81
515.29
579.00
634.04
676.67
706.68
726.13
737.99
752.17
773.58
799.83
823.42
837.54
839.18
828.51
806.94
775.76
745.39
721.25
701.07
677.03
642.16
593.43
531.42
458.93
320.27
102.97
-160.15
-410.62
-604.98
-732.94
-807.83
-849.55
-873.62
-887.65
-883.21
-853.93
-802.08
-739.74
-677.87
-622.87
-576.32
-536.92
-502.57
-464.45
-418.69
-368.61
-322.16
-285.95
-262.28
-249.43
-243.74
-241.18
-233.95
-217.96
-194.41
-168.22
-144.22
-124.99
-110.65
-99.83
-90.73
-79.75
-65.35
-48.79
-33.21
-21.25
-14.16
-11.53
-12.14
-14.62
-17.21
-19.07
-20.43
-22.05
-24.47
-27.76
-31.66
-36.02
-41.04
-47.19
-54.93
-64.22
-74.21
-83.17
-88.90
-89.33
-83.26
-70.76
-53.26
-33.05
-12.66
5.84
21.19
32.88
40.96
45.67
47.28
46.17
42.98
38.71
34.69
32.16
31.87
33.87
37.43
41.44
44.76
46.63
46.87
45.74
43.72
41.23
38.49
35.47
31.97
27.76
22.69
16.74
10.03
2.80
-4.69
-12.22
-19.67
-27.09
-34.67
-42.73
-51.71
-62.01
-73.84
-86.95
-100.33
-112.16
-120.13
-121.97
-116.31
-103.22
-84.27
-62.05
-39.27
-17.93
1.09
17.86
32.82
46.25
57.99
67.60
74.81
79.80
83.27
86.14
89.16
92.52
95.81
98.22
98.81
96.88
92.06
84.32
73.97
61.56
47.83
33.60
19.68
6.73
-4.70
-14.21
-21.62
-27.08
-31.19
-34.88
-39.17
-44.65
-51.20
-57.98
-63.87
-68.14
-70.86
-73.03
-76.11
-81.26
-88.71
-97.48
-105.57
-110.57
-110.30
-103.55
-90.37
-72.09
-50.88
-29.12
-8.84
8.65
22.80
33.58
41.25
46.21
49.00
50.28
50.84
51.37
52.37
53.89
55.66
57.18
58.00
57.81
56.61
54.55
51.87
48.74
45.19
41.09
36.32
30.82
24.74
18.39
12.21
6.60
1.76
-2.40
-6.20
-10.18
-14.77
-20.27
-26.58
-33.31
-39.87
-45.73
-50.67
-54.99
-59.44
-64.98
-72.33
-81.46
-91.33
-99.87
-104.59
-103.21
-94.59
-79.08
-58.46
-35.31
-12.21
8.83
26.60
40.61
50.79
57.37
60.78
61.76
61.26
60.21
59.26
58.67
58.36
58.16
58.04
58.09
58.41
58.94
59.28
58.91
57.36
54.44
50.35
45.48
40.25
34.99
29.71
24.41
19.10
13.89
8.95
4.41
0.17
-4.01
-8.59
-13.85
-19.81
-26.06
-31.99
-37.03
-41.06
-44.61
-48.84
-54.91
-63.25
-72.99
-81.92
-87.08
-85.93
-77.28
-61.93
-42.20
-21.06
-1.00
16.54
31.14
42.85
51.63
57.06
58.68
56.44
51.13
44.32
37.92
33.47
31.73
32.47
34.82
37.70
40.21
41.89
42.61
42.42
41.45
39.74
37.22
33.86
29.56
24.34
18.34
11.81
5.12
-1.32
-7.17
-12.33
-16.97
-21.52
-26.47
-32.23
-39.02
-46.84
-55.51
-64.74
-74.01
-82.42
-88.72
-91.31
-88.74
-80.20
-65.99
-47.61
-27.41
-7.99
8.57
21.04
29.19
33.44
34.51
33.12
29.95
25.73
21.28
17.56
15.39
15.23
16.94
19.75
22.60
24.46
24.71
23.32
20.74
17.58
14.35
11.20
7.95
4.28
-0.06
-5.02
-10.32
-15.49
-20.20
-24.31
-27.99
-31.60
-35.60
-40.38
-46.23
-53.28
-61.40
-70.08
-78.31
-84.57
-87.15
-84.50
-75.80
-61.30
-42.34
-21.03
0.26
19.41
34.99
46.31
53.36
56.60
56.78
54.68
51.14
46.97
42.94
39.74
37.86
37.48
38.37
39.99
41.55
42.36
41.97
40.26
37.42
33.73
29.49
24.90
20.06
15.05
9.91
4.72
-0.45
-5.58
-10.70
-15.82
-20.97
-26.13
-31.22
-36.17
-40.99
-45.92
-51.35
-57.75
-65.33
-73.72
-81.74
-87.53
-88.97
-84.43
-73.39
-56.66
-36.25
-14.65
5.80
23.45
37.50
47.77
54.44
57.77
58.11
56.02
52.34
48.15
44.54
42.25
41.52
41.99
42.99
43.84
44.16
43.89
43.18
42.18
40.79
38.78
35.87
32.02
27.47
22.70
18.17
14.09
10.29
6.37
1.86
-3.45
-9.39
-15.50
-21.21
-26.20
-30.53
-34.63
-39.11
-44.57
-51.43
-59.73
-69.07
-78.49
-86.48
-91.16
-90.70
-83.92
-70.73
-52.40
-31.18
-9.75
9.59
25.35
37.00
44.70
48.96
50.40
49.68
47.48
44.55
41.67
39.40
38.05
37.63
37.85
38.42
39.05
39.56
39.80
39.60
38.73
36.92
34.01
30.03
25.25
20.08
15.01
10.38
6.30
2.60
-1.04
-4.93
-9.18
-13.70
-18.28
-22.74
-27.03
-31.28
-35.70
-40.51
-45.91
-52.13
-59.26
-67.17
-75.22
-82.08
-85.91
-84.83
-77.61
-64.19
-45.91
-25.10
-4.41
13.88
28.37
38.58
44.69
47.26
46.94
44.48
40.71
36.60
33.16
31.17
31.02
32.47
34.83
37.14
38.60
38.77
37.71
35.88
33.81
31.87
30.06
28.08
25.54
22.22
18.21
13.86
9.62
5.72
2.07
-1.63
-5.72
-10.26
-15.03
-19.55
-23.39
-26.44
-29.00
-31.75
-35.48
-40.84
-48.03
-56.64
-65.62
-73.33
-77.89
-77.62
-71.54
-59.67
-43.13
-23.81
-3.96
14.40
29.76
41.26
48.59
51.87
51.56
48.41
43.48
37.99
33.09
29.63
27.93
27.81
28.71
30.01
31.21
32.03
32.39
32.26
31.54
30.08
27.72
24.41
20.26
15.56
10.65
5.79
1.07
-3.64
-8.51
-13.67
-19.07
-24.40
-29.26
-33.34
-36.59
-39.19
-41.56
-44.09
-47.09
-50.76
-55.25
-60.59
-66.54
-72.39
-76.87
-78.29
-75.10
-66.45
-52.62
-35.07
-16.09
1.91
16.99
28.06
34.87
37.79
37.49
34.73
30.38
25.43
21.02
18.26
17.94
20.23
24.56
29.84
34.84
38.58
40.64
41.10
40.36
38.85
36.81
34.32
31.35
27.89
24.09
20.22
16.61
13.50
10.92
8.65
6.27
3.32
-0.52
-5.38
-11.27
-18.17
-26.09
-34.98
-44.42
-53.47
-60.56
-63.93
-62.08
-54.44
-41.61
-25.26
-7.60
9.20
23.54
34.58
42.06
46.05
46.74
44.42
39.67
33.43
27.01
21.77
18.77
18.46
20.52
24.10
28.08
31.46
33.56
34.02
32.83
30.18
26.34
21.71
16.67
11.57
6.65
1.99
-2.45
-6.71
-10.83
-14.74
-18.39
-21.81
-25.18
-28.91
-33.44
-39.13
-45.99
-53.51
-60.63
-65.89
-67.75
-65.11
-57.62
-45.82
-31.06
-15.04
0.64
14.75
26.58
35.76
42.15
45.75
46.74
45.55
42.89
39.60
36.50
34.15
32.88
32.76
33.71
35.53
37.87
40.23
42.10
43.04
42.80
41.47
39.28
36.43
32.98
28.76
23.51
17.08
9.63
1.69
-6.01
-12.75
-18.09
-22.05
-25.01
-27.68
-30.77
-34.84
-40.13
-46.46
-53.17
-59.12
-62.78
-62.53
-57.09
-45.97
-29.75
-10.09
10.73
30.35
46.97
59.54
67.77
71.87
72.29
69.60
64.48
57.80
50.59
43.85
38.37
34.49
32.13
30.85
30.12
29.42
28.40
26.85
24.61
21.61
17.85
13.40
8.42
3.11
-2.40
-8.05
-13.92
-20.11
-26.63
-33.38
-40.08
-46.44
-52.28
-57.57
-62.55
-67.65
-73.36
-80.07
-87.80
-96.01
-103.51
-108.56
-109.36
-104.51
-93.60
-77.37
-57.59
-36.56
-16.48
0.97
14.85
24.81
30.87
33.27
32.40
28.88
23.64
17.83
12.61
8.85
6.90
6.48
6.93
7.47
7.56
7.11
6.42
5.95
5.98
6.47
7.07
7.26
6.67
5.23
3.21
1.03
-0.93
-2.52
-3.87
-5.36
-7.49
-10.73
-15.42
-21.70
-29.32
-37.63
-45.50
-51.51
-54.20
-52.51
-46.07
-35.40
-21.73
-6.68
8.14
21.43
32.25
40.02
44.38
45.27
42.87
37.80
31.04
23.82
17.34
12.46
9.53
8.32
8.22
8.49
8.62
8.47
8.20
8.09
8.26
8.50
8.33
7.17
4.70
0.98
-3.50
-8.19
-12.61
-16.61
-20.33
-24.03
-28.02
-32.54
-37.86
-44.16
-51.45
-59.20
-66.24
-70.78
-70.92
-65.33
-53.89
-37.85
-19.53
-1.51
14.13
26.27
34.74
39.95
42.46
42.64
40.77
37.25
32.79
28.36
24.97
23.28
23.40
24.85
26.83
28.46
29.13
28.61
27.02
24.72
22.11
19.40
16.62
13.57
9.96
5.60
0.54
-4.92
-10.26
-14.98
-18.81
-21.82
-24.42
-27.19
-30.74
-35.47
-41.54
-48.73
-56.50
-63.88
-69.52
-71.95
-69.82
-62.46
-50.11
-34.06
-16.33
0.87
15.70
27.11
34.89
39.40
41.35
41.44
40.29
38.43
36.38
34.62
33.50
33.17
33.49
34.07
34.42
34.12
33.03
31.30
29.34
27.57
26.27
25.39
24.56
23.21
20.82
17.06
12.00
6.03
-0.19
-6.00
-10.92
-14.81
-17.92
-20.76
-23.95
-28.06
-33.41
-40.07
-47.70
-55.48
-62.16
-66.11
-65.74
-59.97
-48.68
-32.90
-14.64
3.73
20.08
33.07
42.20
47.65
49.98
49.79
47.70
44.39
40.57
37.04
34.47
33.22
33.30
34.40
35.99
37.51
38.53
38.73
38.00
36.36
33.99
31.14
28.02
24.74
21.20
17.24
12.68
7.58
2.19
-3.08
-7.88
-12.03
-15.61
-18.81
-21.83
-24.85
-27.98
-31.50
-35.70
-40.80
-46.58
-52.14
-55.93
-56.19
-51.55
-41.66
-27.44
-10.81
5.85
20.52
31.99
39.94
44.73
46.92
47.01
45.37
42.39
38.64
34.96
32.21
30.97
31.31
32.74
34.37
35.35
35.16
33.80
31.68
29.35
27.19
25.31
23.46
21.28
18.47
14.87
10.57
5.84
1.01
-3.55
-7.60
-11.07
-14.06
-16.90
-20.02
-23.82
-28.62
-34.57
-41.55
-49.17
-56.66
-62.86
-66.37
-65.86
-60.52
-50.47
-36.85
-21.54
-6.67
6.04
15.66
22.08
25.75
27.34
27.45
26.55
25.15
23.89
23.53
24.70
27.62
31.92
36.63
40.55
42.71
42.64
40.51
36.92
32.61
28.14
23.72
19.25
14.50
9.29
3.64
-2.24
-8.02
-13.40
-18.27
-22.78
-27.28
-32.19
-37.88
-44.53
-52.04
-59.94
-67.38
-73.18
-75.93
-74.38
-67.77
-56.22
-40.79
-23.32
-5.91
9.53
21.73
30.17
34.92
36.40
35.12
31.63
26.52
20.52
14.57
9.73
7.09
7.44
11.01
17.32
25.28
33.49
40.65
45.93
49.11
50.40
50.20
48.80
46.24
42.41
37.26
31.00
24.11
17.12
10.49
4.44
-1.11
-6.35
-11.48
-16.67
-22.05
-27.80
-34.11
-40.97
-47.92
-53.88
-57.24
-56.38
-50.21
-38.76
-23.19
-5.53
12.03
27.69
40.37
49.67
55.55
58.02
57.16
53.26
47.13
40.07
33.60
28.94
26.52
25.82
25.67
24.85
22.65
19.10
14.86
10.77
7.40
4.82
2.66
0.39
-2.34
-5.58
-9.04
-12.36
-15.19
-17.46
-19.32
-21.04
-22.91
-25.14
-27.84
-31.14
-35.16
-40.11
-46.01
-52.53
-58.80
-63.45
-64.95
-62.02
-54.17
-41.88
-26.59
-10.26
5.11
17.98
27.49
33.42
36.04
35.85
33.51
29.82
25.69
22.08
19.77
19.18
20.25
22.47
25.08
27.33
28.69
28.95
28.15
26.52
24.25
21.37
17.75
13.17
7.49
0.84
-6.30
-13.25
-19.24
-23.82
-26.90
-28.82
-30.19
-31.65
-33.73
-36.71
-40.60
-45.07
-49.44
-52.68
-53.63
-51.23
-44.95
-34.97
-22.26
-8.32
5.23
16.97
25.99
31.91
34.80
34.97
32.94
29.34
25.01
20.86
17.79
16.40
16.77
18.46
20.61
22.34
23.05
22.58
21.10
18.81
15.82
12.04
7.36
1.86
-4.15
-10.12
-15.53
-20.08
-23.76
-26.79
-29.55
-32.44
-35.94
-40.49
-46.44
-53.74
-61.70
-68.98
-73.75
-74.26
-69.48
-59.42
-45.30
-29.05
-12.81
1.70
13.47
22.12
27.69
30.36
30.34
27.94
23.71
18.53
13.50
9.67
7.81
8.20
10.64
14.67
19.70
25.20
30.74
35.83
39.93
42.42
42.78
40.75
36.51
30.64
23.98
17.36
11.32
6.02
1.25
-3.42
-8.44
-14.25
-21.06
-28.90
-37.30
-45.29
-51.37
-53.83
-51.27
-43.15
-30.09
-13.87
3.14
18.59
30.80
39.03
43.35
44.35
42.78
39.31
34.59
29.35
24.44
20.72
18.81
18.88
20.53
22.94
25.11
26.30
26.19
24.92
22.96
20.75
18.56
16.27
13.53
9.95
5.34
-0.13
-5.99
-11.64
-16.57
-20.56
-23.75
-26.54
-29.43
-32.92
-37.35
-42.79
-48.92
-54.97
-59.73
-61.76
-59.76
-53.01
-41.66
-26.81
-10.16
6.39
21.21
33.26
42.08
47.69
50.36
50.56
48.90
46.22
43.45
41.51
40.99
41.97
43.98
46.13
47.43
47.14
44.97
41.14
36.24
30.91
25.73
21.00
16.78
12.94
9.28
5.56
1.59
-2.73
-7.38
-12.20
-16.91
-21.23
-24.94
-28.06
-30.85
-33.77
-37.39
-42.22
-48.48
-55.95
-63.81
-70.64
-74.71
-74.40
-68.78
-57.96
-43.14
-26.28
-9.49
5.47
17.53
26.32
31.94
34.68
34.96
33.28
30.29
26.83
23.79
21.93
21.65
22.91
25.29
28.09
30.57
32.16
32.54
31.67
29.79
27.29
24.58
22.00
19.71
17.65
15.54
13.03
9.89
6.15
2.11
-1.78
-5.25
-8.33
-11.45
-15.17
-19.97
-25.98
-32.97
-40.40
-47.48
-53.28
-56.71
-56.75
-52.62
-44.18
-32.05
-17.64
-2.74
10.97
22.24
30.45
35.47
37.45
36.75
33.93
29.75
25.23
21.40
19.06
18.57
19.70
21.76
23.83
25.08
24.96
23.35
20.48
16.85
12.97
9.21
5.66
2.19
-1.43
-5.38
-9.62
-13.95
-18.10
-21.85
-25.16
-28.19
-31.24
-34.67
-38.82
-43.92
-49.92
-56.41
-62.45
-66.66
-67.52
-63.84
-55.18
-42.08
-26.01
-8.93
7.19
20.85
31.25
38.21
42.06
43.33
42.59
40.41
37.40
34.12
31.18
29.04
27.98
27.93
28.50
29.16
29.35
28.74
27.26
25.08
22.49
19.75
17.00
14.26
11.48
8.60
5.64
2.67
-0.23
-2.93
-5.40
-7.68
-9.91
-12.31
-15.15
-18.71
-23.23
-28.90
-35.81
-43.77
-52.17
-59.90
-65.46
-67.27
-64.16
-55.80
-42.90
-27.04
-10.25
5.55
19.02
29.57
37.25
42.49
45.79
47.57
48.16
47.81
46.85
45.62
44.37
43.29
42.36
41.46
40.41
39.10
37.46
35.51
33.25
30.68
27.79
24.55
20.94
17.02
12.88
8.73
4.79
1.23
-1.90
-4.80
-7.81
-11.25
-15.30
-19.83
-24.54
-29.07
-33.29
-37.43
-41.98
-47.36
-53.57
-59.94
-65.16
-67.68
-66.17
-60.17
-50.09
-37.17
-23.00
-9.02
3.71
14.58
23.26
29.45
32.85
33.37
31.26
27.28
22.58
18.37
15.58
14.49
14.85
16.04
17.39
18.47
19.06
19.06
18.33
16.65
13.80
9.77
4.91
-0.20
-4.96
-8.99
-12.24
-14.99
-17.57
-20.20
-22.85
-25.30
-27.39
-29.07
-30.63
-32.60
-35.63
-40.15
-46.16
-52.98
-59.25
-63.25
-63.33
-58.50
-48.85
-35.46
-20.17
-4.95
8.56
19.39
27.20
32.08
34.28
34.12
31.93
28.18
23.53
18.77
14.70
11.92
10.67
10.74
11.62
12.69
13.46
13.75
13.63
13.39
13.24
13.20
13.07
12.52
11.31
9.49
7.44
5.71
4.78
4.77
5.32
5.66
4.87
2.17
-2.82
-10.00
-18.77
-28.06
-36.44
-42.34
-44.32
-41.52
-33.94
-22.54
-9.03
4.67
16.87
26.54
33.30
37.25
38.69
37.98
35.49
31.70
27.24
22.88
19.31
16.94
15.73
15.21
14.67
13.45
11.25
8.16
4.62
1.16
-1.89
-4.55
-7.20
-10.40
-14.59
-19.87
-25.90
-31.96
-37.25
-41.19
-43.64
-44.99
-46.07
-47.75
-50.61
-54.57
-58.82
-61.98
-62.49
-59.13
-51.37
-39.50
-24.54
-7.93
8.80
24.30
37.50
47.70
54.55
58.00
58.27
55.85
51.47
46.05
40.54
35.82
32.51
30.83
30.59
31.27
32.16
32.56
31.94
30.08
27.05
23.13
18.70
14.06
9.34
4.45
-0.75
-6.33
-12.10
-17.63
-22.35
-25.82
-27.96
-29.11
-29.97
-31.36
-33.96
-38.15
-43.83
-50.41
-56.83
-61.72
-63.67
-61.51
-54.68
-43.47
-28.97
-12.84
3.08
17.23
28.55
36.58
41.34
43.09
42.24
39.29
34.91
29.93
25.31
21.88
20.12
19.99
20.91
22.01
22.50
21.90
20.18
17.63
14.57
11.22
7.59
3.58
-0.84
-5.55
-10.28
-14.67
-18.43
-21.41
-23.67
-25.44
-27.10
-29.17
-32.22
-36.77
-42.95
-50.34
-57.79
-63.59
-65.87
-63.20
-55.11
-42.26
-26.23
-9.01
7.56
22.17
34.07
42.85
48.25
50.12
48.54
44.03
37.70
31.00
25.37
21.76
20.36
20.61
21.59
22.38
22.48
21.81
20.64
19.24
17.66
15.65
12.81
8.87
3.83
-1.89
-7.73
-13.11
-17.77
-21.75
-25.42
-29.29
-33.81
-39.26
-45.52
-52.04
-57.71
-61.06
-60.59
-55.24
-44.82
-30.25
-13.29
3.92
19.48
32.07
41.09
46.51
48.56
47.64
44.32
39.38
33.85
28.78
25.00
22.85
22.11
22.19
22.44
22.46
22.13
21.55
20.77
19.66
17.85
14.93
10.66
5.12
-1.28
-8.01
-14.52
-20.44
-25.64
-30.24
-34.62
-39.28
-44.72
-51.14
-58.15
-64.69
-69.09
-69.57
-64.79
-54.38
-39.12
-20.86
-1.92
15.49
29.75
40.05
46.30
48.93
48.60
46.06
42.06
37.44
33.01
29.53
27.47
26.91
27.45
28.44
29.10
28.91
27.70
25.56
22.75
19.43
15.55
10.92
5.45
-0.77
-7.31
-13.60
-19.13
-23.67
-27.40
-30.85
-34.75
-39.77
-46.24
-53.95
-61.98
-68.80
-72.55
-71.57
-64.93
-52.79
-36.40
-17.77
0.90
17.80
31.73
42.15
48.97
52.39
52.72
50.51
46.60
42.01
37.81
34.83
33.39
33.23
33.66
33.83
33.12
31.30
28.56
25.33
21.95
18.57
15.02
11.12
6.75
2.12
-2.41
-6.49
-10.01
-13.19
-16.52
-20.54
-25.67
-32.07
-39.76
-48.55
-58.00
-67.25
-74.95
-79.44
-79.09
-72.97
-61.22
-45.21
-27.14
-9.38
6.19
18.52
27.43
33.14
35.89
35.82
33.08
28.16
22.16
16.68
13.31
13.03
15.71
20.13
24.50
27.20
27.53
25.82
23.20
21.01
20.39
22.02
26.16
32.70
41.24
51.10
61.23
70.49
77.77
82.37
84.07
83.02
79.49
73.53
64.85
53.01
37.86
19.90
0.50
-18.18
-33.62
-43.59
-46.70
-42.79
-32.91
-18.95
-3.07
12.70
26.75
37.86
45.09
47.80
45.67
39.03
28.98
17.33
6.09
-3.09
-9.42
-13.08
-14.90
-15.80
-16.37
-16.74
-16.83
-16.57
-16.18
-15.97
-16.19
-16.77
-17.39
-17.65
-17.39
-16.86
-16.66
-17.49
-19.78
-23.47
-28.04
-32.72
-36.88
-40.32
-43.37
-46.77
-51.25
-57.16
-64.20
-71.35
-77.14
-79.93
-78.43
-71.88
-60.27
-44.26
-25.16
-4.73
15.12
32.56
46.10
54.88
58.78
58.34
54.67
49.17
43.27
38.27
35.04
33.95
34.77
36.73
38.70
39.57
38.58
35.50
30.62
24.54
17.85
11.09
4.67
-0.98
-5.42
-8.29
-9.44
-9.10
-7.82
-6.27
-5.08
-4.72
-5.54
-7.91
-12.19
-18.60
-27.00
-36.51
-45.60
-52.25
-54.64
-51.72
-43.65
-31.71
-17.93
-4.30
7.79
17.76
25.68
31.79
36.14
38.53
38.71
36.77
33.38
29.70
26.95
26.03
27.08
29.55
32.36
34.37
34.74
33.11
29.64
24.79
19.17
13.33
7.71
2.59
-1.92
-5.81
-9.17
-12.11
-14.69
-16.95
-18.93
-20.75
-22.69
-25.12
-28.51
-33.25
-39.50
-47.05
-55.13
-62.44
-67.33
-68.15
-63.80
-54.05
-39.84
-22.95
-5.54
10.44
23.66
33.53
40.04
43.47
44.18
42.62
39.31
35.01
30.59
26.85
24.40
23.39
23.55
24.37
25.22
25.61
25.32
24.35
22.86
21.04
18.99
16.67
13.92
10.55
6.43
1.58
-3.75
-9.17
-14.30
-18.87
-22.82
-26.35
-29.81
-33.52
-37.76
-42.66
-48.28
-54.61
-61.40
-67.97
-73.11
-75.24
-72.73
-64.63
-51.12
-33.61
-14.43
3.95
19.60
31.57
39.83
44.92
47.47
47.99
46.85
44.39
41.15
37.81
35.02
33.23
32.46
32.38
32.48
32.24
31.37
29.91
28.03
25.95
23.72
21.26
18.33
14.79
10.68
6.24
1.79
-2.42
-6.36
-10.18
-14.12
-18.30
-22.67
-27.01
-31.10
-34.88
-38.57
-42.58
-47.39
-53.30
-60.08
-66.83
-72.02
-73.81
-70.65
-61.85
-47.90
-30.43
-11.75
5.88
20.81
32.26
40.15
44.82
46.71
46.22
43.79
40.05
35.85
32.12
29.61
28.68
29.17
30.45
31.72
32.30
31.87
30.49
28.47
26.16
23.73
21.14
18.21
14.76
10.79
6.43
1.87
-2.68
-7.15
-11.49
-15.66
-19.59
-23.21
-26.52
-29.61
-32.72
-36.16
-40.29
-45.36
-51.41
-58.07
-64.42
-69.08
-70.40
-66.98
-58.22
-44.58
-27.59
-9.39
7.91
22.71
34.19
42.15
46.76
48.37
47.33
44.22
39.90
35.41
31.78
29.68
29.29
30.28
32.01
33.81
35.16
35.74
35.38
33.98
31.51
28.05
23.82
19.16
14.46
10.03
5.98
2.26
-1.34
-5.02
-8.89
-12.85
-16.67
-20.08
-22.91
-25.26
-27.48
-30.05
-33.49
-38.13
-44.07
-50.99
-58.17
-64.41
-68.23
-68.14
-63.09
-52.86
-38.23
-20.86
-2.83
13.86
27.71
37.92
44.36
47.30
47.29
45.01
41.24
36.77
32.32
28.51
25.69
23.97
23.25
23.26
23.68
24.16
24.36
24.02
23.02
21.37
19.22
16.78
14.22
11.60
8.92
6.08
2.95
-0.56
-4.43
-8.55
-12.72
-16.74
-20.42
-23.75
-26.85
-30.02
-33.60
-37.91
-43.02
-48.67
-54.13
-58.22
-59.50
-56.69
-49.04
-36.78
-21.12
-4.04
12.32
26.11
36.26
42.45
44.97
44.42
41.50
36.88
31.29
25.58
20.64
17.27
15.93
16.54
18.55
21.02
22.98
23.74
23.04
21.02
18.14
14.88
11.54
8.24
4.89
1.33
-2.55
-6.75
-11.14
-15.51
-19.68
-23.52
-27.04
-30.37
-33.70
-37.25
-41.28
-46.03
-51.63
-57.91
-64.21
-69.29
-71.49
-69.21
-61.47
-48.37
-31.24
-12.24
6.18
22.03
34.16
42.29
46.79
48.31
47.47
44.88
41.12
36.90
32.99
30.16
28.92
29.33
30.91
32.86
34.25
34.39
33.05
30.46
27.14
23.60
20.17
16.83
13.37
9.57
5.34
0.79
-3.86
-8.37
-12.67
-16.76
-20.73
-24.59
-28.35
-32.05
-35.95
-40.46
-46.03
-52.87
-60.60
-68.11
-73.71
-75.55
-72.28
-63.46
-49.74
-32.66
-14.20
3.73
19.59
32.34
41.44
46.76
48.60
47.64
44.82
41.21
37.76
35.10
33.37
32.46
32.07
31.98
32.11
32.45
32.91
33.19
32.80
31.28
28.42
24.45
19.98
15.68
11.99
8.93
6.03
2.70
-1.42
-6.25
-11.37
-16.15
-20.17
-23.36
-25.99
-28.57
-31.58
-35.42
-40.31
-46.23
-52.80
-59.14
-63.92
-65.56
-62.67
-54.53
-41.51
-24.97
-6.98
10.32
25.19
36.60
44.25
48.36
49.42
48.03
44.85
40.62
36.15
32.25
29.53
28.28
28.34
29.23
30.30
31.03
31.16
30.70
29.76
28.42
26.59
24.11
20.92
17.13
13.05
9.01
5.24
1.73
-1.72
-5.31
-9.14
-13.12
-17.10
-20.88
-24.40
-27.74
-31.04
-34.56
-38.59
-43.45
-49.24
-55.72
-62.07
-66.93
-68.65
-65.83
-57.82
-45.01
-28.86
-11.40
5.30
19.61
30.60
37.96
41.81
42.50
40.54
36.62
31.62
26.58
22.49
20.10
19.68
21.01
23.43
26.07
28.06
28.82
28.14
26.21
23.50
20.55
17.71
15.04
12.32
9.16
5.29
0.67
-4.41
-9.50
-14.11
-17.96
-21.07
-23.72
-26.38
-29.56
-33.68
-38.95
-45.19
-51.77
-57.50
-60.88
-60.39
-55.06
-44.83
-30.69
-14.45
1.80
16.25
27.70
35.70
40.32
41.90
40.92
37.94
33.62
28.81
24.38
21.09
19.43
19.43
20.68
22.45
23.94
24.44
23.63
21.57
18.67
15.38
12.12
9.02
5.95
2.70
-0.93
-4.91
-9.07
-13.10
-16.76
-19.98
-22.89
-25.81
-29.10
-33.11
-38.11
-44.20
-51.26
-58.91
-66.29
-72.12
-74.83
-72.99
-65.75
-53.24
-36.69
-18.18
0.00
15.90
28.35
37.09
42.46
45.09
45.56
44.29
41.64
38.11
34.32
31.06
29.01
28.48
29.30
30.88
32.40
33.08
32.50
30.63
27.79
24.43
20.96
17.57
14.27
10.95
7.48
3.80
-0.08
-4.06
-8.00
-11.74
-15.17
-18.26
-21.07
-23.74
-26.49
-29.59
-33.34
-38.07
-43.95
-50.78
-57.85
-63.78
-66.76
-65.09
-57.78
-45.03
-28.29
-9.84
7.87
22.94
34.34
41.92
46.16
47.74
47.40
45.76
43.40
40.83
38.54
36.83
35.84
35.53
35.66
35.94
36.06
35.78
34.94
33.50
31.53
29.15
26.50
23.66
20.61
17.31
13.67
9.64
5.25
0.63
-4.08
-8.71
-13.15
-17.37
-21.39
-25.26
-29.03
-32.80
-36.74
-41.15
-46.37
-52.52
-59.20
-65.37
-69.38
-69.45
-64.30
-53.69
-38.59
-20.93
-3.03
13.08
26.09
35.43
41.15
43.57
43.11
40.31
35.87
30.75
26.05
22.77
21.47
22.14
24.14
26.55
28.46
29.33
29.05
27.86
26.05
23.89
21.40
18.49
15.04
10.94
6.29
1.31
-3.71
-8.50
-12.90
-16.91
-20.70
-24.51
-28.60
-33.15
-38.27
-44.04
-50.33
-56.74
-62.40
-66.08
-66.32
-61.97
-52.55
-38.69
-21.90
-4.26
12.19
25.93
36.15
42.72
45.88
46.07
43.77
39.60
34.41
29.24
25.21
23.11
23.21
25.08
27.71
29.94
30.86
30.06
27.77
24.56
21.07
17.69
14.43
11.00
7.05
2.38
-2.90
-8.46
-13.80
-18.59
-22.66
-26.15
-29.40
-32.82
-36.81
-41.65
-47.49
-54.27
-61.53
-68.35
-73.33
-74.82
-71.42
-62.43
-48.31
-30.59
-11.53
6.54
21.86
33.52
41.46
46.11
47.99
47.58
45.29
41.65
37.41
33.48
30.69
29.51
29.87
31.19
32.62
33.35
32.89
31.15
28.41
25.12
21.72
18.47
15.41
12.36
9.04
5.15
0.55
-4.71
-10.31
-15.83
-20.86
-25.16
-28.73
-31.83
-34.91
-38.46
-42.97
-48.72
-55.67
-63.12
-69.74
-73.63
-72.91
-66.30
-53.74
-36.50
-16.90
2.43
19.35
32.67
42.17
48.35
51.85
53.20
52.71
50.75
47.77
44.47
41.52
39.43
38.33
37.99
38.03
38.06
37.88
37.36
36.41
34.91
32.73
29.78
26.16
22.14
18.03
14.02
10.10
6.06
1.67
-3.18
-8.34
-13.45
-18.10
-21.97
-25.11
-27.86
-30.76
-34.35
-39.02
-44.83
-51.48
-58.24
-64.09
-67.72
-67.71
-62.91
-52.78
-37.77
-19.40
0.04
17.97
32.30
41.90
46.83
47.99
46.66
43.99
40.74
37.30
33.95
31.01
28.87
27.86
28.00
28.95
30.09
30.78
30.54
29.23
27.01
24.21
21.18
18.16
15.27
12.42
9.43
6.12
2.33
-1.89
-6.36
-10.79
-14.92
-18.64
-22.03
-25.29
-28.68
-32.43
-36.72
-41.70
-47.35
-53.36
-58.94
-62.79
-63.38
-59.44
-50.55
-37.36
-21.49
-5.02
10.09
22.53
31.69
37.47
40.04
39.66
36.68
31.77
25.94
20.41
16.33
14.37
14.57
16.31
18.65
20.63
21.65
21.49
20.30
18.37
15.97
13.25
10.25
6.94
3.26
-0.79
-5.16
-9.69
-14.17
-18.33
-22.00
-25.16
-27.99
-30.92
-34.42
-38.92
-44.55
-51.01
-57.49
-62.69
-65.10
-63.33
-56.57
-44.94
-29.56
-12.29
4.75
19.74
31.53
39.68
44.33
45.86
44.71
41.42
36.68
31.41
26.67
23.39
22.09
22.67
24.47
26.52
27.95
28.22
27.22
25.21
22.59
19.68
16.58
13.20
9.36
4.91
-0.07
-5.36
-10.59
-15.45
-19.73
-23.47
-26.82
-30.06
-33.44
-37.25
-41.76
-47.25
-53.78
-60.92
-67.64
-72.28
-73.04
-68.57
-58.50
-43.68
-25.94
-7.57
9.38
23.48
34.06
41.10
44.88
45.86
44.55
41.59
37.72
33.72
30.36
28.17
27.35
27.75
28.94
30.33
31.40
31.74
31.18
29.71
27.46
24.58
21.23
17.52
13.55
9.35
4.97
0.44
-4.23
-8.98
-13.73
-18.39
-22.84
-27.09
-31.19
-35.35
-39.84
-44.92
-50.71
-57.01
-63.23
-68.35
-71.05
-70.04
-64.41
-53.95
-39.38
-22.25
-4.58
11.61
24.76
34.05
39.48
41.57
41.15
39.05
36.03
32.75
29.84
27.85
27.19
27.92
29.77
32.15
34.32
35.67
35.79
34.63
32.34
29.20
25.56
21.69
17.85
14.14
10.55
6.97
3.24
-0.71
-4.81
-8.84
-12.57
-15.86
-18.77
-21.56
-24.60
-28.29
-32.95
-38.72
-45.48
-52.69
-59.32
-63.94
-64.99
-61.25
-52.30
-38.78
-22.24
-4.78
11.59
25.30
35.46
41.82
44.52
44.02
40.95
36.18
30.79
25.90
22.49
21.06
21.61
23.57
26.12
28.41
29.84
30.20
29.51
28.02
25.99
23.60
20.90
17.87
14.44
10.56
6.27
1.69
-2.93
-7.35
-11.34
-14.79
-17.75
-20.46
-23.31
-26.73
-31.12
-36.56
-42.68
-48.56
-52.81
-53.96
-50.83
-43.03
-31.12
-16.49
-0.99
13.56
25.76
34.79
40.40
42.70
42.00
38.83
33.90
28.19
22.85
18.94
17.20
17.71
19.92
22.81
25.28
26.45
25.96
23.91
20.70
16.83
12.70
8.53
4.44
0.44
-3.43
-7.16
-10.77
-14.25
-17.66
-21.03
-24.39
-27.81
-31.47
-35.62
-40.60
-46.64
-53.63
-60.96
-67.40
-71.28
-70.94
-65.27
-54.12
-38.48
-20.26
-1.71
15.17
29.00
39.23
45.89
49.31
49.91
48.15
44.55
39.91
35.18
31.33
29.08
28.60
29.54
31.14
32.51
32.94
32.14
30.17
27.39
24.21
20.94
17.67
14.34
10.78
6.89
2.65
-1.76
-6.13
-10.24
-13.97
-17.35
-20.50
-23.59
-26.87
-30.59
-35.09
-40.62
-47.17
-54.20
-60.54
-64.59
-64.74
-59.89
-49.92
-35.76
-19.10
-1.91
14.08
27.61
37.99
44.91
48.37
48.61
46.16
41.85
36.77
32.04
28.52
26.71
26.57
27.68
29.41
31.08
32.19
32.42
31.63
29.83
27.10
23.61
19.61
15.32
10.93
6.56
2.21
-2.17
-6.60
-11.06
-15.48
-19.79
-23.91
-27.87
-31.74
-35.75
-40.17
-45.33
-51.42
-58.30
-65.30
-71.21
-74.48
-73.60
-67.60
-56.40
-40.89
-22.76
-4.03
13.35
27.84
38.48
44.88
47.19
45.91
41.89
36.14
29.74
23.70
18.80
15.48
13.83
13.55
14.18
15.12
15.85
15.94
15.17
13.52
11.10
8.10
4.67
0.83
-3.48
-8.29
-13.44
-18.47
-22.71
-25.48
-26.43
-25.80
-24.31
-22.92
-22.51
-23.51
-25.81
-28.84
-31.69
-33.34
-32.77
-29.19
-22.19
-11.91
0.80
14.57
27.78
38.87
46.82
51.27
52.52
51.32
48.61
45.30
42.08
39.29
37.00
35.06
33.26
31.41
29.46
27.48
25.60
23.87
22.20
20.38
18.14
15.29
11.76
7.66
3.25
-1.18
-5.36
-9.16
-12.60
-15.90
-19.33
-23.31
-28.20
-34.27
-41.61
-49.93
-58.37
-65.56
-69.75
-69.32
-63.25
-51.66
-35.78
-17.69
0.31
16.32
29.18
38.50
44.40
47.18
47.13
44.64
40.30
34.99
29.74
25.46
22.72
21.47
21.24
21.25
20.86
19.70
17.74
15.21
12.37
9.35
6.04
2.20
-2.39
-7.78
-13.70
-19.67
-25.14
-29.72
-33.35
-36.32
-39.19
-42.61
-47.13
-52.96
-59.78
-66.63
-71.96
-73.97
-71.13
-62.73
-49.18
-32.02
-13.34
4.73
20.59
33.39
42.89
49.15
52.34
52.66
50.48
46.49
41.71
37.28
34.15
32.78
33.03
34.34
35.98
37.38
38.23
38.49
38.17
37.22
35.39
32.35
27.86
21.93
14.89
7.38
0.14
-6.19
-11.25
-15.06
-18.06
-20.97
-24.67
-29.94
-37.22
-46.38
-56.50
-65.86
-72.32
-73.79
-68.98
-57.86
-41.71
-22.81
-3.72
13.42
27.25
37.26
43.60
46.67
46.98
45.03
41.40
36.82
32.12
28.05
25.17
23.70
23.47
24.05
24.90
25.58
25.85
25.67
25.14
24.32
23.16
21.40
18.69
14.74
9.46
3.08
-3.91
-10.86
-17.18
-22.53
-26.91
-30.67
-34.38
-38.71
-44.18
-50.87
-58.28
-65.26
-70.17
-71.30
-67.41
-58.18
-44.39
-27.69
-10.08
6.60
21.10
32.76
41.32
46.68
48.83
47.96
44.61
39.76
34.66
30.45
27.88
27.02
27.39
28.21
28.77
28.61
27.66
26.10
24.21
22.15
19.84
17.06
13.50
9.02
3.74
-1.95
-7.53
-12.57
-16.89
-20.67
-24.33
-28.43
-33.42
-39.55
-46.69
-54.36
-61.59
-67.07
-69.31
-67.08
-59.75
-47.64
-31.99
-14.69
2.20
16.99
28.62
36.71
41.36
42.87
41.66
38.21
33.21
27.56
22.30
18.32
16.06
15.42
15.84
16.54
16.93
16.76
16.09
15.06
13.72
11.86
9.16
5.39
0.55
-5.00
-10.70
-15.99
-20.54
-24.35
-27.75
-31.24
-35.38
-40.58
-47.01
-54.38
-61.86
-68.03
-71.08
-69.37
-61.92
-48.96
-31.93
-13.09
5.19
21.09
33.63
42.60
48.22
50.74
50.41
47.55
42.83
37.28
32.12
28.40
26.62
26.60
27.58
28.60
28.88
28.08
26.38
24.21
22.01
19.91
17.66
14.81
10.94
5.92
0.07
-6.03
-11.77
-16.71
-20.84
-24.45
-28.08
-32.28
-37.52
-43.99
-51.52
-59.47
-66.63
-71.42
-72.14
-67.55
-57.31
-42.20
-24.01
-5.07
12.44
26.97
37.81
45.00
48.97
50.23
49.23
46.42
42.37
37.90
33.90
31.14
29.99
30.31
31.47
32.66
33.13
32.50
30.80
28.37
25.65
22.95
20.30
17.44
13.99
9.61
4.32
-1.50
-7.22
-12.23
-16.23
-19.32
-21.99
-24.89
-28.63
-33.57
-39.79
-47.01
-54.60
-61.49
-66.33
-67.61
-64.15
-55.49
-42.14
-25.55
-7.69
9.40
24.12
35.56
43.43
47.88
49.32
48.26
45.31
41.18
36.70
32.70
29.82
28.37
28.28
29.12
30.23
30.96
30.80
29.57
27.37
24.54
21.47
18.44
15.45
12.32
8.73
4.48
-0.41
-5.63
-10.73
-15.32
-19.23
-22.54
-25.54
-28.55
-31.88
-35.78
-40.46
-46.05
-52.43
-59.02
-64.65
-67.68
-66.55
-60.21
-48.70
-33.19
-15.71
1.48
16.51
28.27
36.50
41.49
43.74
43.76
41.93
38.66
34.49
30.15
26.44
24.04
23.29
24.02
25.67
27.37
28.36
28.14
26.67
24.31
21.54
18.85
16.43
14.14
11.64
8.59
4.83
0.49
-4.13
-8.68
-12.87
-16.61
-19.90
-22.85
-25.64
-28.50
-31.82
-35.98
-41.22
-47.26
-53.21
-57.54
-58.56
-54.98
-46.46
-33.79
-18.64
-3.01
11.38
23.42
32.56
38.63
41.47
41.01
37.46
31.53
24.52
18.06
13.54
11.71
12.31
14.34
16.53
17.84
17.86
16.82
15.29
13.79
12.44
10.97
8.82
5.57
1.11
-4.23
-9.93
-15.38
-20.22
-24.40
-28.07
-31.53
-35.14
-39.28
-44.34
-50.55
-57.80
-65.41
-72.10
-76.20
-76.23
-71.37
-61.88
-49.04
-34.77
-21.04
-9.34
-0.42
5.70
9.46
11.61
13.06
14.76
17.60
22.19
28.76
37.01
46.34
56.00
65.39
74.14
82.00
88.57
93.20
95.02
93.22
87.50
78.25
66.57
53.81
41.16
29.33
18.50
8.50
-0.78
-9.35
-17.13
-24.17
-30.86
-37.88
-45.93
-55.38
-65.86
-76.18
-84.57
-89.15
-88.59
-82.51
-71.63
-57.57
-42.39
-27.98
-15.70
-6.17
0.52
4.57
6.23
5.69
3.14
-1.07
-6.27
-11.56
-15.93
-18.57
-19.08
-17.67
-14.90
-11.44
-7.85
-4.43
-1.42
0.87
1.96
1.35
-1.29
-5.88
-11.85
-18.21
-23.84
-27.72
-29.18
-28.03
-24.57
-19.52
-13.85
-8.53
-4.38
-1.97
-1.57
-3.10
-6.17
-9.89
-13.04
-14.35
-12.93
-8.67
-2.25
5.23
12.70
19.52
25.43
30.18
33.32
34.09
31.84
26.51
18.84
10.17
1.97
-4.73
-9.55
-12.66
-14.46
-15.42
-16.07
-17.03
-18.97
-22.22
-26.51
-30.72
-33.24
-32.56
-28.04
-20.17
-10.38
-0.39
8.57
15.99
22.09
27.37
32.22
36.60
40.16
42.52
43.45
42.97
41.18
38.32
34.90
31.63
29.26
28.39
29.27
31.71
35.19
38.79
41.42
42.33
40.79
36.25
28.32
17.18
3.87
-9.60
-20.81
-27.51
-27.88
-21.29
-8.47
8.70
27.77
46.34
62.59
75.47
81.54
78.77
67.48
50.84
33.42
19.04
9.14
3.04
-1.12
-5.04
-9.25
-13.41
-16.78
-18.83
-19.47
-19.05
-18.16
-17.57
-17.89
-19.14
-21.06
-23.17
-24.84
-25.36
-23.97
-20.05
-13.60
-5.32
3.47
11.08
16.18
18.36
18.52
18.56
21.22
27.25
36.05
45.54
52.61
54.31
49.05
37.10
20.61
2.94
-12.59
-23.47
-28.73
-28.86
-25.27
-19.53
-12.84
-6.01
0.61
6.49
11.09
13.82
14.35
12.97
10.56
8.26
6.88
6.68
7.43
8.80
10.74
13.58
17.95
24.38
33.49
44.94
57.65
70.03
80.31
86.81
88.19
83.89
74.28
60.74
45.28
30.11
16.96
6.65
-1.11
-7.54
-14.21
-22.52
-33.09
-45.51
-58.42
-69.91
-78.25
-82.75
-84.06
-83.97
-84.90
-88.71
-95.92
-105.23
-114.12
-119.77
-119.80
-112.75
-98.36
-77.75
-53.79
-31.05
-15.02
-10.28
-18.32
-36.16
-56.99
-72.66
-77.24
-69.43
-52.81
-33.47
-16.80
-5.12
2.57
8.99
16.48
25.63
35.58
44.80
52.34
58.20
63.05
67.52
71.67
75.12
77.28
77.67
76.19
73.13
69.10
64.92
61.42
59.17
58.22
58.01
57.42
55.25
50.65
43.51
34.42
24.38
14.27
4.50
-5.17
-15.33
-26.60
-39.07
-52.16
-64.72
-75.46
-83.39
-88.05
-89.38
-87.49
-82.49
-74.45
-63.68
-50.85
-37.05
-23.55
-11.40
-1.32
6.41
11.78
14.94
16.27
16.42
16.32
16.97
19.09
22.80
27.58
32.56
36.92
40.24
42.50
43.87
44.40
43.89
41.98
38.33
32.83
25.62
17.02
7.44
-2.72
-13.02
-23.04
-32.38
-40.81
-48.30
-54.98
-60.97
-66.35
-71.04
-74.84
-77.49
-78.63
-77.81
-74.48
-68.06
-58.14
-44.84
-29.00
-12.14
3.81
16.99
26.10
30.77
31.52
29.65
26.81
24.54
23.92
25.34
28.49
32.48
36.22
38.80
39.84
39.67
39.14
39.19
40.47
43.00
46.29
49.48
51.66
52.12
50.43
46.61
41.09
34.68
28.31
22.64
17.73
12.91
7.05
-0.81
-10.89
-22.29
-33.19
-41.50
-45.54
-44.61
-39.08
-30.18
-19.43
-8.25
2.30
11.54
18.96
24.17
26.88
27.01
24.87
21.13
16.70
12.38
8.68
5.75
3.52
1.86
0.73
0.11
-0.15
-0.46
-1.39
-3.53
-7.21
-12.31
-18.30
-24.42
-29.99
-34.60
-38.16
-40.81
-42.75
-44.17
-45.24
-46.23
-47.54
-49.75
-53.39
-58.60
-64.93
-71.20
-75.73
-76.72
-72.78
-63.43
-49.23
-31.75
-13.01
5.04
21.10
34.63
45.73
54.65
61.47
65.98
67.77
66.58
62.55
56.31
48.77
40.94
33.64
27.52
23.02
20.36
19.58
20.34
21.89
23.07
22.49
18.95
11.84
1.46
-10.91
-23.37
-34.04
-41.68
-46.02
-47.58
-47.32
-46.11
-44.48
-42.64
-40.68
-38.71
-36.78
-34.73
-32.17
-28.64
-23.80
-17.58
-10.03
-1.15
9.26
21.39
35.04
49.27
62.46
72.71
78.48
79.13
74.98
67.08
56.77
45.40
34.11
23.92
15.63
9.75
6.33
4.82
4.14
2.95
0.05
-5.22
-12.82
-22.02
-31.76
-41.06
-49.46
-57.13
-64.64
-72.55
-80.89
-89.10
-96.23
-101.45
-104.57
-106.16
-107.24
-108.78
-111.17
-114.08
-116.60
-117.52
-115.73
-110.45
-101.31
-88.46
-72.64
-55.20
-37.88
-22.56
-10.84
-3.64
-1.09
-2.50
-6.59
-11.87
-17.04
-21.22
-24.10
-25.69
-26.10
-25.23
-22.85
-18.77
-13.13
-6.42
0.67
7.49
13.64
18.89
23.02
25.66
26.53
25.70
23.97
22.79
23.79
27.98
35.24
44.14
52.54
58.41
60.67
59.63
56.79
54.36
54.40
58.14
65.63
75.82
87.02
97.59
106.46
113.41
118.95
123.74
128.10
131.65
133.40
132.33
127.95
120.72
111.88
102.94
95.04
88.58
83.30
78.55
73.77
68.67
63.20
57.24
50.39
41.97
31.25
17.86
2.21
-14.35
-29.75
-41.98
-49.92
-54.11
-56.65
-60.56
-68.56
-82.00
-100.29
-121.23
-141.57
-158.15
-168.68
-172.25
-169.24
-160.79
-148.05
-131.71
-111.92
-88.80
-63.12
-36.72
-12.21
7.78
21.61
29.17
31.70
31.17
29.43
27.74
26.51
25.40
23.44
19.29
11.71
0.23
-14.30
-29.72
-43.27
-52.68
-57.13
-57.41
-55.17
-51.77
-47.54
-41.69
-33.03
-20.95
-5.90
10.63
26.80
41.21
53.32
63.45
72.44
81.24
90.66
101.42
114.05
128.86
145.54
163.13
180.00
194.37
204.97
211.46
214.46
215.05
213.90
210.80
204.61
193.90
178.06
157.85
135.56
114.18
96.18
82.45
71.80
61.56
48.88
32.23
12.33
-8.07
-25.54
-37.76
-44.69
-48.48
-52.13
-57.83
-65.85
-74.73
-82.52
-88.11
-91.79
-94.77
-98.05
-101.70
-104.92
-106.81
-107.29
-107.20
-107.66
-108.96
-109.70
-107.00
-97.63
-79.55
-53.18
-21.58
10.40
37.83
57.35
68.29
72.47
73.27
74.01
76.76
81.86
88.12
93.65
96.51
95.20
88.86
77.32
61.05
41.12
19.00
-3.69
-25.58
-45.64
-63.31
-78.38
-90.84
-100.91
-108.92
-115.32
-120.48
-124.63
-127.88
-130.47
-132.93
-136.06
-140.60
-146.70
-153.68
-160.08
-164.31
-165.18
-162.34
-156.11
-146.96
-134.97
-119.53
-99.75
-75.08
-46.12
-14.83
15.85
42.89
64.21
79.08
88.05
92.28
92.96
91.11
87.68
83.79
80.62
78.95
78.73
78.85
77.45
72.78
63.86
50.84
34.88
17.61
0.72
-14.46
-27.14
-37.00
-44.17
-49.01
-51.95
-53.43
-54.04
-54.68
-56.56
-60.92
-68.44
-78.61
-89.57
-98.54
-102.89
-101.13
-93.51
-81.70
-67.98
-54.31
-41.78
-30.80
-21.53
-14.31
-9.69
-7.97
-8.59
-9.93
-9.63
-5.53
3.36
16.29
30.93
44.25
53.74
58.60
60.22
61.71
66.61
77.12
92.89
110.91
126.79
136.79
139.47
136.25
130.16
124.00
118.78
113.55
106.76
97.94
88.51
81.08
77.52
77.34
77.45
73.68
63.23
46.53
27.28
10.78
1.42
0.72
7.07
16.82
26.26
33.09
36.81
38.32
38.83
39.09
39.04
38.02
35.31
30.52
23.88
16.12
8.30
1.37
-4.03
-7.72
-9.87
-10.72
-10.63
-9.78
-8.40
-6.77
-5.28
-4.36
-4.40
-5.71
-8.61
-13.21
-19.30
-26.28
-33.16
-38.92
-43.05
-45.78
-48.20
-51.47
-56.10
-61.31
-65.14
-65.33
-60.50
-51.07
-39.29
-28.26
-20.50
-17.08
-17.27
-19.22
-21.06
-21.51
-20.35
-17.90
-14.59
-10.55
-5.58
0.51
7.61
15.27
22.69
29.12
34.06
37.38
39.21
39.66
38.74
36.39
32.46
27.09
20.81
14.53
9.17
5.43
3.44
2.87
3.01
3.11
2.52
0.63
-3.02
-8.61
-15.80
-23.49
-30.07
-33.81
-33.52
-28.97
-20.91
-10.78
-0.11
9.74
17.70
22.88
24.59
22.66
17.78
11.59
6.34
3.97
5.30
9.69
15.30
19.95
22.01
20.96
17.49
13.06
9.24
7.08
6.80
7.68
8.43
7.69
4.65
-0.58
-6.90
-12.74
-16.61
-17.80
-16.51
-13.70
-10.59
-8.13
-6.83
-6.88
-8.31
-11.04
-14.71
-18.42
-20.89
-20.70
-17.06
-10.19
-1.30
7.86
15.82
21.80
25.76
28.05
28.88
28.06
25.07
19.44
11.15
0.81
-10.33
-20.69
-28.87
-34.06
-36.40
-36.92
-37.24
-38.90
-42.78
-48.88
-56.41
-64.22
-71.08
-76.02
-78.34
-77.76
-74.57
-69.69
-64.64
-61.18
-60.79
-64.26
-71.54
-81.83
-93.84
-105.91
-116.13
-122.47
-123.07
-116.83
-103.95
-86.08
-65.94
-46.52
-30.15
-18.08
-10.46
-6.65
-5.63
-6.06
-6.42
-5.13
-1.15
5.59
13.91
21.81
27.29
29.26
28.05
25.11
22.22
20.73
21.07
22.78
24.92
26.52
26.78
25.19
21.46
15.64
8.20
-0.02
-8.05
-15.18
-21.26
-26.79
-32.54
-38.92
-45.44
-50.65
-52.60
-49.72
-41.62
-29.29
-14.82
-0.40
12.45
23.28
32.51
40.86
48.78
56.31
63.09
68.73
72.94
75.56
76.51
75.83
73.70
70.66
67.38
64.49
62.21
60.26
57.99
54.76
50.29
44.64
37.96
30.28
21.49
11.67
1.36
-8.59
-17.51
-25.49
-33.50
-42.72
-53.49
-64.61
-73.48
-77.23
-74.24
-64.96
-51.82
-38.05
-26.39
-18.15
-13.18
-10.34
-8.30
-6.07
-3.38
-0.74
0.97
1.20
0.43
0.49
3.90
12.56
26.30
42.40
56.16
62.89
59.97
47.94
30.23
11.45
-4.64
-16.24
-23.56
-27.93
-30.55
-31.90
-31.93
-30.79
-29.69
-30.90
-36.65
-48.00
-63.77
-80.64
-94.26
-100.94
-99.16
-90.25
-77.55
-64.45
-53.03
-43.62
-35.32
-26.94
-18.03
-8.89
-0.52
6.02
10.99
15.40
20.15
25.33
30.17
33.58
35.61
37.33
40.80
49.16
64.87
88.38
117.56
148.44
176.44
198.22
211.84
212.35
197.23
168.71
133.34
98.11
68.69
43.83
22.15
3.03
-13.79
-27.14
-36.56
-42.84
-47.75
-53.01
-59.48
-66.38
-72.52
-76.96
-78.50
-76.20
-69.52
-58.46
-43.60
-26.45
-8.94
6.29
16.50
20.18
17.24
8.77
-3.44
-17.43
-31.38
-43.35
-51.75
-55.64
-54.88
-50.77
-46.07
-44.30
-48.17
-57.97
-70.80
-81.72
-86.18
-82.42
-72.57
-61.71
-55.22
-56.04
-63.35
-73.29
-81.27
-84.18
-81.23
-73.39
-61.90
-47.38
-29.68
-8.66
15.05
39.72
62.88
81.78
94.08
98.46
95.15
86.22
75.25
66.17
61.78
62.66
67.10
72.29
75.87
77.15
77.23
77.89
80.31
84.23
88.07
89.87
88.24
82.94
74.66
64.42
52.93
40.28
26.07
9.95
-8.04
-27.10
-45.73
-61.95
-73.78
-79.75
-79.33
-73.04
-62.23
-48.47
-33.11
-16.87
-0.10
16.79
32.87
46.54
55.97
59.83
57.92
51.35
42.10
32.32
23.64
16.90
12.37
9.88
9.15
9.76
11.20
12.92
14.37
15.06
14.51
12.25
7.83
0.99
-8.12
-18.71
-29.49
-39.04
-46.30
-50.95
-53.49
-54.92
-56.04
-57.03
-57.16
-55.16
-49.88
-40.94
-28.93
-15.30
-1.78
10.21
19.93
27.39
33.09
37.61
41.39
44.72
47.76
50.55
53.09
55.00
55.95
55.62
53.86
50.96
47.85
45.61
45.09
46.14
47.85
49.44
50.88
52.98
57.08
64.47
75.15
87.26
97.90
103.89
104.17
99.87
93.34
86.61
81.15
76.67
72.10
66.50
59.41
52.77
49.48
51.39
57.92
66.43
72.73
73.18
66.45
53.84
40.79
33.68
36.29
40.85
37.60
17.97
-19.56
-62.95
-104.86
-139.97
-165.79
-183.09
-193.95
-200.00
-201.72
-197.81
-186.60
-168.71
-145.99
-122.31
-102.31
-89.36
-83.20
-80.62
-77.05
-69.15
-57.10
-43.09
-30.29
-21.43
-17.70
-17.97
-19.94
-21.07
-19.54
-15.00
-7.15
4.11
18.55
35.46
53.90
72.66
90.54
106.29
118.46
126.05
128.42
125.36
117.13
104.56
88.91
71.75
54.83
39.83
28.36
21.50
19.42
21.20
25.12
29.14
31.56
31.27
27.82
21.33
12.51
2.73
-5.92
-11.07
-10.87
-4.92
5.23
16.42
24.90
27.62
23.25
12.31
-3.11
-20.08
-35.48
-46.57
-51.27
-48.65
-39.08
-24.35
-7.33
8.82
21.39
28.75
30.58
27.56
20.99
12.29
2.72
-6.77
-15.46
-22.93
-28.91
-33.28
-36.02
-37.16
-36.79
-34.99
-31.98
-28.25
-24.50
-21.70
-20.73
-22.13
-25.85
-31.15
-36.86
-41.79
-45.18
-46.97
-47.76
-48.52
-50.21
-53.51
-58.76
-65.92
-74.62
-83.97
-92.52
-98.43
-99.89
-95.67
-85.71
-71.16
-54.15
-36.93
-21.30
-8.15
2.30
10.20
15.62
18.50
18.81
16.94
13.78
10.52
8.19
7.19
7.18
7.38
7.15
6.43
5.85
6.25
8.10
11.13
14.38
16.60
16.93
15.20
11.98
8.09
4.23
0.66
-2.71
-6.20
-10.01
-14.24
-18.96
-24.34
-30.66
-38.07
-46.35
-54.56
-61.14
-64.29
-62.47
-55.11
-42.79
-27.17
-10.40
5.46
19.02
29.63
37.34
42.39
45.00
45.36
43.66
40.39
36.28
32.23
29.01
26.93
25.84
25.25
24.68
23.87
22.96
22.24
22.03
22.36
23.00
23.50
23.36
22.15
19.62
15.74
10.71
4.84
-1.53
-8.09
-14.71
-21.35
-27.98
-34.55
-40.88
-46.88
-52.63
-58.33
-64.08
-69.56
-73.90
-75.89
-74.40
-68.99
-60.07
-48.80
-36.53
-24.34
-12.78
-2.03
7.83
16.52
23.53
28.44
31.15
32.06
31.98
31.89
32.61
34.67
38.14
42.70
47.72
52.40
56.02
58.11
58.70
58.17
57.07
55.80
54.38
52.55
49.96
46.40
41.98
36.92
31.41
25.38
18.58
10.93
2.70
-5.41
-12.51
-17.99
-21.95
-25.19
-28.92
-34.11
-41.00
-48.87
-56.23
-61.31
-62.68
-59.71
-52.68
-42.56
-30.67
-18.33
-6.50
4.12
13.02
19.82
24.12
25.77
24.91
22.13
18.41
14.80
12.22
11.17
11.64
13.27
15.39
17.25
18.21
17.89
16.26
13.65
10.47
7.16
3.95
0.87
-2.08
-4.91
-7.63
-10.31
-13.24
-16.78
-21.33
-26.96
-33.39
-40.01
-46.21
-51.64
-56.35
-60.69
-65.04
-69.71
-74.73
-80.00
-85.25
-90.08
-93.92
-95.91
-95.06
-90.43
-81.42
-68.11
-51.37
-32.78
-14.21
2.58
16.38
26.69
33.68
37.97
40.30
41.31
41.43
40.99
40.33
39.88
40.10
41.37
43.79
47.17
51.10
55.18
59.06
62.60
65.70
68.15
69.62
69.75
68.34
65.54
61.82
57.80
54.03
50.70
47.69
44.62
41.02
36.43
30.56
23.29
14.74
5.23
-4.76
-14.69
-24.19
-33.04
-41.24
-48.78
-55.35
-60.29
-62.66
-61.58
-56.60
-48.07
-37.00
-24.85
-12.90
-2.00
7.54
15.76
22.66
28.06
31.62
33.22
33.19
32.40
31.91
32.59
34.75
38.06
41.87
45.48
48.50
50.85
52.57
53.65
53.93
53.15
51.12
47.86
43.57
38.57
33.21
27.72
22.32
17.14
12.24
7.58
2.95
-1.93
-7.37
-13.47
-20.15
-27.07
-33.78
-39.90
-45.27
-50.17
-55.17
-61.01
-68.08
-75.98
-83.31
-87.89
-87.62
-81.20
-68.83
-52.24
-33.90
-16.19
-0.58
12.48
22.98
30.92
35.96
37.65
35.98
31.83
26.84
22.86
20.96
21.26
22.97
25.15
27.35
29.80
32.99
37.02
41.05
43.66
43.61
40.65
35.81
30.89
27.47
26.13
25.89
25.09
22.26
16.98
10.15
3.43
-1.76
-4.94
-7.12
-9.99
-15.06
-22.80
-32.30
-41.69
-49.01
-52.93
-53.40
-51.02
-46.43
-39.64
-30.07
-17.04
-0.72
17.53
35.11
49.27
58.13
61.39
60.26
56.73
52.63
49.12
46.37
44.10
42.07
40.33
39.19
38.95
39.59
40.84
42.02
42.49
41.71
39.46
35.83
31.15
25.85
20.43
15.15
10.03
4.83
-0.80
-7.14
-14.21
-21.73
-29.14
-35.87
-41.56
-46.31
-50.71
-55.67
-62.12
-70.51
-80.54
-91.03
-100.15
-105.93
-106.84
-102.18
-92.27
-78.28
-61.89
-44.85
-28.66
-14.45
-2.93
5.54
10.99
13.79
14.64
14.46
14.16
14.46
15.63
17.57
19.84
22.01
23.81
25.22
26.35
27.28
27.89
27.91
27.04
25.19
22.56
19.59
16.74
14.25
12.03
9.68
6.74
2.88
-1.90
-7.36
-13.10
-18.80
-24.32
-29.70
-35.14
-40.84
-46.97
-53.60
-60.73
-68.20
-75.61
-82.15
-86.55
-87.25
-82.76
-72.26
-56.03
-35.60
-13.46
7.77
26.03
40.38
51.04
58.85
64.64
68.83
71.39
72.14
71.22
69.23
67.15
65.92
66.02
67.26
68.98
70.35
70.85
70.40
69.31
68.01
66.71
65.28
63.31
60.45
56.63
52.22
47.83
43.94
40.60
37.33
33.34
27.97
21.04
12.93
4.42
-3.68
-10.94
-17.37
-23.44
-29.83
-37.14
-45.73
-55.56
-66.01
-75.91
-83.56
-87.14
-85.12
-76.82
-62.72
-44.42
-24.31
-4.90
11.75
24.43
32.83
37.33
38.67
37.74
35.34
32.23
29.11
26.59
25.12
24.88
25.76
27.36
29.18
30.77
31.89
32.62
33.19
33.84
34.60
35.21
35.19
34.05
31.49
27.58
22.71
17.43
12.17
7.16
2.29
-2.75
-8.29
-14.50
-21.31
-28.37
-35.16
-41.11
-45.95
-49.78
-53.18
-57.08
-62.37
-69.48
-77.98
-86.52
-93.19
-96.09
-93.94
-86.51
-74.60
-59.71
-43.61
-27.87
-13.73
-2.04
6.66
12.17
14.57
14.33
12.21
9.22
6.33
4.33
3.63
4.29
6.13
8.82
12.13
15.93
20.08
24.36
28.36
31.48
33.14
33.06
31.43
28.89
26.29
24.31
23.20
22.66
22.18
21.22
19.62
17.63
15.72
14.23
13.19
12.16
10.55
7.81
3.69
-1.70
-7.98
-14.61
-20.94
-26.14
-29.21
-29.09
-24.93
-16.38
-3.95
11.05
26.83
41.53
53.81
62.98
69.06
72.52
73.95
73.87
72.66
70.61
68.12
65.63
63.63
62.47
62.20
62.55
63.02
63.04
62.23
60.39
57.57
53.90
49.49
44.33
38.26
31.09
22.72
13.30
3.23
-6.75
-15.91
-23.73
-30.14
-35.63
-41.00
-46.95
-53.78
-61.23
-68.59
-75.05
-79.98
-83.04
-84.04
-82.64
-78.31
-70.48
-58.93
-44.23
-27.85
-11.82
1.85
11.75
17.40
19.23
18.16
15.26
11.44
7.40
3.74
1.00
-0.43
-0.33
1.12
3.39
5.76
7.56
8.32
7.99
6.82
5.22
3.53
1.79
-0.20
-2.82
-6.37
-10.87
-16.07
-21.43
-26.43
-30.71
-34.24
-37.21
-40.02
-43.08
-46.68
-50.80
-55.01
-58.46
-59.91
-58.13
-52.25
-42.16
-28.65
-13.17
2.53
16.81
28.53
37.09
42.36
44.52
43.93
41.12
36.73
31.58
26.52
22.33
19.56
18.40
18.65
19.81
21.25
22.44
22.96
22.61
21.35
19.26
16.47
13.10
9.29
5.05
0.33
-4.90
-10.55
-16.32
-21.76
-26.48
-30.33
-33.62
-37.01
-41.26
-47.01
-54.44
-63.17
-72.14
-79.81
-84.33
-83.99
-77.75
-65.56
-48.52
-28.64
-8.27
10.45
26.07
37.89
45.77
49.91
50.67
48.66
44.71
39.93
35.43
32.02
30.05
29.32
29.38
29.79
30.20
30.46
30.56
30.46
30.10
29.43
28.42
27.03
25.17
22.66
19.32
15.09
10.06
4.52
-1.20
-6.81
-12.17
-17.25
-22.10
-26.80
-31.43
-36.04
-40.70
-45.49
-50.83
-57.11
-64.62
-73.08
-81.32
-87.40
-89.13
-84.85
-74.43
-59.19
-41.48
-23.70
-7.45
6.77
19.08
29.61
37.83
42.88
44.13
41.84
37.41
32.87
29.90
29.21
30.08
31.10
31.09
29.80
28.08
27.37
28.67
32.00
36.00
38.79
38.79
35.54
29.91
23.59
18.24
14.84
13.23
12.47
11.41
9.16
5.38
0.22
-5.86
-12.20
-18.20
-23.27
-27.00
-29.31
-30.48
-31.22
-32.47
-35.11
-39.71
-46.14
-53.44
-59.84
-63.21
-61.70
-54.35
-41.61
-25.23
-7.77
8.20
20.83
29.33
33.82
34.98
33.67
30.64
26.55
21.99
17.52
13.68
10.87
9.32
9.03
9.82
11.36
13.33
15.43
17.54
19.67
21.86
24.10
26.24
28.00
29.01
29.04
28.03
26.22
23.99
21.75
19.77
18.05
16.36
14.29
11.39
7.43
2.51
-2.93
-8.22
-12.82
-16.57
-19.79
-23.24
-27.73
-33.84
-41.59
-50.33
-58.83
-65.51
-68.77
-67.34
-60.56
-48.65
-32.66
-14.36
4.19
21.07
34.89
45.00
51.39
54.50
54.98
53.51
50.77
47.39
43.92
40.82
38.42
36.81
35.95
35.62
35.56
35.48
35.17
34.49
33.50
32.32
31.13
30.01
28.84
27.29
24.94
21.53
17.11
12.08
7.08
2.68
-0.90
-3.84
-6.67
-9.90
-13.81
-18.24
-22.62
-26.35
-29.02
-30.67
-31.75
-32.98
-35.11
-38.59
-43.44
-49.23
-55.00
-59.46
-61.18
-58.87
-51.77
-39.87
-24.01
-5.74
13.05
30.52
45.22
56.29
63.42
66.71
66.57
63.57
58.41
51.94
45.07
38.70
33.45
29.64
27.18
25.67
24.60
23.54
22.25
20.66
18.77
16.53
13.81
10.39
6.16
1.22
-4.08
-9.24
-13.77
-17.41
-20.22
-22.55
-24.86
-27.52
-30.63
-33.94
-37.06
-39.60
-41.34
-42.40
-43.13
-44.09
-45.87
-48.88
-53.23
-58.50
-63.68
-67.31
-67.77
-63.75
-54.72
-41.21
-24.70
-7.26
9.03
22.50
32.22
37.97
40.02
38.97
35.53
30.50
24.77
19.20
14.60
11.54
10.17
10.31
11.52
13.23
15.02
16.55
17.60
17.97
17.44
15.89
13.32
9.95
6.15
2.28
-1.42
-4.98
-8.60
-12.49
-16.74
-21.18
-25.51
-29.39
-32.67
-35.45
-38.14
-41.28
-45.37
-50.63
-56.78
-63.01
-68.08
-70.52
-69.05
-62.95
-52.32
-38.10
-21.88
-5.47
9.47
21.78
30.80
36.35
38.55
37.81
34.74
30.11
24.90
20.04
16.30
14.17
13.72
14.70
16.59
18.74
20.47
21.22
20.66
18.79
15.88
12.34
8.58
4.80
0.92
-3.25
-7.91
-13.05
-18.44
-23.70
-28.43
-32.43
-35.73
-38.60
-41.46
-44.75
-48.87
-53.92
-59.57
-64.99
-68.84
-69.56
-65.90
-57.30
-44.24
-28.11
-10.84
5.65
19.88
31.03
38.79
43.26
44.70
43.50
40.27
35.77
30.92
26.58
23.36
21.52
20.98
21.35
22.16
22.92
23.17
22.61
21.06
18.56
15.34
11.79
8.35
5.30
2.64
0.14
-2.64
-6.02
-10.10
-14.61
-19.05
-22.93
-26.02
-28.48
-30.80
-33.61
-37.42
-42.41
-48.32
-54.57
-60.22
-64.17
-65.30
-62.65
-55.72
-44.61
-30.21
-14.03
2.08
16.34
27.45
34.77
38.34
38.75
36.86
33.62
29.88
26.33
23.44
21.46
20.52
20.61
21.59
23.20
25.05
26.64
27.47
27.14
25.51
22.71
19.13
15.22
11.40
7.86
4.56
1.26
-2.32
-6.32
-10.68
-15.15
-19.42
-23.26
-26.64
-29.69
-32.63
-35.68
-39.04
-42.93
-47.55
-52.98
-58.91
-64.44
-68.12
-68.34
-63.90
-54.65
-41.65
-26.91
-12.73
-1.01
7.28
12.07
13.90
13.47
11.28
7.66
2.96
-2.26
-7.16
-10.80
-12.56
-12.29
-10.43
-7.69
-4.75
-1.88
1.02
4.23
7.86
11.60
14.82
16.76
17.00
15.69
13.63
12.02
11.86
13.50
16.28
18.80
19.54
17.58
13.11
7.43
2.11
-1.71
-3.93
-5.51
-7.74
-11.56
-17.07
-23.61
-30.43
-36.81
-42.12
-45.63
-46.30
-43.07
-35.51
-24.34
-11.57
0.35
9.63
15.98
20.59
25.35
31.55
39.00
45.98
50.41
50.99
48.11
43.66
40.02
38.78
39.96
41.84
42.20
39.56
33.96
27.00
20.92
17.23
16.03
15.77
14.34
10.33
3.90
-3.23
-8.65
-10.58
-8.75
-4.63
-0.59
1.36
0.50
-2.45
-5.87
-8.30
-9.14
-8.99
-8.99
-10.12
-12.56
-15.65
-18.44
-20.28
-21.18
-21.82
-22.88
-24.47
-25.81
-25.52
-22.25
-15.39
-5.43
6.07
17.13
25.95
31.43
33.38
32.36
29.36
25.48
21.60
18.33
15.93
14.53
14.15
14.91
16.90
20.12
24.29
28.76
32.68
35.25
36.07
35.29
33.48
31.35
29.41
27.83
26.53
25.42
24.59
24.27
24.67
25.71
26.93
27.58
26.97
24.81
21.32
17.24
13.47
10.83
9.64
9.74
10.60
11.48
11.71
10.91
9.02
6.36
3.61
1.65
1.45
3.81
9.12
17.26
27.54
38.90
50.09
59.94
67.51
72.25
74.00
73.06
70.16
66.31
62.44
59.16
56.63
54.53
52.44
49.99
47.05
43.70
40.08
36.28
32.40
28.69
25.52
23.25
21.93
21.15
20.11
18.07
14.73
10.43
5.94
2.05
-0.86
-2.93
-4.64
-6.56
-9.10
-12.45
-16.71
-21.84
-27.74
-34.07
-40.33
-46.07
-50.97
-55.11
-58.85
-62.68
-67.03
-71.95
-77.12
-81.79
-85.00
-85.74
-83.27
-77.34
-68.37
-57.26
-45.26
-33.59
-23.23
-14.76
-8.29
-3.64
-0.46
1.65
2.98
3.68
3.80
3.46
2.97
2.78
3.41
5.16
7.90
11.10
13.98
15.84
16.35
15.61
14.06
12.20
10.32
8.43
6.26
3.55
0.17
-3.70
-7.67
-11.23
-14.08
-16.19
-17.82
-19.38
-21.17
-23.30
-25.61
-27.85
-29.90
-31.79
-33.68
-35.69
-37.74
-39.70
-41.49
-43.22
-45.26
-47.89
-51.08
-54.27
-56.39
-56.24
-52.90
-46.08
-36.29
-24.69
-12.78
-2.01
6.58
12.51
15.85
17.05
16.65
15.14
12.86
10.10
7.24
4.80
3.33
3.27
4.70
7.29
10.39
13.30
15.50
16.80
17.35
17.50
17.55
17.62
17.56
17.08
15.98
14.28
12.27
10.39
8.94
7.90
7.00
5.77
3.91
1.41
-1.46
-4.31
-6.80
-8.86
-10.72
-12.80
-15.51
-19.17
-23.80
-29.17
-34.72
-39.75
-43.47
-45.16
-44.27
-40.55
-34.12
-25.44
-15.35
-4.90
4.79
12.79
18.53
21.89
23.05
22.38
20.32
17.29
13.71
10.06
6.90
4.69
3.71
3.94
5.07
6.59
7.92
8.59
8.31
7.03
4.92
2.31
-0.40
-2.96
-5.28
-7.54
-10.01
-12.93
-16.36
-20.10
-23.78
-27.04
-29.70
-31.82
-33.65
-35.48
-37.52
-39.83
-42.33
-44.87
-47.17
-48.82
-49.11
-47.11
-41.89
-32.84
-20.15
-4.92
11.01
25.55
37.04
44.66
48.52
49.31
47.88
44.88
40.71
35.64
30.11
24.79
20.45
17.63
16.39
16.23
16.34
15.91
14.50
12.13
9.15
6.02
3.03
0.20
-2.69
-5.82
-9.27
-12.87
-16.30
-19.19
-21.33
-22.67
-23.34
-23.56
-23.56
-23.54
-23.60
-23.80
-24.20
-24.91
-26.14
-28.13
-30.84
-33.83
-36.12
-36.40
-33.48
-26.86
-17.03
-5.38
6.33
16.59
24.71
30.83
35.54
39.37
42.43
44.41
44.99
44.21
42.66
41.29
41.00
42.18
44.55
47.33
49.63
50.85
50.87
49.98
48.58
46.95
45.05
42.57
39.18
34.70
29.33
23.62
18.27
13.83
10.45
7.81
5.22
2.00
-2.24
-7.30
-12.60
-17.41
-21.26
-24.15
-26.49
-28.95
-32.06
-36.16
-41.27
-47.19
-53.54
-59.63
-64.42
-66.62
-64.96
-58.75
-48.30
-34.90
-20.55
-7.24
3.71
11.91
17.86
22.35
25.98
28.83
30.60
31.02
30.19
28.78
27.82
28.17
30.13
33.21
36.40
38.66
39.44
38.91
37.71
36.38
35.13
33.75
31.86
29.39
26.74
24.54
23.23
22.57
21.75
19.85
16.38
11.71
6.88
2.95
0.38
-1.40
-3.54
-7.07
-12.22
-18.17
-23.56
-27.25
-28.94
-29.63
-30.83
-33.90
-39.26
-46.13
-52.84
-57.60
-59.05
-56.98
-51.80
-44.28
-34.97
-24.06
-11.56
2.12
15.99
28.19
36.91
41.03
40.85
37.97
34.67
32.84
33.31
35.50
38.11
39.87
40.28
39.68
38.93
38.73
39.35
40.31
40.88
40.41
38.73
36.10
33.09
30.23
27.84
25.80
23.79
21.48
18.66
15.46
12.13
9.05
6.47
4.36
2.45
0.25
-2.65
-6.44
-10.95
-15.71
-20.08
-23.55
-25.99
-27.70
-29.30
-31.49
-34.81
-39.41
-44.98
-50.77
-55.77
-58.78
-58.73
-54.88
-47.09
-35.91
-22.46
-8.30
5.06
16.38
24.91
30.43
33.14
33.51
32.17
29.86
27.33
25.29
24.29
24.60
26.13
28.48
31.11
33.49
35.27
36.26
36.45
35.90
34.78
33.28
31.66
30.14
28.74
27.31
25.48
22.89
19.41
15.32
11.15
7.45
4.47
1.97
-0.61
-3.90
-8.14
-13.09
-18.11
-22.51
-25.85
-28.21
-30.03
-31.91
-34.34
-37.51
-41.37
-45.71
-50.19
-54.34
-57.39
-58.39
-56.32
-50.54
-41.04
-28.68
-15.00
-1.82
9.24
17.16
21.66
23.13
22.29
19.93
16.71
13.07
9.39
6.06
3.55
2.27
2.47
4.00
6.37
8.93
11.05
12.38
12.91
12.87
12.52
12.05
11.49
10.71
9.55
7.94
5.98
3.92
2.18
1.11
0.84
1.18
1.71
1.97
1.74
1.15
0.66
0.75
1.60
2.94
4.12
4.37
3.15
0.35
-3.79
-8.91
-14.68
-20.81
-26.79
-31.74
-34.42
-33.59
-28.49
-19.39
-7.55
5.15
16.76
25.99
32.38
36.12
37.73
37.55
35.76
32.46
27.95
22.91
18.23
14.78
12.99
12.72
13.32
13.97
14.00
13.15
11.57
9.61
7.64
5.79
4.00
2.09
-0.08
-2.54
-5.13
-7.68
-10.00
-12.04
-13.92
-15.88
-18.17
-20.94
-24.13
-27.42
-30.34
-32.54
-33.91
-34.75
-35.71
-37.49
-40.50
-44.61
-49.03
-52.59
-54.01
-52.29
-46.98
-38.27
-26.92
-14.08
-1.05
10.96
21.02
28.57
33.44
35.70
35.64
33.63
30.21
26.03
21.84
18.35
16.06
15.17
15.47
16.55
17.89
19.03
19.67
19.62
18.78
17.17
14.85
11.96
8.71
5.25
1.68
-2.05
-6.01
-10.24
-14.70
-19.16
-23.36
-27.09
-30.30
-33.20
-36.21
-39.80
-44.35
-49.92
-56.08
-61.90
-66.08
-67.25
-64.40
-57.17
-46.06
-32.34
-17.62
-3.49
8.86
18.78
26.07
30.84
33.23
33.47
31.92
29.13
25.84
22.86
20.84
20.11
20.63
22.02
23.81
25.49
26.68
27.10
26.52
24.92
22.37
19.16
15.63
12.10
8.64
5.08
1.09
-3.59
-8.98
-14.76
-20.41
-25.44
-29.64
-33.16
-36.50
-40.24
-44.88
-50.68
-57.53
-64.89
-71.76
-76.76
-78.40
-75.43
-67.32
-54.49
-38.26
-20.58
-3.48
11.45
23.27
31.77
37.24
40.21
41.30
41.08
40.07
38.73
37.44
36.47
35.97
35.95
36.36
37.07
37.92
38.68
39.08
38.75
37.35
34.77
31.15
26.92
22.57
18.48
14.74
11.16
7.42
3.28
-1.28
-6.08
-10.87
-15.49
-19.94
-24.31
-28.77
-33.42
-38.31
-43.59
-49.43
-55.93
-62.90
-69.57
-74.55
-76.15
-72.89
-64.15
-50.55
-33.81
-16.24
-0.03
13.39
23.56
30.79
35.71
38.87
40.54
40.84
39.96
38.35
36.71
35.82
36.13
37.66
39.90
42.04
43.40
43.65
42.93
41.66
40.22
38.66
36.71
33.93
30.01
25.09
19.72
14.65
10.46
7.26
4.60
1.80
-1.80
-6.41
-11.71
-17.05
-21.72
-25.39
-28.20
-30.73
-33.71
-37.73
-43.00
-49.27
-55.89
-61.85
-65.96
-66.96
-63.87
-56.20
-44.25
-29.13
-12.55
3.57
17.62
28.61
36.33
41.11
43.53
44.10
43.22
41.24
38.58
35.86
33.72
32.69
32.96
34.30
36.17
37.91
38.97
39.04
38.08
36.25
33.88
31.22
28.45
25.62
22.62
19.38
15.94
12.41
8.96
5.42
1.53
-3.02
-8.28
-13.79
-18.75
-22.45
-24.73
-26.43
-28.93
-33.54
-40.71
-49.53
-57.99
-63.74
-64.90
-60.91
-52.38
-40.70
-27.30
-13.26
0.77
14.23
26.40
36.10
42.20
44.07
42.08
37.59
32.51
28.57
26.76
26.98
28.41
30.09
31.37
32.11
32.53
32.83
33.01
32.68
31.37
28.77
24.97
20.45
15.85
11.71
8.31
5.46
2.71
-0.46
-4.39
-9.12
-14.36
-19.64
-24.45
-28.53
-31.97
-35.15
-38.64
-42.97
-48.48
-55.12
-62.37
-69.18
-74.12
-75.60
-72.35
-63.87
-50.68
-34.37
-17.07
-0.90
12.59
22.71
29.48
33.33
34.77
34.28
32.37
29.69
27.04
25.17
24.53
25.12
26.53
28.13
29.40
30.09
30.26
30.05
29.53
28.63
27.13
24.79
21.55
17.57
13.20
8.91
5.13
2.04
-0.44
-2.65
-5.08
-8.12
-11.93
-16.36
-21.08
-25.66
-29.80
-33.41
-36.62
-39.78
-43.35
-47.81
-53.51
-60.39
-67.74
-74.22
-78.02
-77.38
-71.21
-59.52
-43.58
-25.53
-7.79
7.72
19.91
28.67
34.47
37.96
39.63
39.69
38.36
36.01
33.37
31.31
30.59
31.51
33.76
36.56
39.00
40.42
40.66
39.97
38.81
37.50
36.08
34.22
31.59
27.95
23.47
18.62
14.04
10.25
7.39
5.21
3.18
0.73
-2.50
-6.53
-11.10
-15.79
-20.26
-24.31
-27.95
-31.42
-34.98
-38.97
-43.70
-49.32
-55.76
-62.52
-68.57
-72.44
-72.52
-67.62
-57.46
-42.86
-25.65
-8.07
7.90
21.00
30.84
37.58
41.59
43.16
42.54
40.12
36.62
33.06
30.47
29.48
30.16
31.94
33.97
35.42
35.90
35.42
34.38
33.15
31.92
30.58
28.75
26.08
22.37
17.79
12.79
7.99
3.87
0.63
-1.95
-4.37
-7.17
-10.69
-14.88
-19.40
-23.74
-27.53
-30.69
-33.47
-36.31
-39.67
-43.90
-49.20
-55.55
-62.64
-69.70
-75.42
-78.08
-76.01
-68.15
-54.65
-36.94
-17.44
1.23
17.01
28.94
37.10
42.24
45.15
46.38
46.13
44.56
42.03
39.27
37.16
36.46
37.41
39.65
42.35
44.54
45.57
45.30
44.04
42.32
40.56
38.84
36.86
34.21
30.62
26.13
21.13
16.16
11.67
7.80
4.36
0.90
-3.05
-7.79
-13.32
-19.30
-25.23
-30.63
-35.32
-39.45
-43.48
-48.00
-53.50
-60.15
-67.79
-75.83
-83.27
-88.78
-90.85
-88.15
-79.93
-66.36
-48.65
-28.79
-9.03
8.67
23.05
33.65
40.62
44.43
45.67
44.89
42.74
39.94
37.30
35.58
35.27
36.48
38.89
41.83
44.52
46.32
46.88
46.18
44.48
42.17
39.59
36.88
33.99
30.70
26.86
22.51
17.97
13.72
10.16
7.33
4.84
2.03
-1.72
-6.62
-12.35
-18.15
-23.22
-27.10
-29.85
-32.02
-34.39
-37.71
-42.44
-48.70
-56.17
-64.09
-71.24
-76.06
-76.93
-72.59
-62.63
-47.66
-29.32
-9.83
8.58
24.18
36.07
44.10
48.63
50.33
49.88
47.93
45.20
42.40
40.26
39.30
39.65
41.00
42.69
43.95
44.19
43.23
41.27
38.72
35.91
33.02
29.96
26.54
22.66
18.40
14.01
9.88
6.32
3.48
1.24
-0.78
-3.08
-6.16
-10.27
-15.34
-20.93
-26.42
-31.19
-34.96
-37.80
-40.18
-42.78
-46.30
-51.20
-57.56
-64.94
-72.34
-78.31
-81.19
-79.53
-72.55
-60.44
-44.35
-26.16
-7.98
8.33
21.49
30.89
36.49
38.67
38.11
35.65
32.23
28.80
26.18
24.91
25.14
26.64
28.91
31.31
33.32
34.58
34.97
34.54
33.44
31.83
29.85
27.57
25.03
22.23
19.21
16.07
12.98
10.12
7.56
5.18
2.65
-0.45
-4.42
-9.20
-14.39
-19.36
-23.58
-26.91
-29.64
-32.42
-36.02
-41.00
-47.52
-55.18
-63.04
-69.68
-73.53
-73.20
-67.88
-57.65
-43.45
-26.80
-9.52
6.81
20.98
32.18
40.04
44.53
45.92
44.82
41.86
37.75
33.21
29.01
25.94
24.74
25.72
28.56
32.15
35.02
35.96
34.61
31.63
28.37
26.00
24.91
24.37
23.13
20.19
15.47
9.98
5.22
2.31
1.37
1.18
0.06
-3.32
-9.08
-16.04
-22.37
-26.62
-28.46
-29.01
-30.08
-33.17
-38.74
-46.04
-53.67
-60.34
-65.27
-68.32
-69.38
-67.97
-63.14
-54.02
-40.43
-23.38
-4.84
12.74
27.30
37.74
43.95
46.57
46.49
44.57
41.62
38.30
35.29
33.18
32.39
32.96
34.56
36.60
38.52
39.88
40.51
40.40
39.61
38.18
36.07
33.22
29.71
25.73
21.60
17.60
13.94
10.67
7.66
4.68
1.50
-2.02
-5.87
-9.93
-13.96
-17.77
-21.27
-24.48
-27.57
-30.79
-34.47
-38.89
-44.21
-50.23
-56.21
-60.84
-62.48
-59.64
-51.59
-38.73
-22.63
-5.52
10.40
23.60
33.44
40.02
43.71
44.85
43.61
40.20
35.08
29.21
23.80
20.06
18.68
19.63
22.10
24.90
26.89
27.41
26.37
24.18
21.36
18.30
15.14
11.81
8.26
4.53
0.77
-2.89
-6.45
-10.07
-13.88
-17.91
-21.97
-25.78
-29.14
-32.08
-34.94
-38.26
-42.57
-48.17
-54.88
-61.90
-67.79
-70.79
-69.29
-62.34
-50.12
-33.93
-15.90
1.74
17.19
29.46
38.36
44.11
47.09
47.63
46.07
42.98
39.19
35.71
33.41
32.72
33.50
35.13
36.79
37.85
38.05
37.43
36.15
34.26
31.64
28.08
23.53
18.23
12.78
7.80
3.72
0.53
-2.22
-5.23
-9.08
-13.96
-19.58
-25.34
-30.56
-34.89
-38.38
-41.55
-45.17
-50.00
-56.50
-64.59
-73.43
-81.44
-86.57
-86.83
-80.93
-68.80
-51.70
-31.89
-11.94
5.96
20.52
31.34
38.65
42.94
44.73
44.47
42.69
40.15
37.70
36.16
35.97
37.06
38.92
40.74
41.87
41.99
41.20
39.85
38.28
36.58
34.57
31.93
28.41
24.04
19.12
14.11
9.42
5.26
1.59
-1.89
-5.52
-9.56
-14.07
-18.90
-23.75
-28.35
-32.51
-36.30
-39.99
-44.00
-48.85
-54.95
-62.39
-70.63
-78.40
-83.75
-84.62
-79.44
-67.87
-51.03
-31.19
-11.05
7.15
22.14
33.71
42.22
48.12
51.62
52.70
51.48
48.44
44.55
40.99
38.73
38.21
39.18
40.89
42.45
43.27
43.15
42.32
41.10
39.74
38.21
36.20
33.37
29.53
24.78
19.59
14.53
10.07
6.42
3.42
0.69
-2.17
-5.45
-9.27
-13.58
-18.22
-22.94
-27.48
-31.60
-35.16
-38.24
-41.17
-44.52
-48.93
-54.88
-62.38
-70.75
-78.56
-83.83
-84.52
-79.19
-67.55
-50.61
-30.52
-9.84
9.21
25.24
37.76
46.90
52.90
56.02
56.47
54.71
51.64
48.41
46.14
45.53
46.53
48.47
50.39
51.49
51.37
50.14
48.20
45.99
43.73
41.47
39.02
36.17
32.77
28.77
24.28
19.53
14.76
10.25
6.17
2.53
-0.81
-4.11
-7.67
-11.66
-16.15
-20.99
-25.93
-30.68
-34.98
-38.74
-42.07
-45.32
-49.03
-53.75
-59.82
-67.04
-74.45
-80.43
-83.04
-80.54
-72.08
-58.02
-39.86
-19.86
-0.36
16.79
30.47
40.29
46.33
48.87
48.30
45.24
40.64
35.70
31.74
29.67
29.82
31.74
34.49
37.04
38.71
39.30
39.06
38.37
37.45
36.28
34.64
32.26
29.06
25.13
20.76
16.30
12.08
8.33
5.08
2.19
-0.65
-3.78
-7.46
-11.75
-16.46
-21.24
-25.75
-29.74
-33.16
-36.15
-39.07
-42.36
-46.55
-52.00
-58.76
-66.26
-73.21
-77.76
-77.99
-72.60
-61.41
-45.56
-27.14
-8.55
8.24
22.04
32.41
39.35
42.97
43.41
41.06
36.68
31.54
27.04
24.31
23.79
25.18
27.64
30.24
32.38
33.86
34.78
35.26
35.18
34.18
31.86
28.09
23.18
17.85
12.93
9.00
6.07
3.62
0.83
-2.93
-7.78
-13.38
-19.02
-24.14
-28.50
-32.30
-35.93
-39.87
-44.49
-50.23
-57.39
-65.93
-75.04
-82.98
-87.33
-85.81
-77.16
-62.03
-42.67
-22.17
-3.29
12.40
24.70
34.14
41.21
45.84
47.52
45.89
41.36
35.28
29.56
25.91
25.21
27.01
30.04
32.82
34.41
34.76
34.53
34.40
34.65
34.60
33.19
29.56
23.68
16.60
9.98
5.23
2.85
2.03
1.20
-1.16
-5.67
-11.76
-18.08
-23.23
-26.53
-28.36
-29.79
-31.96
-35.55
-40.52
-46.46
-52.85
-59.27
-65.35
-70.39
-73.24
-72.46
-66.85
-56.06
-40.92
-23.19
-5.13
11.22
24.52
34.19
40.32
43.34
43.79
42.29
39.50
36.14
32.95
30.62
29.57
29.90
31.31
33.28
35.21
36.59
37.14
36.81
35.65
33.71
31.02
27.58
23.48
18.96
14.40
10.20
6.61
3.63
0.94
-1.94
-5.45
-9.79
-14.82
-20.11
-25.13
-29.52
-33.18
-36.36
-39.53
-43.24
-48.03
-54.24
-61.94
-70.61
-79.07
-85.46
-87.64
-83.83
-73.33
-56.90
-36.56
-15.07
5.02
21.95
35.00
44.22
49.98
52.62
52.44
49.86
45.67
41.04
37.22
35.20
35.26
37.00
39.52
41.81
43.21
43.52
42.98
41.94
40.61
38.90
36.51
33.15
28.75
23.57
18.14
13.06
8.72
5.22
2.33
-0.48
-3.71
-7.74
-12.61
-18.06
-23.58
-28.65
-32.95
-36.50
-39.63
-42.93
-47.01
-52.30
-58.93
-66.56
-74.25
-80.51
-83.48
-81.40
-73.20
-58.94
-39.96
-18.59
2.51
21.11
35.83
46.25
52.64
55.55
55.56
53.23
49.23
44.46
40.02
36.92
35.76
36.54
38.62
41.07
43.07
44.22
44.56
44.41
44.00
43.25
41.78
39.11
35.01
29.65
23.62
17.74
12.65
8.58
5.32
2.26
-1.24
-5.60
-10.81
-16.43
-21.88
-26.63
-30.52
-33.79
-36.93
-40.52
-44.95
-50.38
-56.63
-63.19
-69.09
-72.94
-73.13
-68.29
-57.80
-42.20
-23.29
-3.57
14.50
29.16
39.67
46.18
49.26
49.55
47.51
43.61
38.55
33.30
28.96
26.43
26.07
27.64
30.37
33.32
35.69
37.00
37.08
35.96
33.84
30.92
27.39
23.43
19.24
14.95
10.69
6.47
2.26
-1.98
-6.26
-10.52
-14.64
-18.56
-22.30
-26.01
-29.92
-34.28
-39.34
-45.27
-52.07
-59.44
-66.53
-71.95
-74.00
-71.06
-62.35
-48.23
-30.35
-11.14
6.89
21.81
32.71
39.59
43.00
43.57
41.86
38.28
33.40
28.03
23.25
20.12
19.29
20.74
23.75
27.19
30.00
31.46
31.40
30.03
27.69
24.62
20.94
16.67
11.92
6.93
1.96
-2.72
-7.05
-11.13
-15.16
-19.36
-23.83
-28.46
-33.04
-37.40
-41.57
-45.84
-50.74
-56.68
-63.58
-70.55
-75.90
-77.56
-73.74
-63.61
-47.73
-27.89
-6.61
13.59
30.84
44.18
53.43
58.87
60.89
59.85
56.27
50.93
44.93
39.54
35.84
34.28
34.63
36.02
37.43
38.06
37.62
36.23
34.20
31.73
28.81
25.23
20.88
15.85
10.55
5.46
0.95
-2.95
-6.55
-10.32
-14.62
-19.46
-24.55
-29.37
-33.53
-36.94
-39.88
-42.98
-46.94
-52.32
-59.24
-67.10
-74.56
-79.67
-80.41
-75.30
-63.98
-47.44
-27.72
-7.31
11.58
27.47
39.66
48.09
52.93
54.50
53.27
49.97
45.65
41.47
38.42
37.02
37.18
38.33
39.67
40.58
40.77
40.26
39.29
37.98
36.30
34.02
30.95
27.03
22.46
17.59
12.83
8.40
4.31
0.34
-3.75
-8.13
-12.80
-17.58
-22.23
-26.57
-30.56
-34.32
-38.11
-42.26
-47.16
-53.08
-59.99
-67.43
-74.30
-78.97
-79.58
-74.63
-63.56
-47.10
-27.14
-6.29
12.95
28.79
40.41
47.88
51.69
52.41
50.55
46.67
41.53
36.26
32.06
29.87
29.97
31.81
34.32
36.29
36.97
36.26
34.63
32.78
31.18
29.80
28.14
25.57
21.67
16.59
11.01
5.80
1.60
-1.51
-4.05
-6.81
-10.39
-14.87
-19.82
-24.68
-29.05
-32.96
-36.77
-40.87
-45.51
-50.71
-56.40
-62.43
-68.43
-73.56
-76.37
-75.07
-68.16
-55.16
-37.02
-15.96
5.22
24.01
38.84
49.16
55.24
57.69
57.30
54.73
50.84
46.58
42.92
40.70
40.33
41.70
44.23
46.87
48.63
48.83
47.36
44.67
41.59
38.80
36.50
34.17
30.91
26.05
19.54
12.20
5.28
-0.17
-3.94
-6.85
-10.21
-14.96
-21.08
-27.52
-32.73
-35.68
-36.38
-36.20
-36.99
-40.32
-46.69
-55.36
-64.76
-73.07
-78.67
-80.48
-77.87
-70.63
-59.02
-43.91
-26.77
-9.51
5.98
18.17
26.23
30.11
30.34
27.81
23.57
18.60
13.82
9.94
7.38
6.27
6.41
7.34
8.44
9.14
8.98
7.67
5.13
1.42
-3.25
-8.53
-13.96
-19.15
-23.83
-27.96
-31.70
-35.28
-38.82
-42.25
-45.26
-47.46
-48.45
-48.07
-46.45
-44.10
-41.88
-40.84
-41.96
-45.77
-51.95
-59.11
-65.08
-67.47
-64.53
-55.79
-42.25
-26.04
-9.64
4.82
16.07
23.66
27.71
28.52
26.48
22.14
16.35
10.26
5.11
1.92
1.25
3.06
6.77
11.52
16.37
20.48
23.23
24.32
23.80
22.08
19.74
17.20
14.70
12.36
10.10
7.78
5.26
2.36
-1.01
-4.89
-9.26
-13.89
-18.08
-21.24
-23.19
-24.44
-26.00
-28.84
-33.21
-38.59
-43.29
-44.74
-40.75
-30.44
-14.70
4.12
23.14
39.97
53.08
62.64
70.65
79.67
91.88
108.30
128.58
151.44
175.14
197.44
211.88
212.86
197.43
167.53
129.53
91.05
57.95
35.26
21.39
13.73
10.47
10.38
12.49
15.77
18.11
18.25
15.88
11.31
5.96
1.67
-0.49
-0.79
-0.67
-2.16
-6.70
-14.55
-25.04
-36.12
-45.08
-49.49
-47.74
-39.45
-25.58
-7.93
11.20
29.42
45.16
57.71
66.93
72.93
75.77
75.53
72.51
67.37
60.96
54.29
48.10
42.67
37.82
33.03
27.69
21.20
13.07
2.89
-9.49
-23.82
-39.43
-55.33
-70.46
-84.06
-95.85
-106.04
-115.08
-123.30
-130.70
-136.90
-141.38
-143.86
-144.44
-143.81
-143.06
-143.34
-145.51
-149.66
-154.88
-159.28
-160.34
-155.73
-144.12
-125.73
-102.34
-76.76
-51.94
-30.19
-12.76
0.04
8.57
13.47
15.46
15.31
13.88
12.10
10.95
11.19
13.26
17.06
21.95
26.91
30.87
33.10
33.50
32.58
31.13
29.86
29.00
28.34
27.40
25.74
23.13
19.61
15.36
10.61
5.65
0.67
-4.20
-9.07
-14.24
-20.21
-27.54
-36.50
-46.90
-57.85
-67.79
-74.69
-76.52
-71.80
-60.13
-42.39
-20.61
2.59
24.58
43.38
57.95
68.00
73.83
75.90
74.74
70.95
65.24
58.48
51.68
45.83
41.70
39.66
39.56
40.75
42.25
43.05
42.43
40.10
36.19
31.04
25.02
18.40
11.33
3.92
-3.62
-11.07
-18.14
-24.62
-30.35
-35.12
-38.68
-40.70
-40.92
-39.34
-36.35
-32.69
-29.32
-26.97
-25.77
-25.04
-23.28
-18.68
-9.71
4.15
22.12
42.33
62.36
80.04
93.94
103.58
109.19
111.28
110.36
106.82
101.06
93.72
85.73
78.12
71.79
67.09
63.75
61.04
58.06
54.22
49.43
44.00
38.35
32.65
26.69
20.01
12.23
3.35
-6.11
-15.39
-23.74
-30.80
-36.66
-41.79
-46.80
-52.26
-58.51
-65.60
-73.26
-80.78
-87.04
-90.60
-90.07
-84.46
-73.66
-58.47
-40.57
-22.03
-4.86
9.42
19.92
26.40
29.10
28.55
25.50
20.84
15.52
10.52
6.65
4.48
4.14
5.40
7.71
10.35
12.66
14.14
14.53
13.75
11.83
8.81
4.76
-0.21
-5.86
-11.80
-17.61
-22.96
-27.72
-32.06
-36.39
-41.24
-47.16
-54.44
-62.88
-71.55
-78.81
-82.62
-81.18
-73.59
-60.25
-42.89
-23.90
-5.58
10.47
23.51
33.43
40.27
43.99
44.55
42.14
37.49
31.78
26.42
22.51
20.50
20.11
20.53
20.85
20.41
19.07
17.19
15.39
14.22
13.79
13.69
13.13
11.30
7.76
2.73
-3.03
-8.57
-13.17
-16.65
-19.36
-21.91
-24.94
-28.90
-33.94
-39.93
-46.33
-52.09
-55.72
-55.50
-50.21
-39.55
-24.58
-7.50
9.13
23.19
33.65
40.59
44.73
46.92
47.66
47.12
45.44
43.01
40.49
38.56
37.42
36.77
35.95
34.42
32.22
29.95
28.42
28.12
28.71
29.25
28.69
26.35
22.29
17.14
11.61
6.21
0.82
-4.79
-10.75
-16.78
-22.32
-26.87
-30.48
-33.84
-38.25
-44.81
-53.72
-63.83
-72.76
-77.69
-76.41
-68.17
-54.14
-36.82
-19.09
-3.27
9.53
19.27
26.48
31.72
35.07
36.36
35.55
33.09
29.96
27.36
26.11
26.38
27.49
28.39
28.16
26.44
23.50
19.97
16.49
13.41
10.75
8.34
5.99
3.50
0.70
-2.72
-7.05
-12.45
-18.73
-25.32
-31.42
-36.39
-40.06
-42.85
-45.54
-48.90
-53.20
-58.00
-62.06
-63.83
-61.75
-54.72
-42.25
-24.69
-3.38
19.25
39.95
55.50
63.91
65.29
61.84
56.85
53.22
52.11
52.73
53.11
51.60
47.90
43.27
39.74
38.83
40.73
44.20
47.15
47.64
44.51
37.73
28.36
18.11
8.93
2.54
-0.13
0.98
4.93
10.13
14.74
17.34
17.24
14.55
9.90
4.02
-2.61
-9.80
-17.50
-25.61
-33.94
-42.31
-50.62
-58.77
-66.46
-72.88
-76.74
-76.67
-71.81
-62.27
-49.25
-34.78
-21.05
-9.84
-2.19
1.65
1.98
-0.54
-5.08
-10.61
-15.86
-19.35
-19.60
-15.55
-6.98
5.27
19.44
33.34
44.98
53.11
57.44
58.41
56.83
53.43
48.70
42.95
36.49
29.69
23.02
16.79
11.07
5.67
0.23
-5.50
-11.51
-17.53
-23.18
-28.26
-32.94
-37.78
-43.52
-50.65
-59.00
-67.53
-74.45
-77.77
-75.92
-68.34
-55.65
-39.43
-21.72
-4.49
10.80
23.30
32.64
38.78
41.86
42.14
40.06
36.30
31.75
27.42
24.21
22.65
22.79
24.22
26.25
28.16
29.43
29.77
29.12
27.57
25.21
22.23
18.83
15.27
11.73
8.25
4.68
0.78
-3.63
-8.50
-13.49
-18.12
-21.95
-24.79
-26.86
-28.67
-30.93
-34.28
-39.05
-45.15
-51.82
-57.78
-61.41
-61.17
-56.06
-46.02
-32.03
-15.84
0.54
15.32
27.34
36.13
41.65
44.15
43.92
41.40
37.25
32.33
27.69
24.20
22.37
22.20
23.27
24.97
26.75
28.18
29.02
29.06
28.16
26.21
23.24
19.48
15.31
11.14
7.21
3.55
0.02
-3.58
-7.38
-11.39
-15.49
-19.56
-23.50
-27.33
-31.15
-35.17
-39.65
-44.83
-50.66
-56.75
-62.15
-65.53
-65.50
-61.07
-52.10
-39.36
-24.36
-8.90
5.43
17.52
26.79
33.04
36.25
36.51
34.14
29.76
24.32
18.96
14.79
12.51
12.29
13.74
16.09
18.48
20.18
20.78
20.19
18.63
16.37
13.71
10.79
7.64
4.18
0.36
-3.81
-8.17
-12.50
-16.55
-20.17
-23.35
-26.20
-29.03
-32.23
-36.22
-41.31
-47.46
-54.06
-59.91
-63.40
-62.97
-57.70
-47.60
-33.72
-17.76
-1.56
13.37
26.05
35.92
42.63
45.96
45.82
42.52
36.94
30.43
24.56
20.60
19.17
20.07
22.48
25.26
27.43
28.35
27.88
26.16
23.51
20.27
16.66
12.81
8.75
4.47
-0.05
-4.79
-9.63
-14.38
-18.85
-22.87
-26.43
-29.70
-33.07
-37.01
-41.99
-48.26
-55.61
-63.16
-69.39
-72.35
-70.28
-62.28
-48.81
-31.68
-13.57
2.97
16.30
25.95
32.43
36.55
38.94
39.86
39.43
38.04
36.41
35.48
35.88
37.71
40.45
43.28
45.53
46.87
47.34
47.11
46.29
44.85
42.72
39.85
36.38
32.50
28.43
24.19
19.69
14.75
9.31
3.49
-2.41
-8.02
-13.06
-17.51
-21.58
-25.72
-30.45
-36.22
-43.18
-50.96
-58.64
-64.73
-67.57
-65.77
-58.73
-46.89
-31.74
-15.31
0.37
13.78
24.14
31.33
35.59
37.33
36.98
35.04
32.15
29.05
26.50
24.99
24.68
25.38
26.65
28.06
29.27
30.04
30.21
29.63
28.18
25.84
22.74
19.23
15.63
12.25
9.12
6.08
2.85
-0.72
-4.61
-8.59
-12.50
-16.24
-19.94
-23.78
-27.90
-32.23
-36.73
-41.46
-46.77
-52.99
-60.04
-67.01
-72.14
-73.28
-68.70
-57.89
-41.96
-23.22
-4.43
12.16
25.35
35.00
41.57
45.59
47.20
46.43
43.52
39.23
34.96
32.23
32.04
34.40
38.11
41.47
43.03
42.31
39.95
37.24
35.30
34.41
33.79
32.17
28.66
23.33
17.24
11.93
8.41
6.71
5.70
3.82
-0.01
-5.85
-12.70
-19.18
-24.18
-27.47
-29.76
-32.18
-35.78
-41.05
-47.83
-55.36
-62.46
-67.62
-69.38
-66.52
-58.50
-45.70
-29.51
-11.88
5.14
19.94
31.54
39.59
44.14
45.50
44.16
40.88
36.65
32.62
29.71
28.45
28.75
30.09
31.75
33.08
33.79
33.84
33.40
32.57
31.35
29.57
27.06
23.76
19.80
15.54
11.31
7.39
3.80
0.40
-3.07
-6.82
-10.91
-15.21
-19.48
-23.49
-27.11
-30.40
-33.62
-37.13
-41.29
-46.40
-52.50
-59.26
-65.83
-70.85
-72.72
-69.99
-61.90
-48.69
-31.68
-12.95
5.24
20.95
32.92
40.67
44.32
44.43
41.83
37.49
32.46
27.79
24.32
22.57
22.69
24.39
27.08
30.02
32.46
33.80
33.72
32.18
29.43
25.90
22.09
18.39
14.96
11.67
8.21
4.21
-0.53
-5.88
-11.45
-16.67
-21.12
-24.68
-27.65
-30.54
-33.95
-38.35
-44.02
-50.96
-58.86
-66.91
-73.73
-77.53
-76.50
-69.42
-56.27
-38.34
-18.00
2.04
19.45
32.88
41.97
47.15
49.18
48.84
46.78
43.62
40.04
36.76
34.48
33.67
34.37
36.15
38.28
39.96
40.62
40.09
38.51
36.21
33.38
30.09
26.24
21.77
16.82
11.76
7.00
2.83
-0.80
-4.29
-8.17
-12.81
-18.22
-24.01
-29.63
-34.56
-38.68
-42.24
-45.81
-50.07
-55.60
-62.63
-70.90
-79.50
-86.86
-90.97
-89.91
-82.43
-68.55
-49.68
-28.27
-7.06
11.66
26.52
37.16
43.88
47.36
48.23
47.12
44.67
41.62
38.77
36.82
36.17
36.80
38.31
40.08
41.55
42.33
42.36
41.80
40.85
39.61
37.99
35.77
32.76
28.92
24.45
19.76
15.32
11.43
8.10
5.04
1.80
-2.01
-6.52
-11.53
-16.57
-21.16
-25.03
-28.22
-31.08
-34.17
-38.08
-43.25
-49.91
-57.91
-66.52
-74.40
-79.67
-80.32
-74.89
-63.02
-45.78
-25.41
-4.64
14.13
29.41
40.75
48.41
52.85
54.44
53.45
50.31
45.85
41.34
38.11
37.08
38.36
41.26
44.58
47.14
48.25
47.84
46.37
44.39
42.28
40.02
37.33
33.85
29.46
24.36
19.04
14.08
9.85
6.44
3.53
0.60
-2.91
-7.28
-12.46
-18.02
-23.39
-28.11
-31.93
-35.03
-37.87
-41.03
-45.08
-50.41
-57.10
-64.88
-72.86
-79.63
-83.34
-82.18
-74.99
-61.76
-43.88
-23.71
-3.95
13.14
26.22
34.97
39.71
41.04
39.54
35.77
30.47
24.65
19.48
15.99
14.76
15.68
18.11
21.07
23.74
25.59
26.42
26.30
25.30
23.44
20.69
17.02
12.56
7.68
2.85
-1.47
-5.02
-7.86
-10.42
-13.23
-16.74
-21.02
-25.74
-30.31
-34.14
-36.99
-39.08
-41.10
-43.92
-48.30
-54.47
-61.89
-69.17
-74.34
-75.31
-70.56
-59.69
-43.59
-24.25
-4.08
14.64
30.32
42.16
49.96
53.90
54.36
51.95
47.56
42.38
37.61
34.18
32.53
32.50
33.51
34.90
36.17
37.08
37.58
37.65
37.11
35.71
33.15
29.35
24.54
19.18
13.87
9.09
5.03
1.53
-1.82
-5.52
-9.87
-14.89
-20.33
-25.72
-30.71
-35.09
-38.96
-42.63
-46.58
-51.29
-57.22
-64.56
-73.00
-81.53
-88.33
-91.16
-87.97
-77.72
-60.91
-39.57
-16.61
5.05
23.30
37.17
46.67
52.30
54.60
54.06
51.15
46.64
41.65
37.41
34.94
34.63
36.14
38.58
40.88
42.25
42.37
41.45
39.93
38.21
36.34
34.05
30.88
26.50
20.95
14.75
8.64
3.35
-0.78
-3.96
-6.84
-10.10
-14.18
-19.06
-24.36
-29.63
-34.56
-39.12
-43.44
-47.72
-52.14
-56.99
-62.72
-69.74
-78.08
-86.92
-94.42
-98.11
-95.64
-85.73
-68.86
-47.11
-23.54
-1.18
17.81
32.48
42.84
49.45
52.68
52.77
50.02
45.15
39.52
34.86
32.71
33.71
37.15
41.44
44.82
46.22
45.76
44.45
43.50
43.45
43.75
43.13
40.39
35.18
28.30
21.32
15.78
12.43
10.76
9.51
7.29
3.42
-1.81
-7.43
-12.36
-16.04
-18.74
-21.24
-24.28
-28.25
-33.02
-38.26
-43.84
-49.88
-56.64
-63.94
-70.78
-75.25
-75.15
-68.78
-55.80
-37.43
-16.24
4.78
23.10
37.21
46.77
52.15
54.06
53.21
50.24
45.84
40.88
36.36
33.21
31.95
32.58
34.60
37.21
39.59
41.17
41.67
41.07
39.56
37.34
34.56
31.30
27.58
23.44
18.99
14.44
10.03
5.92
2.12
-1.51
-5.20
-9.09
-13.17
-17.25
-21.09
-24.48
-27.45
-30.26
-33.36
-37.30
-42.56
-49.35
-57.39
-65.68
-72.54
-75.90
-73.93
-65.66
-51.43
-32.88
-12.52
7.06
23.81
36.55
44.94
49.19
49.72
47.06
41.89
35.15
28.12
22.15
18.37
17.34
18.80
21.89
25.43
28.38
30.11
30.43
29.52
27.58
24.76
21.16
16.92
12.30
7.70
3.46
-0.29
-3.68
-7.08
-10.87
-15.22
-20.05
-24.99
-29.60
-33.58
-36.95
-40.08
-43.64
-48.34
-54.67
-62.55
-71.16
-78.89
-83.68
-83.57
-77.29
-64.76
-47.10
-26.36
-4.94
14.97
31.80
44.62
53.06
57.14
57.26
54.13
48.85
42.76
37.25
33.37
31.64
31.96
33.73
36.15
38.48
40.20
41.04
40.84
39.51
36.98
33.24
28.45
22.96
17.23
11.72
6.74
2.39
-1.51
-5.27
-9.25
-13.77
-18.94
-24.56
-30.18
-35.24
-39.30
-42.33
-44.76
-47.46
-51.45
-57.45
-65.49
-74.64
-83.07
-88.38
-88.34
-81.56
-68.04
-49.24
-27.67
-6.09
13.22
28.88
40.47
48.12
52.14
52.89
50.80
46.62
41.46
36.60
33.21
31.91
32.55
34.41
36.52
38.02
38.53
38.09
37.02
35.58
33.81
31.49
28.27
23.99
18.76
13.04
7.44
2.46
-1.71
-5.28
-8.71
-12.51
-16.96
-22.02
-27.34
-32.44
-36.92
-40.68
-44.00
-47.42
-51.56
-56.88
-63.48
-70.90
-78.13
-83.62
-85.57
-82.28
-72.64
-56.61
-35.32
-10.93
13.90
36.60
55.31
69.03
77.65
81.61
81.74
79.00
74.46
69.23
64.38
60.80
58.89
58.51
59.02
59.47
59.00
57.07
53.58
48.79
43.12
36.94
30.47
23.87
17.32
11.04
5.32
0.34
-3.90
-7.59
-11.05
-14.58
-18.36
-22.42
-26.66
-30.90
-34.96
-38.75
-42.27
-45.71
-49.40
-53.80
-59.39
-66.35
-74.35
-82.33
-88.52
-90.86
-87.66
-78.20
-63.09
-44.03
-23.32
-3.03
15.38
31.11
43.64
52.39
56.68
56.09
50.94
42.61
33.34
25.52
20.92
20.16
22.65
27.11
32.14
36.75
40.47
43.25
45.17
46.29
46.55
45.86
44.32
42.18
39.91
37.86
36.12
34.33
31.79
27.81
22.10
14.98
7.38
0.42
-5.06
-8.85
-11.30
-13.07
-14.74
-16.71
-19.30
-22.85
-27.62
-33.52
-39.73
-44.68
-46.40
-43.32
-34.88
-21.96
-6.52
9.03
22.60
32.97
39.82
43.46
44.38
43.05
39.80
35.01
29.26
23.30
18.06
14.34
12.57
12.68
14.09
15.91
17.33
17.84
17.40
16.27
14.83
13.24
11.42
9.11
6.06
2.32
-1.78
-5.73
-9.12
-11.88
-14.31
-16.91
-20.13
-24.06
-28.45
-32.78
-36.61
-39.83
-42.78
-46.13
-50.64
-56.73
-64.09
-71.56
-77.34
-79.44
-76.31
-67.42
-53.42
-36.07
-17.60
-0.20
14.60
25.96
33.72
38.02
39.13
37.37
33.31
27.85
22.24
17.79
15.43
15.43
17.31
20.05
22.56
24.02
24.09
22.93
20.93
18.52
15.98
13.34
10.46
7.20
3.47
-0.65
-4.97
-9.29
-13.46
-17.47
-21.32
-24.99
-28.39
-31.57
-34.84
-38.85
-44.30
-51.51
-59.85
-67.58
-72.32
-71.76
-64.74
-51.64
-34.35
-15.41
2.75
18.49
30.90
39.68
44.74
46.17
44.38
40.29
35.23
30.63
27.43
25.94
25.80
26.41
27.26
28.17
29.11
29.99
30.35
29.62
27.41
23.79
19.42
15.20
11.77
9.17
6.63
3.13
-2.00
-8.64
-15.83
-22.21
-26.83
-29.58
-31.51
-34.21
-39.04
-46.52
-56.04
-66.10
-74.93
-80.91
-82.99
-80.63
-73.68
-62.27
-46.94
-28.76
-9.31
9.51
25.82
38.24
46.15
49.78
49.96
47.83
44.58
41.31
38.76
37.36
37.15
37.89
39.12
40.33
41.09
41.13
40.34
38.68
36.15
32.74
28.54
23.76
18.72
13.81
9.31
5.29
1.55
-2.28
-6.55
-11.38
-16.65
-21.97
-26.98
-31.45
-35.47
-39.42
-43.82
-49.16
-55.69
-63.27
-71.12
-77.92
-81.88
-81.19
-74.64
-62.05
-44.51
-24.12
-3.43
15.32
30.61
41.82
49.06
52.79
53.66
52.39
49.80
46.83
44.39
43.15
43.37
44.83
46.93
48.96
50.29
50.60
49.87
48.32
46.20
43.64
40.60
36.95
32.60
27.65
22.43
17.37
12.84
8.91
5.40
1.90
-1.96
-6.39
-11.27
-16.29
-21.05
-25.26
-28.91
-32.21
-35.64
-39.79
-45.22
-52.24
-60.64
-69.52
-77.27
-81.83
-81.22
-74.19
-60.77
-42.26
-21.02
0.27
19.27
34.52
45.47
52.29
55.53
55.77
53.63
49.83
45.26
40.95
37.85
36.52
36.94
38.58
40.57
42.09
42.68
42.29
41.15
39.50
37.38
34.62
30.99
26.43
21.15
15.69
10.57
6.18
2.56
-0.58
-3.66
-7.07
-10.93
-15.14
-19.45
-23.58
-27.38
-30.89
-34.37
-38.17
-42.75
-48.41
-55.16
-62.45
-69.09
-73.35
-73.37
-67.81
-56.34
-39.92
-20.58
-0.85
16.96
31.25
41.29
47.05
48.91
47.46
43.42
37.70
31.43
25.84
22.00
20.51
21.37
23.97
27.35
30.44
32.43
32.86
31.67
29.10
25.51
21.27
16.67
11.92
7.20
2.65
-1.66
-5.75
-9.77
-13.86
-18.15
-22.62
-27.12
-31.47
-35.60
-39.58
-43.73
-48.41
-54.03
-60.82
-68.66
-76.90
-84.19
-88.66
-88.30
-81.58
-68.13
-49.02
-26.56
-3.62
17.14
33.96
46.12
53.76
57.41
57.74
55.41
51.22
46.16
41.40
37.99
36.61
37.29
39.45
42.13
44.36
45.49
45.35
44.13
42.17
39.70
36.69
32.98
28.40
23.03
17.19
11.39
6.06
1.38
-2.87
-7.15
-11.91
-17.32
-23.19
-29.05
-34.37
-38.88
-42.67
-46.26
-50.43
-55.95
-63.30
-72.34
-82.13
-90.98
-96.71
-97.15
-90.88
-77.67
-58.66
-36.14
-12.85
8.64
26.53
39.94
48.74
53.35
54.40
52.66
49.03
44.55
40.28
37.16
35.69
35.86
37.14
38.74
39.96
40.39
40.04
39.14
37.90
36.36
34.33
31.50
27.73
23.12
18.04
13.01
8.44
4.55
1.24
-1.81
-4.96
-8.47
-12.43
-16.76
-21.29
-25.84
-30.27
-34.52
-38.63
-42.85
-47.58
-53.32
-60.40
-68.56
-76.81
-83.36
-86.01
-82.90
-73.09
-57.01
-36.40
-13.81
8.14
27.38
42.71
53.75
60.65
63.84
63.79
61.12
56.67
51.49
46.79
43.56
42.28
42.77
44.29
45.86
46.70
46.48
45.41
43.88
42.26
40.52
38.29
35.06
30.49
24.71
18.28
12.01
6.55
2.15
-1.48
-4.96
-8.96
-13.85
-19.58
-25.69
-31.56
-36.71
-40.97
-44.61
-48.13
-52.13
-57.01
-62.95
-69.66
-76.44
-82.10
-85.07
-83.77
-76.97
-64.34
-46.68
-25.86
-4.42
15.17
31.03
42.20
48.63
50.89
49.83
46.37
41.40
35.85
30.67
26.74
24.72
24.84
26.80
29.81
32.91
35.26
36.39
36.25
35.02
33.00
30.36
27.18
23.48
19.32
14.86
10.25
5.64
1.08
-3.43
-7.95
-12.49
-17.04
-21.51
-25.86
-30.00
-33.98
-37.98
-42.41
-47.82
-54.60
-62.67
-71.09
-78.09
-81.42
-79.03
-69.86
-54.35
-34.33
-12.46
8.51
26.46
40.07
48.87
52.96
52.88
49.59
44.40
38.76
33.97
30.71
29.08
28.66
28.91
29.48
30.34
31.48
32.75
33.53
33.09
30.82
26.63
21.08
15.17
9.87
5.75
2.54
-0.51
-4.29
-9.29
-15.29
-21.50
-26.99
-31.22
-34.53
-37.81
-42.05
-47.78
-54.75
-62.25
-69.55
-76.26
-82.44
-87.92
-91.79
-92.28
-87.22
-75.16
-56.30
-32.74
-8.01
14.23
31.41
42.67
48.71
50.98
50.90
49.37
46.70
43.11
39.06
35.40
33.06
32.66
34.16
36.89
39.76
41.76
42.31
41.31
39.02
35.82
32.01
27.83
23.37
18.76
14.14
9.58
5.11
0.63
-3.97
-8.72
-13.57
-18.33
-22.81
-26.92
-30.73
-34.51
-38.64
-43.54
-49.53
-56.70
-64.77
-72.88
-79.66
-83.33
-82.12
-74.85
-61.38
-42.85
-21.46
0.17
19.66
35.44
46.91
54.20
57.89
58.68
57.28
54.44
51.05
48.05
46.19
45.93
47.19
49.42
51.85
53.78
54.71
54.46
53.03
50.50
46.92
42.37
37.00
31.12
25.10
19.32
13.92
8.85
3.82
-1.38
-6.86
-12.50
-18.07
-23.34
-28.21
-32.76
-37.21
-41.84
-46.99
-52.96
-59.88
-67.49
-74.95
-80.78
-83.16
-80.44
-71.76
-57.46
-39.08
-18.93
0.50
17.26
30.21
39.00
43.84
45.18
43.57
39.66
34.35
28.80
24.26
21.75
21.73
23.94
27.51
31.27
34.15
35.50
35.16
33.35
30.50
26.98
23.06
18.79
14.15
9.10
3.70
-1.87
-7.30
-12.30
-16.68
-20.47
-23.88
-27.21
-30.76
-34.80
-39.57
-45.25
-51.83
-58.91
-65.48
-69.97
-70.56
-65.80
-55.19
-39.50
-20.56
-0.79
17.53
32.74
43.88
50.64
53.08
51.59
46.87
40.10
32.78
26.58
22.77
21.89
23.61
26.85
30.24
32.60
33.27
32.25
29.95
26.96
23.74
20.44
16.90
12.80
7.88
2.09
-4.33
-10.94
-17.19
-22.66
-27.25
-31.16
-34.90
-39.12
-44.49
-51.46
-60.05
-69.52
-78.31
-84.22
-84.96
-78.91
-65.80
-46.99
-25.01
-2.86
16.94
32.83
44.29
51.46
54.69
54.40
51.09
45.62
39.21
33.34
29.30
27.85
28.92
31.73
35.06
37.70
38.83
38.19
36.08
33.13
29.94
26.87
23.86
20.51
16.33
11.05
4.80
-1.86
-8.24
-13.78
-18.39
-22.39
-26.42
-31.05
-36.60
-43.11
-50.46
-58.47
-66.81
-74.76
-81.07
-83.96
-81.58
-72.76
-57.58
-37.61
-15.50
5.83
24.06
37.96
47.37
52.88
55.25
55.12
52.97
49.32
44.90
40.65
37.50
36.12
36.61
38.47
40.78
42.49
42.79
41.33
38.30
34.31
30.05
26.01
22.32
18.73
14.85
10.37
5.29
-0.10
-5.40
-10.28
-14.67
-18.74
-22.74
-26.93
-31.47
-36.46
-42.04
-48.44
-55.76
-63.75
-71.47
-77.26
-79.06
-74.98
-64.15
-47.10
-25.84
-3.26
17.74
35.01
47.55
55.42
59.28
59.95
58.15
54.55
49.91
45.13
41.18
38.81
38.26
39.20
40.86
42.37
43.09
42.76
41.46
39.45
36.90
33.82
30.15
25.83
21.02
15.95
10.88
5.97
1.19
-3.59
-8.50
-13.57
-18.68
-23.64
-28.30
-32.61
-36.74
-41.06
-46.08
-52.30
-59.90
-68.41
-76.56
-82.32
-83.46
-78.26
-66.24
-48.45
-27.31
-5.77
13.47
28.75
39.57
46.28
49.60
50.17
48.49
45.05
40.60
36.16
32.79
31.24
31.65
33.46
35.72
37.40
37.81
36.74
34.41
31.23
27.61
23.68
19.43
14.67
9.30
3.39
-2.79
-8.86
-14.52
-19.62
-24.25
-28.58
-32.83
-37.13
-41.61
-46.45
-51.91
-58.29
-65.57
-73.18
-79.85
-83.73
-82.90
-76.03
-62.95
-44.82
-23.86
-2.71
16.33
31.75
42.93
49.95
53.23
53.30
50.81
46.54
41.53
36.91
33.65
32.29
32.75
34.42
36.41
37.89
38.34
37.62
35.85
33.21
29.87
25.90
21.37
16.43
11.33
6.25
1.30
-3.63
-8.72
-14.07
-19.57
-24.87
-29.59
-33.60
-37.13
-40.76
-45.20
-51.03
-58.49
-67.38
-76.89
-85.71
-92.04
-93.90
-89.65
-78.55
-61.13
-39.23
-15.50
7.19
26.62
41.47
51.43
56.91
58.70
57.69
54.79
50.69
46.04
41.47
37.61
35.11
34.41
35.56
38.09
40.91
42.83
42.92
40.94
37.35
33.06
28.87
25.15
21.58
17.56
12.66
6.90
0.79
-4.95
-9.82
-13.80
-17.49
-21.62
-26.68
-32.62
-38.84
-44.57
-49.43
-53.74
-58.60
-65.15
-73.78
-83.43
-91.56
-94.94
-90.88
-78.35
-58.52
-34.33
-9.31
13.47
32.18
46.26
55.92
61.59
63.57
62.14
57.86
51.79
45.42
40.30
37.53
37.46
39.52
42.64
45.61
47.58
48.21
47.63
46.12
43.93
41.07
37.40
32.84
27.51
21.80
16.23
11.24
6.97
3.23
-0.49
-4.72
-9.76
-15.58
-21.74
-27.65
-32.83
-37.12
-40.80
-44.57
-49.27
-55.67
-64.08
-73.99
-83.93
-91.58
-94.33
-90.07
-78.04
-59.20
-36.03
-11.81
10.42
28.59
41.84
50.26
54.41
54.86
52.20
47.16
40.80
34.48
29.56
26.96
26.86
28.72
31.55
34.33
36.45
37.72
38.29
38.30
37.69
36.18
33.40
29.19
23.82
17.94
12.37
7.72
4.13
1.22
-1.72
-5.35
-9.94
-15.25
-20.74
-25.78
-30.03
-33.50
-36.59
-39.88
-43.98
-49.40
-56.36
-64.60
-73.20
-80.52
-84.46
-83.02
-74.98
-60.44
-40.91
-18.92
2.69
21.51
36.04
45.74
50.84
51.89
49.59
44.63
37.82
30.17
22.88
17.18
14.05
13.90
16.39
20.56
25.09
28.77
30.78
30.94
29.54
27.08
24.00
20.54
16.68
12.37
7.63
2.64
-2.30
-6.96
-11.25
-15.31
-19.35
-23.52
-27.86
-32.29
-36.77
-41.51
-46.91
-53.38
-60.92
-68.80
-75.45
-78.77
-76.80
-68.47
-53.99
-34.92
-13.61
7.38
25.90
40.55
50.68
56.17
57.35
54.80
49.37
42.21
34.63
28.01
23.49
21.72
22.65
25.57
29.32
32.63
34.50
34.45
32.57
29.33
25.31
20.96
16.46
11.78
6.72
1.19
-4.80
-11.07
-17.31
-23.20
-28.50
-33.17
-37.36
-41.39
-45.66
-50.57
-56.51
-63.73
-72.20
-81.37
-90.06
-96.48
-98.53
-94.50
-83.61
-66.51
-45.14
-22.25
-0.55
17.89
31.94
41.33
46.18
46.87
43.92
38.24
31.33
25.32
22.61
25.14
33.71
47.45
63.82
79.25
90.19
94.23
90.91
81.81
69.89
58.31
49.32
43.63
40.51
38.45
35.95
31.95
25.96
17.88
7.84
-3.67
-15.69
-26.80
-35.47
-40.72
-42.72
-42.91
-43.56
-46.88
-54.08
-64.75
-76.85
-87.26
-92.74
-90.92
-81.05
-64.23
-43.08
-20.91
-0.77
15.24
26.24
32.38
34.27
32.78
28.77
23.22
17.32
12.35
9.42
9.09
11.24
15.07
19.46
23.41
26.31
27.99
28.61
28.33
27.18
25.07
21.91
17.83
13.23
8.65
4.51
0.93
-2.39
-5.94
-10.15
-15.07
-20.36
-25.44
-29.80
-33.30
-36.27
-39.38
-43.46
-49.22
-56.96
-66.25
-75.81
-83.52
-86.90
-83.77
-73.09
-55.36
-32.63
-7.87
15.91
36.36
52.11
62.73
68.39
69.61
67.17
62.12
55.72
49.33
44.10
40.77
39.59
40.30
42.30
44.90
47.39
49.26
50.21
50.08
48.84
46.49
43.03
38.50
33.06
27.04
20.95
15.23
10.15
5.65
1.42
-2.99
-7.88
-13.27
-18.96
-24.59
-29.86
-34.64
-39.06
-43.53
-48.63
-55.03
-63.11
-72.64
-82.45
-90.46
-94.11
-91.12
-80.37
-62.41
-39.42
-14.52
9.07
28.92
43.72
53.25
57.93
58.41
55.43
49.79
42.52
34.92
28.38
24.09
22.63
23.85
26.88
30.55
33.74
35.73
36.28
35.50
33.62
30.84
27.25
22.94
18.06
12.84
7.60
2.56
-2.20
-6.75
-11.22
-15.66
-20.07
-24.35
-28.43
-32.33
-36.22
-40.39
-45.26
-51.17
-58.23
-66.05
-73.57
-79.06
-80.46
-76.04
-65.00
-47.86
-26.42
-3.24
19.04
38.27
53.10
62.93
67.69
67.76
63.89
57.24
49.30
41.65
35.64
32.03
30.99
32.10
34.63
37.65
40.16
41.27
40.41
37.42
32.76
27.31
22.00
17.44
13.54
9.68
5.12
-0.53
-7.00
-13.49
-19.20
-23.69
-27.21
-30.43
-34.07
-38.56
-43.91
-49.92
-56.50
-63.66
-71.55
-79.66
-86.61
-90.10
-87.55
-77.15
-58.79
-34.44
-7.73
17.26
37.37
51.18
59.07
62.51
63.02
61.60
58.44
53.55
47.28
40.69
35.26
32.33
32.41
35.00
38.76
42.13
43.95
43.75
41.67
38.23
33.94
29.22
24.24
19.11
13.91
8.69
3.50
-1.65
-6.80
-11.93
-17.05
-22.15
-27.19
-32.14
-37.03
-41.90
-46.94
-52.45
-58.81
-66.28
-74.66
-83.03
-89.65
-92.29
-88.81
-77.98
-60.02
-36.73
-11.01
13.93
35.44
51.94
62.95
68.82
70.25
68.08
63.16
56.48
49.16
42.40
37.21
34.18
33.32
34.10
35.69
37.20
37.93
37.55
36.00
33.45
30.13
26.24
21.88
17.12
12.03
6.73
1.42
-3.71
-8.58
-13.23
-17.82
-22.50
-27.33
-32.21
-36.94
-41.38
-45.56
-49.82
-54.73
-60.92
-68.68
-77.53
-86.00
-91.78
-92.29
-85.65
-71.35
-50.65
-26.27
-1.48
20.83
38.84
51.91
60.20
64.22
64.51
61.64
56.39
49.95
43.77
39.21
37.16
37.65
39.99
43.00
45.52
46.85
46.79
45.60
43.66
41.15
38.05
34.15
29.31
23.69
17.75
12.08
7.14
2.98
-0.73
-4.54
-8.94
-14.06
-19.60
-25.01
-29.76
-33.70
-37.14
-40.81
-45.53
-51.97
-60.27
-69.84
-79.26
-86.47
-89.17
-85.46
-74.51
-56.91
-34.63
-10.55
12.42
31.98
46.88
56.79
61.99
62.97
60.35
54.91
47.66
39.93
33.09
28.20
25.81
25.75
27.33
29.55
31.45
32.33
31.88
30.11
27.22
23.53
19.35
14.95
10.54
6.27
2.21
-1.65
-5.42
-9.25
-13.22
-17.39
-21.68
-26.03
-30.33
-34.59
-38.87
-43.29
-48.03
-53.37
-59.48
-66.29
-73.13
-78.70
-81.19
-78.81
-70.40
-56.05
-37.17
-16.14
4.41
22.27
36.06
45.28
50.12
51.03
48.62
43.65
37.09
30.15
24.22
20.51
19.74
21.88
26.13
31.15
35.55
38.28
38.89
37.48
34.59
30.76
26.44
21.87
17.19
12.52
8.02
3.83
-0.08
-3.85
-7.73
-11.82
-16.00
-19.95
-23.39
-26.32
-29.20
-32.80
-37.95
-45.08
-53.84
-63.00
-70.57
-74.28
-72.19
-63.29
-47.91
-27.74
-5.42
16.16
34.58
48.37
57.11
61.18
61.41
58.77
54.22
48.69
43.05
38.03
34.21
31.78
30.59
30.19
29.88
29.04
27.17
24.09
19.98
15.26
10.46
5.96
1.86
-2.00
-5.99
-10.45
-15.49
-21.01
-26.66
-32.07
-36.98
-41.26
-44.96
-48.12
-50.86
-53.33
-55.88
-59.12
-63.79
-70.44
-79.05
-88.62
-97.13
-101.98
-100.69
-91.78
-75.35
-53.16
-28.08
-3.27
18.65
36.14
48.70
56.59
60.37
60.71
58.37
54.30
49.69
45.78
43.50
43.15
44.41
46.46
48.37
49.52
49.71
49.10
47.93
46.34
44.22
41.33
37.46
32.61
27.08
21.30
15.74
10.63
5.90
1.25
-3.68
-9.08
-14.84
-20.57
-25.77
-30.11
-33.62
-36.73
-40.18
-44.74
-50.89
-58.55
-66.88
-74.34
-78.91
-78.58
-71.90
-58.51
-39.38
-16.63
6.93
28.56
46.15
58.60
65.75
68.14
66.73
62.61
56.93
50.83
45.42
41.57
39.80
40.13
42.10
44.89
47.65
49.65
50.46
50.00
48.40
45.91
42.73
38.95
34.63
29.82
24.68
19.41
14.23
9.24
4.41
-0.42
-5.44
-10.66
-15.95
-21.05
-25.72
-29.87
-33.66
-37.48
-41.89
-47.43
-54.42
-62.68
-71.32
-78.72
-82.82
-81.68
-74.14
-60.28
-41.52
-20.20
1.08
20.13
35.52
46.55
53.05
55.06
52.88
47.12
38.95
29.99
22.10
16.82
14.92
16.25
19.82
24.25
28.26
31.06
32.34
32.19
30.80
28.35
24.96
20.81
16.16
11.24
6.11
0.66
-5.28
-11.70
-18.21
-24.10
-28.65
-31.56
-33.24
-34.76
-37.41
-42.15
-49.27
-58.20
-67.69
-76.04
-81.47
-82.33
-77.46
-66.49
-50.09
-29.86
-8.10
12.78
30.59
43.86
51.99
55.18
54.29
50.58
45.37
39.90
34.89
30.73
27.60
25.63
25.04
25.99
28.28
31.23
33.65
34.33
32.63
28.72
23.59
18.47
14.24
11.00
7.96
4.08
-1.34
-8.16
-15.51
-22.18
-27.33
-30.85
-33.49
-36.40
-40.55
-46.38
-53.78
-62.15
-70.71
-78.40
-84.00
-85.95
-82.73
-73.27
-57.55
-36.81
-13.37
9.97
30.69
47.03
58.24
64.36
65.99
63.99
59.41
53.46
47.35
42.18
38.68
37.13
37.34
38.72
40.59
42.27
43.26
43.21
41.92
39.37
35.66
31.05
25.89
20.56
15.32
10.26
5.30
0.25
-5.05
-10.63
-16.30
-21.77
-26.70
-30.92
-34.48
-37.67
-41.00
-45.09
-50.51
-57.47
-65.59
-73.67
-79.80
-81.75
-77.66
-66.70
-49.52
-28.12
-5.28
16.21
34.26
47.77
56.55
60.92
61.51
59.05
54.38
48.54
42.68
37.88
34.85
33.79
34.34
35.79
37.40
38.59
39.06
38.70
37.48
35.36
32.31
28.39
23.78
18.81
13.84
9.06
4.46
-0.13
-4.94
-10.04
-15.34
-20.59
-25.52
-30.00
-34.08
-37.99
-42.08
-46.75
-52.40
-59.29
-67.37
-75.92
-83.56
-88.31
-88.08
-81.39
-67.97
-49.02
-26.90
-4.52
15.55
31.61
42.98
49.82
52.68
52.22
49.05
43.87
37.55
31.18
25.90
22.63
21.77
23.09
25.82
28.92
31.48
32.89
33.04
32.12
30.42
28.16
25.40
22.07
18.10
13.51
8.45
3.15
-2.14
-7.28
-12.14
-16.73
-21.08
-25.25
-29.38
-33.62
-38.25
-43.60
-49.95
-57.28
-65.07
-72.08
-76.53
-76.49
-70.63
-58.75
-42.00
-22.63
-3.24
13.92
27.53
37.18
43.08
45.58
44.91
41.30
35.17
27.45
19.47
12.73
8.35
6.76
7.56
9.76
12.22
14.02
14.73
14.36
13.21
11.58
9.69
7.58
5.17
2.35
-0.91
-4.49
-8.14
-11.53
-14.47
-16.90
-19.05
-21.26
-23.90
-27.24
-31.50
-36.88
-43.50
-51.28
-59.51
-66.73
-70.77
-69.43
-61.23
-46.25
-26.17
-3.90
17.42
35.31
48.45
56.67
60.45
60.45
57.27
51.47
43.85
35.53
27.85
22.05
18.84
18.22
19.51
21.64
23.59
24.61
24.39
22.99
20.61
17.43
13.57
9.09
4.02
-1.52
-7.36
-13.30
-19.09
-24.56
-29.52
-33.84
-37.42
-40.28
-42.55
-44.54
-46.71
-49.63
-53.82
-59.53
-66.44
-73.49
-78.94
-80.70
-76.94
-66.84
-50.90
-30.95
-9.57
10.65
27.81
41.05
50.36
56.20
59.13
59.58
57.99
54.96
51.35
48.15
46.21
46.02
47.53
50.14
53.03
55.29
56.29
55.75
53.72
50.44
46.23
41.27
35.65
29.34
22.38
14.93
7.30
-0.09
-6.86
-12.75
-17.66
-21.67
-24.94
-27.71
-30.34
-33.33
-37.27
-42.68
-49.68
-57.75
-65.58
-71.26
-72.77
-68.69
-58.70
-43.79
-25.93
-7.50
9.42
23.40
33.76
40.25
42.90
41.83
37.50
30.79
23.06
15.95
10.88
8.62
9.06
11.41
14.54
17.44
19.58
20.88
21.52
21.66
21.17
19.69
16.76
12.09
5.86
-1.31
-8.48
-14.77
-19.67
-23.25
-26.08
-29.00
-32.84
-38.15
-45.04
-53.15
-61.48
-68.54
-72.46
-71.49
-64.51
-51.46
-33.52
-12.82
8.07
26.83
41.83
52.22
57.89
59.13
56.59
51.11
43.78
35.94
28.89
23.76
21.14
20.98
22.60
24.95
27.02
28.11
28.03
27.02
25.39
23.31
20.61
16.88
11.81
5.40
-1.89
-9.27
-15.92
-21.34
-25.58
-29.20
-33.10
-38.18
-45.04
-53.68
-63.33
-72.40
-78.81
-80.41
-75.65
-64.07
-46.56
-25.11
-2.29
19.37
37.93
52.14
61.49
65.97
66.01
62.45
56.46
49.47
42.93
38.01
35.38
35.10
36.63
39.01
41.12
41.99
41.02
38.15
33.74
28.33
22.37
16.06
9.38
2.39
-4.58
-10.95
-16.09
-19.70
-22.09
-24.05
-26.51
-30.24
-35.61
-42.66
-51.25
-61.06
-71.41
-80.98
-87.84
-89.95
-85.79
-75.08
-58.99
-39.78
-20.05
-1.94
13.31
25.24
33.94
39.73
42.96
44.11
43.88
43.14
42.76
43.25
44.73
46.84
49.02
50.76
51.79
52.05
51.55
50.13
47.50
43.39
37.74
30.78
22.98
14.76
6.35
-2.35
-11.51
-21.11
-30.79
-39.91
-47.81
-54.16
-59.09
-63.27
-67.61
-72.91
-79.48
-86.90
-93.87
-98.43
-98.45
-92.37
-79.74
-61.48
-39.65
-16.80
4.84
23.77
39.38
51.58
60.41
65.87
67.99
67.16
64.37
61.01
58.58
58.04
59.58
62.55
65.86
68.42
69.47
68.67
66.03
61.67
55.78
48.56
40.23
31.06
21.34
11.27
1.06
-9.14
-19.07
-28.45
-37.01
-44.55
-51.07
-56.72
-61.81
-66.73
-71.86
-77.50
-83.64
-89.76
-94.75
-96.96
-94.57
-86.25
-71.68
-51.87
-28.99
-5.73
15.40
32.61
45.06
52.69
55.86
55.12
51.14
44.79
37.20
29.69
23.51
19.51
17.98
18.58
20.50
22.68
24.11
24.10
22.41
19.20
14.91
9.96
4.57
-1.31
-7.89
-15.30
-23.37
-31.59
-39.29
-45.84
-50.99
-54.84
-57.74
-60.08
-62.09
-63.87
-65.44
-66.72
-67.43
-66.87
-63.87
-56.96
-44.80
-26.80
-3.58
23.06
50.54
76.16
97.80
114.14
124.72
129.63
129.25
124.16
115.18
103.40
90.23
77.16
65.47
56.00
48.93
43.86
40.07
36.74
33.28
29.42
25.21
20.85
16.53
12.31
8.04
3.46
-1.68
-7.48
-13.87
-20.62
-27.47
-34.18
-40.67
-46.90
-52.83
-58.41
-63.57
-68.42
-73.32
-78.80
-85.24
-92.40
-99.04
-103.03
-102.00
-94.18
-79.25
-58.67
-35.24
-12.20
7.79
23.21
33.76
39.86
42.20
41.43
38.32
33.96
29.89
27.72
28.56
32.52
38.64
45.38
51.37
56.01
59.66
63.16
67.27
72.11
77.14
81.50
84.44
85.63
85.06
82.83
78.82
72.66
63.98
52.74
39.41
25.08
11.12
-1.30
-11.51
-19.57
-26.13
-32.11
-38.33
-45.19
-52.52
-59.54
-65.00
-67.56
-66.09
-60.12
-49.98
-36.81
-22.16
-7.62
5.59
16.68
25.32
31.36
34.78
35.64
34.25
31.19
27.35
23.71
21.05
19.87
20.13
21.50
23.35
25.07
26.15
26.33
25.56
23.95
21.69
18.90
15.68
12.02
7.93
3.39
-1.56
-6.82
-12.26
-17.72
-23.02
-27.98
-32.44
-36.36
-39.92
-43.55
-47.86
-53.35
-60.21
-67.90
-75.17
-80.17
-80.93
-76.01
-65.06
-48.93
-29.55
-9.32
9.54
25.43
37.59
45.88
50.54
51.89
50.30
46.25
40.53
34.20
28.44
24.20
21.91
21.42
22.07
23.05
23.69
23.73
23.18
22.27
21.07
19.44
17.04
13.49
8.58
2.42
-4.59
-11.88
-18.90
-25.35
-31.23
-36.74
-42.25
-48.09
-54.54
-61.71
-69.52
-77.52
-84.74
-89.77
-90.98
-87.07
-77.65
-63.44
-46.22
-28.22
-11.47
2.72
13.86
22.01
27.43
30.27
30.67
28.96
25.91
22.63
20.34
19.89
21.53
24.74
28.62
32.19
34.82
36.38
37.16
37.57
37.86
37.89
37.21
35.27
31.62
26.21
19.42
11.87
4.22
-3.07
-9.89
-16.37
-22.77
-29.31
-35.98
-42.51
-48.38
-52.81
-54.83
-53.47
-48.00
-38.19
-24.53
-8.26
8.93
25.18
38.88
48.93
54.78
56.40
54.21
48.96
41.64
33.29
24.88
17.10
10.32
4.61
-0.11
-3.99
-7.15
-9.64
-11.59
-13.17
-14.58
-16.04
-17.70
-19.64
-21.76
-23.92
-25.89
-27.51
-28.68
-29.40
-29.79
-30.09
-30.71
-32.13
-34.76
-38.61
-43.09
-46.99
-48.69
-46.76
-40.49
-30.23
-17.31
-3.64
8.89
18.87
25.49
28.56
28.24
24.96
19.39
12.49
5.32
-1.03
-5.81
-8.69
-9.86
-9.81
-9.16
-8.43
-7.90
-7.71
-7.91
-8.64
-10.13
-12.62
-16.25
-20.90
-26.09
-31.09
-35.23
-38.14
-40.06
-41.83
-44.57
-49.22
-56.10
-64.50
-72.95
-79.37
-81.73
-78.51
-69.18
-54.24
-35.21
-14.19
6.42
24.55
38.73
48.29
53.29
54.33
52.27
47.97
42.20
35.74
29.37
23.87
19.93
17.90
17.66
18.66
19.98
20.84
20.84
20.03
18.76
17.33
15.71
13.47
9.95
4.75
-1.97
-9.46
-16.65
-22.68
-27.46
-31.79
-37.19
-45.16
-56.39
-70.06
-83.82
-94.31
-98.29
-93.63
-80.22
-59.82
-35.42
-10.25
13.12
33.20
49.34
61.44
69.43
73.25
73.03
69.29
63.08
55.88
49.20
44.24
41.49
40.71
41.08
41.63
41.58
40.61
38.88
36.78
34.55
32.07
28.77
23.91
17.06
8.28
-1.69
-11.75
-20.85
-28.41
-34.52
-39.84
-45.39
-52.20
-60.98
-71.78
-83.86
-95.56
-104.53
-108.18
-104.43
-92.31
-72.40
-46.74
-18.27
9.90
35.21
55.99
71.51
81.72
87.00
87.97
85.44
80.42
74.09
67.64
62.08
58.05
55.66
54.58
54.25
54.09
53.71
52.98
51.90
50.45
48.46
45.59
41.45
35.79
28.71
20.63
12.28
4.37
-2.56
-8.36
-13.36
-18.20
-23.74
-30.77
-39.73
-50.42
-61.73
-71.69
-77.80
-77.72
-70.05
-54.83
-33.67
-9.23
15.54
38.10
56.75
70.62
79.42
83.22
82.31
77.37
69.55
60.41
51.67
44.74
40.37
38.44
38.16
38.46
38.45
37.70
36.28
34.55
32.82
31.00
28.62
25.07
19.92
13.22
5.58
-2.11
-9.03
-14.78
-19.52
-23.89
-28.76
-34.88
-42.69
-52.05
-62.11
-71.27
-77.46
-78.54
-73.01
-60.53
-42.18
-20.18
2.72
23.97
41.65
54.72
62.77
65.86
64.37
59.05
51.05
41.87
33.18
26.42
22.43
21.27
22.25
24.23
26.07
26.97
26.67
25.39
23.50
21.28
18.66
15.31
10.88
5.29
-1.05
-7.43
-13.06
-17.48
-20.77
-23.54
-26.69
-31.02
-36.82
-43.60
-50.05
-54.33
-54.56
-49.45
-38.67
-23.12
-4.63
14.50
32.05
46.38
56.54
62.19
63.43
60.67
54.63
46.35
37.16
28.49
21.57
17.08
15.05
14.85
15.54
16.20
16.25
15.56
14.20
12.32
9.89
6.73
2.63
-2.39
-8.07
-13.93
-19.47
-24.41
-28.77
-32.87
-37.23
-42.33
-48.46
-55.48
-62.68
-68.77
-72.10
-71.04
-64.54
-52.53
-36.07
-17.12
2.03
19.29
33.19
42.98
48.49
49.88
47.57
42.27
35.00
27.11
20.02
14.86
12.20
11.83
12.99
14.68
16.08
16.74
16.62
15.86
14.63
12.86
10.36
6.93
2.50
-2.78
-8.47
-14.08
-19.14
-23.41
-26.93
-30.04
-33.24
-37.10
-42.07
-48.23
-55.03
-61.23
-65.05
-64.61
-58.58
-46.73
-30.14
-11.00
8.11
24.87
37.79
46.32
50.63
51.28
48.90
44.10
37.66
30.49
23.67
18.28
15.06
14.17
15.16
17.04
18.72
19.37
18.72
17.06
15.00
13.00
11.18
9.12
6.25
2.11
-3.29
-9.51
-15.84
-21.65
-26.64
-30.91
-34.83
-38.89
-43.53
-49.08
-55.64
-62.97
-70.31
-76.39
-79.48
-77.90
-70.61
-57.62
-40.21
-20.65
-1.54
14.84
27.10
34.79
38.26
38.25
35.55
30.90
25.02
18.70
12.89
8.54
6.37
6.60
8.82
12.10
15.28
17.39
17.90
16.86
14.74
12.19
9.67
7.31
4.86
1.91
-1.89
-6.59
-11.89
-17.22
-21.97
-25.77
-28.60
-30.83
-33.00
-35.63
-39.12
-43.57
-48.83
-54.39
-59.30
-62.23
-61.64
-56.15
-45.15
-29.11
-9.72
10.58
29.15
43.93
53.82
58.75
59.43
56.93
52.29
46.36
39.81
33.28
27.36
22.68
19.72
18.65
19.19
20.62
21.99
22.36
21.16
18.32
14.22
9.45
4.54
-0.34
-5.33
-10.75
-16.85
-23.57
-30.52
-37.12
-42.84
-47.43
-51.01
-53.99
-56.86
-60.06
-63.88
-68.48
-73.91
-80.00
-86.14
-91.14
-93.29
-90.79
-82.35
-67.81
-48.45
-26.73
-5.59
12.39
25.60
33.62
36.93
36.32
32.68
26.81
19.61
12.26
6.15
2.58
2.31
5.17
10.17
15.92
21.29
25.75
29.47
32.87
36.19
39.16
41.10
41.34
39.63
36.32
32.20
28.10
24.54
21.42
18.31
14.77
10.57
5.90
1.21
-3.13
-7.02
-11.02
-15.93
-22.52
-30.97
-40.61
-49.88
-56.80
-59.56
-57.14
-49.48
-37.39
-22.11
-5.01
12.66
29.63
44.60
56.10
62.94
64.57
61.41
54.88
46.95
39.50
33.86
30.37
28.73
28.34
28.73
29.72
31.26
33.22
35.22
36.59
36.68
35.15
32.09
27.97
23.46
19.03
14.95
11.06
7.11
2.81
-1.92
-6.95
-12.01
-16.81
-21.15
-25.04
-28.66
-32.32
-36.38
-41.20
-47.02
-53.82
-61.15
-68.02
-72.98
-74.36
-70.81
-61.78
-47.78
-30.32
-11.55
6.36
21.63
33.17
40.59
43.99
43.82
40.69
35.40
28.89
22.24
16.47
12.45
10.61
10.90
12.86
15.71
18.62
20.96
22.42
23.07
23.24
23.18
22.95
22.27
20.68
17.80
13.59
8.42
2.94
-2.21
-6.63
-10.33
-13.63
-17.02
-20.98
-25.94
-32.22
-39.95
-48.90
-58.27
-66.60
-72.00
-72.59
-67.18
-55.73
-39.45
-20.49
-1.30
15.96
29.84
39.70
45.46
47.42
46.08
42.13
36.48
30.25
24.66
20.76
19.21
20.09
22.92
26.85
30.87
34.10
35.98
36.30
35.19
32.94
29.88
26.25
22.15
17.51
12.18
6.10
-0.67
-7.79
-14.83
-21.39
-27.26
-32.57
-37.72
-43.23
-49.60
-57.18
-65.95
-75.41
-84.38
-91.10
-93.50
-89.86
-79.35
-62.55
-41.33
-18.35
3.74
22.89
37.96
48.57
54.83
57.13
56.01
52.25
46.95
41.37
36.65
33.58
32.41
32.86
34.36
36.31
38.21
39.70
40.52
40.40
39.11
36.54
32.79
28.22
23.36
18.64
14.25
10.02
5.58
0.63
-4.87
-10.63
-16.18
-21.13
-25.40
-29.24
-33.13
-37.58
-42.97
-49.52
-57.22
-65.77
-74.41
-81.72
-85.74
-84.39
-76.21
-61.00
-40.17
-16.38
7.16
27.73
43.63
54.40
60.44
62.59
61.68
58.48
53.77
48.45
43.52
39.87
38.05
38.09
39.55
41.73
43.91
45.58
46.45
46.44
45.54
43.68
40.80
36.85
31.91
26.26
20.33
14.61
9.43
4.91
0.87
-3.05
-7.25
-11.99
-17.24
-22.72
-27.99
-32.67
-36.61
-40.06
-43.62
-48.10
-54.21
-62.16
-71.37
-80.31
-86.71
-88.14
-82.77
-70.06
-51.08
-28.24
-4.60
16.98
34.55
47.21
54.96
58.26
57.75
54.15
48.36
41.58
35.23
30.65
28.74
29.63
32.62
36.51
40.01
42.25
42.97
42.57
41.66
40.74
39.86
38.67
36.64
33.39
29.03
24.07
19.17
14.82
11.05
7.52
3.67
-0.87
-6.14
-11.77
-17.17
-21.82
-25.51
-28.43
-31.12
-34.26
-38.48
-44.16
-51.38
-59.75
-68.35
-75.67
-79.80
-78.79
-71.31
-57.17
-37.66
-15.28
6.95
26.34
41.23
51.19
56.72
58.75
58.15
55.58
51.57
46.82
42.22
38.75
37.16
37.69
39.89
42.82
45.35
46.62
46.34
44.74
42.42
40.00
37.76
35.58
33.02
29.56
24.98
19.52
13.81
8.61
4.43
1.24
-1.51
-4.59
-8.63
-13.74
-19.51
-25.22
-30.24
-34.27
-37.48
-40.32
-43.41
-47.30
-52.39
-58.84
-66.42
-74.32
-81.05
-84.65
-83.18
-75.40
-61.34
-42.47
-21.28
-0.62
17.10
30.39
38.82
42.77
43.03
40.50
36.18
31.13
26.51
23.47
22.80
24.68
28.59
33.40
37.77
40.53
41.11
39.57
36.49
32.70
28.86
25.32
22.02
18.66
14.99
10.93
6.75
2.90
-0.12
-2.10
-3.22
-4.09
-5.48
-8.02
-11.86
-16.53
-21.10
-24.61
-26.51
-26.93
-26.68
-26.93
-28.78
-32.85
-39.16
-47.05
-55.26
-62.10
-65.72
-64.47
-57.42
-44.70
-27.62
-8.38
10.56
27.11
40.00
48.84
53.89
55.77
55.15
52.77
49.36
45.74
42.72
40.99
40.92
42.44
45.01
47.74
49.73
50.36
49.47
47.37
44.63
41.80
39.11
36.38
33.12
28.84
23.31
16.71
9.60
2.66
-3.73
-9.53
-15.14
-21.08
-27.65
-34.72
-41.75
-48.02
-53.19
-57.34
-60.97
-64.64
-68.65
-72.89
-77.11
-81.12
-84.99
-88.69
-91.67
-92.62
-89.63
-81.01
-66.18
-46.27
-24.05
-2.90
14.39
26.48
33.63
37.10
38.23
37.84
35.95
32.45
27.56
22.22
17.84
15.75
16.50
19.65
23.78
27.31
29.11
28.92
27.31
25.17
23.18
21.51
19.73
17.29
13.81
9.40
4.50
-0.35
-4.86
-8.99
-13.01
-17.12
-21.37
-25.60
-29.57
-33.20
-36.63
-40.21
-44.44
-49.71
-56.15
-63.37
-70.40
-75.72
-77.54
-74.33
-65.35
-51.04
-32.95
-13.36
5.38
21.40
33.70
42.02
46.68
48.19
47.13
44.09
39.75
34.92
30.45
27.09
25.28
25.01
25.86
27.15
28.25
28.75
28.58
27.93
26.98
25.75
24.03
21.50
17.97
13.53
8.61
3.76
-0.57
-4.28
-7.64
-11.13
-15.20
-19.95
-25.15
-30.28
-34.81
-38.46
-41.33
-43.88
-46.77
-50.71
-56.17
-63.23
-71.33
-79.21
-85.03
-86.77
-82.78
-72.43
-56.34
-36.30
-14.78
5.79
23.55
37.48
47.28
53.12
55.40
54.66
51.61
47.17
42.44
38.44
35.92
35.08
35.61
36.89
38.24
39.20
39.63
39.57
39.15
38.39
37.17
35.29
32.58
28.98
24.57
19.57
14.26
8.93
3.80
-1.08
-5.82
-10.64
-15.73
-21.15
-26.69
-32.00
-36.68
-40.54
-43.67
-46.48
-49.65
-53.94
-59.90
-67.64
-76.50
-84.99
-91.02
-92.40
-87.60
-76.34
-59.71
-39.90
-19.46
-0.54
15.50
28.12
37.31
43.27
46.20
46.46
44.67
41.81
39.03
37.37
37.34
38.87
41.35
43.95
45.91
46.83
46.67
45.62
43.95
41.85
39.41
36.65
33.63
30.44
27.16
23.89
20.66
17.44
14.17
10.79
7.24
3.48
-0.57
-4.94
-9.61
-14.43
-19.19
-23.59
-27.50
-30.93
-34.26
-38.08
-43.06
-49.63
-57.57
-65.87
-72.74
-76.03
-73.91
-65.50
-51.27
-32.92
-12.89
6.40
23.08
36.17
45.35
50.73
52.54
51.12
47.04
41.28
35.16
30.14
27.34
27.18
29.27
32.60
36.00
38.59
40.01
40.44
40.25
39.71
38.76
37.05
34.19
30.00
24.75
19.08
13.82
9.55
6.40
4.02
1.77
-0.93
-4.39
-8.44
-12.66
-16.52
-19.78
-22.49
-25.07
-28.07
-32.04
-37.30
-43.91
-51.55
-59.47
-66.52
-71.17
-71.87
-67.40
-57.36
