1553274817.00
64.000000
-0.00
-0.00
-0.00
-0.00
-0.00
-0.00
-0.00
-0.00
-0.00
-0.00
0.00
0.01
0.01
-0.00
-0.03
-0.05
-0.05
0.00
0.13
0.36
0.66
1.01
1.37
1.72
2.06
2.40
2.79
3.24
3.80
4.42
5.06
5.66
6.20
6.68
7.15
7.68
8.31
9.14
10.09
11.04
11.88
12.56
13.14
13.76
14.65
15.96
17.91
20.32
22.90
25.38
27.58
29.57
31.68
34.32
37.81
42.54
48.15
54.10
59.83
64.97
69.58
74.14
79.34
85.71
93.76
103.00
112.62
121.73
129.77
136.75
143.30
150.75
157.77
166.64
177.95
191.79
206.97
220.57
228.25
225.36
208.53
176.87
132.76
80.05
23.07
-34.94
-92.44
-149.16
-205.23
-260.37
-313.74
-363.87
-409.83
-450.91
-486.50
-515.74
-537.23
-549.22
-549.96
-538.37
-514.21
-478.67
-433.88
-382.45
-327.02
-269.84
-212.63
-156.66
-102.95
-52.37
-5.90
35.58
71.43
101.35
125.50
144.38
158.69
169.15
176.37
180.75
182.57
182.07
179.51
175.23
169.65
163.18
156.15
148.81
141.30
133.69
126.02
118.33
110.69
103.16
95.80
88.68
81.83
75.25
68.95
62.95
57.25
51.86
46.78
42.03
37.59
33.45
29.61
26.07
22.81
19.83
17.11
14.67
12.48
10.54
8.83
7.35
6.07
4.97
4.05
3.27
2.62
2.09
1.65
1.30
1.01
0.79
0.61
0.47
0.37
0.28
0.23
0.18
0.15
0.14
0.13
0.13
0.15
0.16
0.19
0.22
0.26
0.29
0.34
0.38
0.43
0.47
0.52
0.57
0.62
0.67
0.73
0.79
0.86
0.93
1.02
1.11
1.21
1.32
1.44
1.58
1.74
1.92
2.11
2.33
2.57
2.84
3.13
3.46
3.81
4.20
4.62
5.08
5.57
6.11
6.68
7.30
7.95
8.65
9.40
10.19
11.04
11.91
12.84
13.82
14.86
15.96
17.13
18.35
19.63
20.92
22.19
23.35
24.30
24.94
25.12
24.73
23.67
21.89
19.35
16.12
12.26
7.97
3.43
-1.15
-5.53
-9.52
-12.95
-15.68
-17.63
-18.81
-19.26
-19.09
-18.46
-17.50
-16.32
-15.02
-13.62
-12.15
-10.60
-8.97
-7.32
-5.72
-4.20
-2.75
-1.34
0.12
1.71
3.49
5.56
7.73
9.89
11.96
13.89
15.77
17.73
19.95
22.54
25.62
28.78
31.76
34.31
36.40
38.21
40.07
42.37
45.39
49.24
53.22
56.70
59.20
60.56
61.08
61.34
62.02
63.54
65.99
68.24
69.15
67.74
63.53
56.54
47.02
34.99
19.42
3.10
-13.91
-32.17
-52.50
-75.72
-102.29
-131.98
-163.30
-193.29
-217.85
-233.49
-237.90
-231.07
-215.49
-195.19
-174.09
-154.58
-136.97
-119.94
-102.41
-83.84
-64.76
-46.41
-29.99
-16.08
-4.54
5.24
13.85
21.23
26.98
30.69
32.28
32.19
31.35
30.91
31.77
34.26
37.77
41.20
43.37
43.46
41.43
37.99
34.27
31.27
29.44
28.34
27.09
24.76
20.93
15.92
10.57
5.87
2.45
0.36
-0.72
-1.38
-2.11
-3.25
-4.98
-7.34
-10.22
-13.32
-16.10
-17.89
-18.03
-16.11
-12.16
-6.69
-0.56
5.25
10.05
13.64
16.34
18.73
21.31
24.20
27.06
29.38
30.80
31.37
31.52
31.73
32.31
33.09
33.62
33.34
31.92
29.37
26.10
22.68
19.63
17.14
15.02
12.84
10.15
6.85
3.23
-0.11
-2.63
-4.18
-5.04
-5.81
-7.09
-9.21
-12.23
-15.90
-19.83
-23.51
-26.35
-27.65
-26.77
-23.32
-17.30
-9.23
-0.05
8.98
16.66
22.06
24.77
25.05
23.69
21.80
20.40
20.07
20.74
21.89
22.77
22.80
21.82
20.10
18.20
16.62
15.67
15.32
15.32
15.35
15.21
14.86
14.37
13.71
12.65
10.84
8.11
4.65
1.11
-1.65
-3.07
-3.20
-2.76
-2.77
-4.02
-6.68
-10.38
-14.46
-18.42
-22.08
-25.42
-28.25
-30.05
-29.97
-27.33
-21.95
-14.44
-6.09
1.57
7.25
10.44
11.40
11.11
10.71
11.03
12.28
14.12
15.97
17.48
18.74
20.07
21.65
23.22
24.11
23.60
21.44
18.09
14.64
12.18
11.20
11.40
11.83
11.48
9.91
7.46
4.89
3.01
1.88
0.99
-0.54
-3.30
-7.17
-11.37
-14.99
-17.56
-19.58
-22.14
-26.22
-31.91
-38.09
-42.76
-44.02
-40.94
-34.09
-25.15
-16.10
-8.39
-2.52
1.82
5.13
7.67
9.15
9.22
7.82
5.46
3.18
2.06
2.67
4.96
8.18
11.35
13.75
15.04
15.33
14.95
14.20
13.28
12.18
10.87
9.37
7.85
6.54
5.71
5.43
5.56
5.68
5.29
4.00
1.70
-1.36
-4.71
-7.84
-10.48
-12.71
-14.89
-17.44
-20.56
-24.19
-27.83
-30.76
-32.22
-31.55
-28.52
-23.36
-16.82
-9.94
-3.75
1.05
4.21
5.92
6.58
6.54
6.04
5.23
4.39
3.90
4.23
5.61
7.83
10.26
12.04
12.51
11.48
9.31
6.67
4.21
2.32
1.02
0.07
-0.87
-2.05
-3.55
-5.27
-7.00
-8.52
-9.63
-10.29
-10.59
-10.74
-11.00
-11.60
-12.70
-14.38
-16.60
-19.18
-21.78
-23.87
-24.86
-24.22
-21.71
-17.49
-12.07
-6.21
-0.72
3.78
6.97
8.77
9.38
9.12
8.31
7.31
6.38
5.73
5.50
5.69
6.21
6.85
7.43
7.74
7.73
7.39
6.79
6.00
5.10
4.16
3.23
2.33
1.40
0.33
-0.94
-2.36
-3.80
-5.05
-6.02
-6.85
-7.89
-9.52
-11.94
-14.98
-18.13
-20.58
-21.60
-20.60
-17.38
-12.16
-5.48
1.75
8.52
13.84
17.02
17.79
16.46
13.69
10.39
7.37
5.23
4.25
4.39
5.34
6.65
7.85
8.55
8.63
8.16
7.38
6.58
5.98
5.66
5.53
5.39
4.92
3.81
1.88
-0.84
-4.07
-7.40
-10.40
-12.89
-14.89
-16.64
-18.36
-20.03
-21.38
-21.88
-20.98
-18.27
-13.74
-7.84
-1.42
4.46
8.86
11.23
11.54
10.20
7.89
5.20
2.57
0.28
-1.36
-2.01
-1.32
0.87
4.23
7.98
11.09
12.74
12.61
11.05
8.84
6.73
5.15
3.98
2.77
1.13
-1.05
-3.43
-5.58
-7.19
-8.42
-9.84
-12.05
-15.28
-19.08
-22.38
-23.97
-23.00
-19.35
-13.72
-7.26
-1.15
3.81
7.29
9.33
10.13
9.95
8.98
7.49
5.74
4.08
2.75
1.86
1.42
1.34
1.46
1.60
1.60
1.31
0.71
-0.09
-0.90
-1.50
-1.85
-2.07
-2.36
-2.89
-3.76
-4.95
-6.53
-8.65
-11.53
-15.24
-19.53
-23.73
-26.90
-28.09
-26.70
-22.61
-16.30
-8.62
-0.63
6.65
12.44
16.28
18.02
17.84
16.16
13.50
10.49
7.70
5.63
4.54
4.45
5.17
6.37
7.68
8.75
9.34
9.21
8.29
6.69
4.82
3.23
2.51
2.93
4.27
5.92
7.05
7.04
5.59
2.80
-1.03
-5.54
-10.30
-14.77
-18.14
-19.48
-18.03
-13.56
-6.64
1.48
9.18
15.08
18.40
19.15
18.04
16.12
14.40
13.52
13.68
14.63
15.88
17.02
17.81
18.21
18.29
18.09
17.51
16.48
15.05
13.45
11.98
10.84
10.01
9.21
8.07
6.35
4.12
1.64
-0.81
-3.14
-5.53
-8.31
-11.70
-15.54
-19.24
-21.87
-22.53
-20.62
-16.07
-9.37
-1.41
6.73
14.05
19.77
23.51
25.21
25.18
23.96
22.20
20.55
19.49
19.25
19.80
20.87
22.07
22.99
23.31
22.89
21.76
20.10
18.15
16.14
14.21
12.37
10.53
8.56
6.36
3.90
1.24
-1.44
-4.00
-6.37
-8.62
-11.01
-13.79
-17.13
-20.88
-24.54
-27.33
-28.36
-27.01
-23.05
-16.83
-9.13
-1.04
6.39
12.31
16.33
18.46
19.06
18.64
17.71
16.67
15.74
15.02
14.52
14.18
13.92
13.66
13.39
13.15
13.02
13.05
13.15
13.01
12.22
10.45
7.67
4.18
0.53
-2.76
-5.46
-7.67
-9.74
-12.01
-14.65
-17.61
-20.77
-24.01
-27.26
-30.32
-32.70
-33.67
-32.43
-28.52
-22.06
-13.89
-5.32
2.28
7.91
11.12
12.10
11.40
9.76
7.81
6.10
4.92
4.41
4.60
5.34
6.41
7.48
8.25
8.44
7.95
6.84
5.39
3.97
2.87
2.19
1.70
0.99
-0.35
-2.45
-5.03
-7.54
-9.38
-10.37
-10.77
-11.31
-12.75
-15.51
-19.39
-23.54
-26.87
-28.35
-27.39
-24.00
-18.68
-12.18
-5.25
1.41
7.11
11.21
13.26
13.16
11.40
8.97
7.04
6.41
7.06
8.30
9.18
9.19
8.57
8.19
8.92
10.97
13.54
15.27
14.96
12.27
7.97
3.55
0.34
-1.09
-1.41
-1.87
-3.60
-6.99
-11.42
-15.78
-19.12
-21.16
-22.48
-23.91
-25.84
-27.75
-28.42
-26.43
-21.08
-12.73
-2.94
6.30
13.33
17.33
18.53
17.76
16.04
14.16
12.44
10.96
9.68
8.67
8.05
7.97
8.46
9.40
10.47
11.25
11.37
10.62
9.02
6.78
4.24
1.75
-0.44
-2.29
-3.88
-5.45
-7.22
-9.35
-11.86
-14.71
-17.77
-20.94
-24.05
-26.78
-28.62
-28.91
-27.05
-22.72
-16.24
-8.48
-0.69
5.92
10.61
13.28
14.37
14.56
14.45
14.35
14.30
14.21
14.07
13.93
13.94
14.17
14.60
15.13
15.62
15.92
15.94
15.52
14.53
12.91
10.79
8.38
5.95
3.65
1.41
-0.92
-3.51
-6.38
-9.41
-12.47
-15.48
-18.43
-21.20
-23.43
-24.40
-23.29
-19.54
-13.22
-5.17
3.27
10.67
16.05
19.08
20.09
19.81
19.00
18.19
17.60
17.25
17.05
16.99
17.13
17.56
18.30
19.17
19.85
19.98
19.27
17.69
15.38
12.65
9.69
6.60
3.31
-0.25
-4.00
-7.69
-10.96
-13.61
-15.70
-17.66
-20.02
-23.15
-26.95
-30.74
-33.46
-33.96
-31.45
-25.85
-17.89
-8.84
-0.23
6.74
11.53
14.20
15.28
15.35
14.84
13.93
12.85
11.96
11.81
12.85
15.14
18.09
20.65
21.78
20.94
18.32
14.78
11.20
8.16
5.69
3.39
0.87
-1.92
-4.71
-7.11
-9.01
-10.69
-12.78
-15.81
-19.98
-24.95
-30.00
-34.27
-37.14
-38.26
-37.56
-35.10
-30.99
-25.47
-19.02
-12.39
-6.66
-2.81
-1.47
-2.66
-5.76
-9.70
-13.36
-15.92
-17.19
-17.45
-17.24
-17.02
-16.98
-16.97
-16.75
-16.16
-15.40
-14.94
-15.29
-16.72
-19.06
-21.77
-24.11
-25.42
-25.45
-24.38
-22.76
-21.35
-20.88
-21.81
-24.11
-27.14
-29.86
-31.03
-29.63
-25.27
-18.22
-9.41
0.02
8.95
16.50
22.11
25.47
26.49
25.40
22.77
19.50
16.72
15.34
15.85
18.04
21.19
24.37
26.77
28.02
28.09
27.21
25.59
23.37
20.62
17.47
14.17
11.05
8.41
6.36
4.66
2.82
0.28
-3.38
-8.20
-13.70
-18.96
-22.78
-24.05
-22.08
-16.86
-9.08
0.08
9.28
17.42
23.76
28.05
30.31
30.78
29.85
28.05
26.04
24.50
23.89
24.27
25.22
26.04
26.04
24.83
22.40
19.14
15.55
12.05
8.88
6.06
3.54
1.17
-1.12
-3.41
-5.83
-8.59
-12.05
-16.65
-22.59
-29.64
-36.88
-42.83
-45.84
-44.70
-39.02
-29.49
-17.53
-4.95
6.56
15.70
21.67
24.21
23.60
20.58
16.25
11.80
8.24
6.14
5.47
5.71
5.98
5.37
3.37
0.19
-3.04
-4.56
-2.62
3.61
13.49
24.82
34.66
40.34
40.55
35.67
27.47
18.17
9.61
2.63
-2.86
-7.52
-12.01
-16.59
-20.95
-24.49
-26.52
-26.73
-25.33
-22.92
-20.13
-17.25
-14.22
-10.82
-7.13
-3.73
-1.55
-1.34
-3.15
-6.15
-9.05
-10.65
-10.56
-9.26
-7.70
-6.66
-6.35
-6.41
-6.31
-5.84
-5.20
-4.80
-4.89
-5.34
-5.78
-5.84
-5.56
-5.33
-5.87
-7.75
-11.22
-16.10
-21.90
-27.91
-33.40
-37.65
-40.04
-40.16
-37.84
-33.24
-26.79
-19.14
-11.07
-3.44
2.84
7.07
8.87
8.46
6.57
4.26
2.51
1.86
2.33
3.54
5.08
6.81
8.86
11.45
14.57
17.87
20.72
22.49
22.92
22.19
20.82
19.37
18.07
16.71
14.81
11.87
7.71
2.51
-3.17
-8.64
-13.08
-15.70
-15.75
-12.70
-6.42
2.59
13.17
23.74
32.74
39.02
42.16
42.40
40.52
37.42
34.04
31.02
28.80
27.51
26.99
26.94
27.03
27.07
26.95
26.54
25.71
24.26
22.12
19.42
16.58
14.04
12.10
10.53
8.78
6.22
2.52
-2.09
-7.00
-11.49
-15.16
-18.14
-20.72
-23.00
-24.45
-24.03
-20.58
-13.61
-3.71
7.15
16.48
22.24
23.64
21.44
17.42
13.39
10.36
8.13
5.93
3.14
-0.10
-2.85
-3.86
-2.51
0.99
5.33
9.02
10.96
10.95
9.58
7.79
6.23
4.96
3.36
0.69
-3.34
-8.13
-12.40
-14.66
-14.12
-11.11
-7.31
-4.85
-5.38
-9.18
-14.95
-20.37
-23.15
-21.92
-16.74
-8.71
0.68
10.20
19.09
26.92
33.18
37.30
38.58
36.64
31.61
24.24
15.71
7.36
0.31
-4.69
-7.37
-7.97
-6.97
-4.87
-2.09
1.13
4.48
7.57
9.85
10.85
10.31
8.27
4.83
-0.08
-6.65
-15.00
-24.80
-35.24
-45.32
-54.40
-62.37
-69.37
-75.27
-79.19
-79.70
-75.46
-66.07
-52.51
-36.88
-21.68
-9.02
-0.19
4.49
5.47
3.75
0.66
-2.45
-4.62
-5.53
-5.44
-4.90
-4.39
-3.98
-3.47
-2.64
-1.46
-0.12
1.10
2.07
2.86
3.70
4.78
6.14
7.57
8.64
8.75
7.32
4.03
-0.89
-6.61
-12.03
-16.20
-18.80
-20.18
-20.88
-21.05
-20.18
-17.27
-11.59
-3.21
6.89
17.22
26.53
34.12
39.77
43.35
44.53
42.95
38.62
32.33
25.58
19.98
16.62
15.66
16.49
18.23
20.25
22.33
24.45
26.53
28.26
29.30
29.54
29.29
29.14
29.59
30.68
31.90
32.39
31.39
28.57
24.18
18.83
13.13
7.50
2.16
-2.71
-6.68
-9.00
-8.81
-5.52
0.79
9.26
18.45
26.82
33.26
37.27
39.03
39.07
38.10
36.73
35.50
34.61
33.82
32.38
29.31
23.88
16.14
6.95
-2.34
-10.53
-17.11
-22.32
-26.72
-30.80
-34.73
-38.63
-42.81
-47.86
-54.29
-62.07
-70.39
-77.93
-83.45
-86.36
-86.82
-85.38
-82.51
-78.26
-72.42
-64.87
-55.83
-46.08
-36.59
-28.11
-20.92
-14.81
-9.27
-3.92
1.28
5.85
9.01
10.13
9.04
6.27
3.04
0.72
0.35
2.16
5.54
9.34
12.47
14.35
15.06
15.07
14.88
14.56
13.71
11.69
8.04
2.67
-4.08
-11.67
-19.53
-27.18
-34.09
-39.44
-42.14
-41.06
-35.47
-25.45
-12.02
3.02
17.55
29.66
37.99
41.88
41.52
37.84
32.31
26.63
22.18
19.74
19.21
19.90
20.94
21.71
22.03
22.03
21.81
21.25
19.98
17.66
14.26
10.05
5.61
1.44
-2.14
-5.20
-8.02
-10.97
-14.37
-18.35
-22.74
-27.08
-30.73
-32.98
-33.16
-30.84
-25.87
-18.46
-9.12
1.27
11.60
20.67
27.44
31.26
32.01
30.11
26.30
21.45
16.34
11.63
7.81
5.28
4.28
4.87
6.88
9.86
13.15
15.95
17.51
17.35
15.31
11.61
6.84
1.75
-2.95
-6.77
-9.66
-12.00
-14.43
-17.65
-21.95
-27.04
-32.05
-35.77
-37.06
-35.17
-29.99
-21.93
-11.79
-0.61
10.48
20.32
27.82
32.27
33.47
31.89
28.53
24.62
21.19
18.77
17.34
16.52
15.85
15.09
14.24
13.41
12.62
11.67
10.20
7.94
4.96
1.74
-0.99
-2.62
-3.01
-2.62
-2.39
-3.38
-6.26
-11.09
-17.24
-23.67
-29.31
-33.31
-35.18
-34.64
-31.45
-25.43
-16.60
-5.48
6.79
18.53
27.97
33.88
35.90
34.76
31.79
28.42
25.54
23.32
21.27
18.79
15.50
11.60
7.77
4.81
3.28
3.21
4.07
5.05
5.39
4.68
2.94
0.56
-2.06
-4.63
-7.08
-9.57
-12.29
-15.38
-18.84
-22.59
-26.51
-30.46
-34.12
-36.93
-38.07
-36.65
-32.04
-24.27
-14.13
-3.00
7.56
16.32
22.57
26.24
27.62
27.16
25.28
22.38
18.81
15.04
11.53
8.77
7.07
6.51
6.87
7.68
8.36
8.40
7.52
5.73
3.24
0.37
-2.64
-5.74
-8.99
-12.52
-16.42
-20.71
-25.38
-30.30
-35.22
-39.64
-42.74
-43.49
-40.92
-34.38
-23.96
-10.58
4.12
18.14
29.65
37.46
41.30
41.66
39.51
35.86
31.45
26.73
21.98
17.54
13.86
11.50
10.76
11.54
13.17
14.62
14.90
13.45
10.37
6.23
1.67
-2.86
-7.23
-11.51
-15.72
-19.68
-23.23
-26.38
-29.65
-33.71
-38.91
-44.75
-49.71
-51.63
-48.71
-40.38
-27.79
-13.35
0.22
10.89
18.01
22.14
24.31
25.31
25.05
23.03
18.91
13.13
7.08
2.52
0.72
1.88
4.78
7.72
9.28
9.04
7.70
6.44
6.13
6.76
7.34
6.56
3.56
-1.55
-7.77
-13.76
-18.60
-22.21
-25.35
-28.98
-33.47
-38.18
-41.51
-41.64
-37.37
-28.62
-16.67
-3.54
8.71
18.57
25.40
29.18
30.26
29.09
26.08
21.69
16.53
11.43
7.29
4.83
4.46
6.14
9.37
13.34
17.14
19.92
21.06
20.38
18.06
14.57
10.50
6.37
2.46
-1.16
-4.61
-8.05
-11.64
-15.49
-19.63
-23.99
-28.31
-32.03
-34.34
-34.22
-30.80
-23.77
-13.63
-1.75
9.85
19.15
24.73
26.16
24.08
19.83
15.00
10.91
8.31
7.44
8.11
9.99
12.64
15.56
18.19
19.95
20.33
19.08
16.28
12.29
7.67
2.99
-1.30
-4.98
-8.12
-10.99
-14.00
-17.59
-22.03
-27.38
-33.43
-39.67
-45.39
-49.63
-51.38
-49.72
-44.07
-34.43
-21.52
-6.73
8.17
21.43
31.71
38.31
41.19
40.88
38.25
34.27
29.86
25.69
22.21
19.63
18.06
17.52
17.94
19.13
20.62
21.81
22.00
20.79
18.14
14.51
10.55
6.82
3.57
0.64
-2.30
-5.57
-9.28
-13.33
-17.53
-21.68
-25.60
-29.02
-31.37
-31.86
-29.62
-24.15
-15.64
-5.14
5.73
15.21
22.00
25.52
25.97
24.12
20.86
17.00
13.10
9.56
6.72
4.96
4.54
5.54
7.69
10.35
12.72
14.01
13.77
11.95
8.88
5.12
1.12
-2.78
-6.49
-10.01
-13.40
-16.67
-19.88
-23.12
-26.56
-30.27
-33.98
-37.03
-38.37
-36.99
-32.24
-24.23
-13.91
-2.78
7.54
15.80
21.33
24.07
24.35
22.62
19.29
14.73
9.47
4.32
0.24
-1.85
-1.49
1.23
5.43
9.92
13.61
15.78
16.28
15.36
13.37
10.61
7.16
3.01
-1.76
-6.90
-12.10
-17.08
-21.77
-26.29
-30.84
-35.45
-39.74
-42.92
-43.95
-41.86
-36.14
-26.97
-15.28
-2.54
9.56
19.50
26.26
29.45
29.36
26.74
22.59
17.93
13.54
9.98
7.55
6.39
6.52
7.89
10.20
12.96
15.38
16.64
16.09
13.46
9.05
3.63
-1.90
-6.78
-10.70
-13.80
-16.58
-19.62
-23.35
-27.82
-32.79
-37.77
-42.07
-44.92
-45.56
-43.29
-37.71
-28.85
-17.44
-4.79
7.43
17.61
24.63
28.15
28.50
26.56
23.27
19.45
15.72
12.50
10.20
9.21
9.93
12.50
16.59
21.40
25.75
28.42
28.62
26.21
21.82
16.51
11.33
6.90
3.31
0.13
-3.17
-7.05
-11.63
-16.79
-22.24
-27.53
-32.11
-35.33
-36.36
-34.45
-29.25
-21.03
-10.79
-0.14
9.28
16.11
19.78
20.41
18.74
15.72
12.23
8.95
6.34
4.72
4.35
5.32
7.55
10.66
14.06
16.96
18.66
18.64
16.81
13.46
9.22
4.76
0.59
-3.14
-6.62
-10.30
-14.70
-20.16
-26.68
-33.78
-40.56
-45.81
-48.22
-46.82
-41.17
-31.59
-19.17
-5.48
7.73
18.91
27.03
31.64
32.90
31.42
28.13
24.04
20.14
17.20
15.69
15.67
16.87
18.78
20.80
22.44
23.33
23.34
22.41
20.52
17.68
13.89
9.26
4.04
-1.40
-6.73
-11.79
-16.74
-21.95
-27.81
-34.38
-41.11
-46.81
-49.91
-49.14
-43.89
-34.62
-22.65
-9.74
2.43
12.73
20.60
25.95
28.87
29.56
28.34
25.80
22.89
20.70
20.17
21.63
24.61
27.99
30.44
30.97
29.27
25.73
21.09
16.06
11.01
5.97
0.82
-4.42
-9.51
-14.18
-18.36
-22.46
-27.19
-33.14
-40.22
-47.35
-52.62
-53.95
-50.00
-40.73
-27.60
-13.00
0.60
11.49
19.01
23.49
25.69
26.32
25.79
24.31
22.15
19.78
17.84
16.80
16.80
17.56
18.45
18.85
18.32
16.82
14.53
11.75
8.68
5.38
1.78
-2.13
-6.35
-10.72
-15.15
-19.67
-24.47
-29.76
-35.45
-40.92
-44.91
-45.83
-42.49
-34.52
-22.78
-9.11
4.34
15.77
24.21
29.44
31.58
30.86
27.51
22.06
15.55
9.61
5.91
5.56
8.36
13.05
17.85
21.26
22.74
22.65
21.80
20.82
19.62
17.68
14.47
9.97
4.79
-0.10
-4.09
-7.26
-10.66
-15.50
-22.36
-30.52
-37.91
-41.83
-40.18
-32.41
-20.03
-5.85
7.14
16.95
23.07
26.24
27.59
27.95
27.38
25.58
22.40
18.25
14.16
11.25
10.28
11.31
13.61
16.15
18.00
18.63
17.97
16.24
13.72
10.70
7.30
3.66
-0.09
-3.85
-7.57
-11.32
-15.27
-19.63
-24.57
-30.09
-35.91
-41.38
-45.42
-46.80
-44.42
-37.76
-27.25
-14.22
-0.70
11.22
19.93
24.72
25.81
24.09
20.70
16.74
12.97
9.90
7.77
6.71
6.73
7.86
10.00
12.94
16.22
19.19
21.07
21.18
19.25
15.45
10.37
4.70
-1.05
-6.64
-12.13
-17.65
-23.23
-28.78
-34.18
-39.29
-43.93
-47.65
-49.66
-48.94
-44.53
-36.04
-23.96
-9.60
5.12
18.26
28.34
34.61
37.14
36.67
34.29
31.25
28.64
27.18
27.19
28.50
30.61
32.85
34.63
35.46
35.13
33.63
31.10
27.75
23.74
19.21
14.25
8.96
3.51
-1.89
-7.00
-11.67
-15.86
-19.75
-23.66
-28.00
-33.06
-38.85
-44.90
-50.26
-53.63
-53.66
-49.43
-40.75
-28.39
-13.94
0.55
13.12
22.43
27.98
30.10
29.64
27.64
25.03
22.52
20.62
19.71
20.03
21.53
23.82
26.14
27.51
27.17
24.87
21.02
16.56
12.40
9.08
6.57
4.40
2.02
-0.84
-4.08
-7.38
-10.54
-13.70
-17.27
-21.79
-27.63
-34.78
-42.86
-51.03
-58.12
-62.77
-63.52
-59.29
-49.75
-35.61
-18.67
-1.36
13.75
24.75
30.80
32.25
30.39
26.96
23.67
21.83
22.09
24.52
28.64
33.60
38.38
42.00
43.64
42.90
39.76
34.70
28.61
22.54
17.45
13.93
11.98
11.06
10.28
8.80
6.12
2.23
-2.55
-7.85
-13.52
-19.64
-26.45
-33.94
-41.62
-48.38
-52.69
-53.15
-48.90
-40.01
-27.64
-13.68
-0.31
10.69
18.16
21.88
22.28
20.30
16.98
13.29
10.12
8.10
7.72
9.16
12.25
16.44
20.85
24.51
26.65
26.97
25.63
23.16
20.12
16.89
13.66
10.43
7.29
4.32
1.70
-0.48
-2.35
-4.08
-5.94
-8.17
-11.05
-14.95
-20.28
-27.26
-35.59
-44.15
-51.20
-54.81
-53.56
-47.07
-36.24
-22.96
-9.45
2.33
11.22
16.84
19.52
19.92
18.74
16.69
14.42
12.66
12.00
12.88
15.30
18.82
22.63
25.80
27.62
27.80
26.49
24.14
21.28
18.32
15.43
12.60
9.72
6.70
3.57
0.39
-2.74
-5.85
-9.07
-12.63
-16.76
-21.57
-27.01
-32.86
-38.74
-44.07
-48.01
-49.58
-47.88
-42.38
-33.25
-21.47
-8.68
3.27
12.80
19.00
21.72
21.48
19.16
15.72
12.08
9.00
7.07
6.72
8.12
11.06
15.02
19.17
22.67
24.88
25.56
24.90
23.38
21.49
19.50
17.38
14.84
11.58
7.50
2.81
-2.02
-6.41
-9.95
-12.50
-14.31
-15.87
-17.85
-20.78
-24.84
-29.75
-34.74
-38.67
-40.31
-38.75
-33.63
-25.33
-14.91
-3.88
6.13
13.74
18.11
19.02
16.93
12.71
7.44
2.19
-2.21
-5.17
-6.39
-5.77
-3.46
0.19
4.67
9.38
13.67
16.97
18.87
19.16
17.89
15.31
11.82
7.90
3.97
0.38
-2.65
-5.03
-6.83
-8.28
-9.81
-11.93
-15.10
-19.49
-24.75
-30.04
-34.19
-36.03
-34.75
-30.15
-22.71
-13.48
-3.84
4.87
11.55
15.61
17.02
16.33
14.47
12.51
11.34
11.39
12.55
14.19
15.55
16.01
15.29
13.60
11.46
9.48
8.15
7.72
8.13
9.09
10.11
10.63
10.11
8.12
4.61
-0.15
-5.49
-10.57
-14.67
-17.54
-19.51
-21.37
-24.02
-27.93
-32.79
-37.47
-40.44
-40.28
-36.24
-28.49
-18.03
-6.34
5.06
14.79
21.86
25.73
26.28
23.88
19.33
13.77
8.36
4.05
1.40
0.57
1.35
3.28
5.77
8.22
10.12
11.15
11.20
10.38
8.87
6.89
4.55
1.92
-0.94
-3.92
-6.87
-9.61
-12.09
-14.32
-16.45
-18.67
-21.21
-24.34
-28.19
-32.65
-37.20
-40.85
-42.37
-40.70
-35.35
-26.74
-16.12
-5.21
4.34
11.45
15.75
17.41
16.95
14.91
11.76
8.06
4.47
1.80
0.66
1.27
3.25
5.66
7.34
7.49
5.96
3.32
0.52
-1.58
-2.63
-2.97
-3.36
-4.51
-6.66
-9.47
-12.15
-13.92
-14.40
-13.81
-12.93
-12.72
-13.96
-16.95
-21.36
-26.36
-30.79
-33.41
-33.22
-29.65
-22.74
-13.18
-2.20
8.77
18.38
25.69
30.33
32.41
32.39
30.85
28.38
25.52
22.82
20.82
19.93
20.33
21.84
23.97
26.12
27.82
28.86
29.27
29.13
28.45
27.03
24.56
20.82
15.87
10.11
4.17
-1.28
-5.80
-9.35
-12.29
-15.19
-18.66
-22.97
-27.92
-32.66
-35.97
-36.61
-33.82
-27.62
-18.89
-9.05
0.39
8.31
14.16
17.91
19.85
20.38
19.90
18.83
17.75
17.24
17.71
19.20
21.26
23.12
24.03
23.56
21.83
19.31
16.59
14.00
11.56
9.03
6.22
3.16
0.16
-2.40
-4.34
-5.85
-7.46
-9.88
-13.68
-19.09
-25.90
-33.43
-40.74
-46.71
-50.22
-50.38
-46.67
-39.16
-28.60
-16.30
-3.91
7.01
15.29
20.42
22.55
22.30
20.54
18.17
15.91
14.26
13.51
13.76
14.90
16.65
18.60
20.29
21.33
21.47
20.67
19.07
16.93
14.56
12.17
9.82
7.43
4.77
1.65
-1.90
-5.69
-9.28
-12.45
-15.23
-18.05
-21.58
-26.27
-32.04
-38.12
-43.12
-45.51
-44.18
-38.82
-30.00
-19.01
-7.46
3.19
11.85
17.96
21.38
22.27
21.00
18.11
14.36
10.68
7.99
6.85
7.30
8.81
10.50
11.65
11.96
11.64
11.23
11.14
11.47
11.92
12.06
11.61
10.65
9.47
8.39
7.40
6.27
4.57
2.00
-1.50
-5.71
-10.36
-15.26
-20.37
-25.57
-30.40
-34.03
-35.36
-33.42
-27.87
-19.20
-8.67
2.07
11.48
18.50
22.72
24.27
23.62
21.46
18.40
15.09
12.07
9.85
8.81
9.14
10.73
13.08
15.48
17.18
17.68
16.94
15.29
13.23
11.20
9.31
7.42
5.29
2.79
-0.02
-2.97
-5.80
-8.34
-10.48
-12.19
-13.52
-14.66
-15.95
-17.86
-20.83
-24.94
-29.75
-34.30
-37.32
-37.69
-34.79
-28.73
-20.28
-10.61
-0.98
7.55
14.27
18.78
21.00
21.10
19.47
16.73
13.65
11.02
9.57
9.71
11.48
14.45
17.84
20.74
22.46
22.64
21.48
19.47
17.20
15.13
13.39
11.89
10.41
8.83
7.12
5.36
3.54
1.64
-0.55
-3.17
-6.35
-10.12
-14.52
-19.57
-25.26
-31.31
-37.09
-41.50
-43.29
-41.40
-35.51
-26.22
-15.00
-3.73
5.86
12.69
16.43
17.39
16.14
13.26
9.17
4.35
-0.60
-4.88
-7.66
-8.34
-6.88
-3.88
-0.37
2.56
4.25
4.65
4.31
4.01
4.33
5.45
7.02
8.50
9.40
9.57
9.15
8.41
7.42
6.04
3.89
0.66
-3.71
-8.97
-14.66
-20.33
-25.69
-30.59
-34.85
-38.10
-39.69
-38.79
-34.77
-27.59
-18.02
-7.63
1.56
7.73
9.79
7.79
2.88
-3.11
-8.34
-11.59
-12.68
-12.44
-12.22
-13.36
-16.60
-21.74
-27.94
-34.00
-39.00
-42.63
-45.29
-47.94
-51.87
-58.34
-68.17
-81.27
-96.06
-109.20
-115.79
-110.64
-90.12
-54.22
-7.45
41.90
84.28
111.96
121.51
114.45
96.00
72.70
50.17
31.95
19.49
12.93
11.81
15.37
22.38
31.05
39.13
44.53
45.79
42.52
35.44
26.05
16.15
7.31
0.54
-3.87
-6.16
-6.83
-6.29
-4.68
-1.89
2.20
7.50
13.52
19.43
24.29
27.39
28.54
28.16
27.11
26.33
26.46
27.53
28.96
29.85
29.30
26.81
22.34
16.27
9.25
2.00
-4.71
-10.03
-13.13
-13.37
-10.51
-4.90
2.58
10.66
18.04
23.78
27.47
29.22
29.51
28.88
27.73
26.16
24.13
21.62
18.95
16.57
15.06
14.72
15.41
16.51
17.22
16.80
14.84
11.30
6.54
1.12
-4.28
-9.09
-13.04
-16.22
-18.99
-21.92
-25.41
-29.63
-34.35
-39.17
-43.64
-47.46
-50.38
-52.47
-53.73
-54.08
-53.21
-50.60
-45.62
-37.79
-26.94
-13.60
1.31
16.69
31.63
45.57
58.31
69.72
79.62
87.70
93.95
98.78
103.26
108.93
117.26
128.97
143.53
158.84
171.90
179.76
180.77
175.16
164.87
152.58
140.64
130.11
120.90
112.36
104.15
96.55
90.30
85.84
82.78
79.53
74.00
64.44
50.51
33.58
16.32
1.56
-8.94
-15.47
-20.02
-25.40
-33.78
-45.86
-60.77
-76.77
-92.16
-105.95
-117.96
-128.67
-138.76
-149.03
-160.14
-172.39
-185.51
-198.50
-209.79
-217.72
-221.13
-219.68
-213.95
-205.06
-194.20
-182.30
-170.00
-157.93
-146.98
-138.35
-133.27
-132.52
-135.78
-141.47
-147.09
-150.01
-148.54
-142.55
-133.26
-122.52
-111.95
-102.46
-94.31
-87.49
-81.77
-76.52
-70.39
-61.26
-46.91
-26.11
0.42
29.95
58.64
83.08
101.35
113.16
119.15
120.01
116.10
107.91
96.96
85.98
78.50
77.34
83.37
94.76
107.59
117.39
120.89
117.21
107.97
96.37
85.77
78.35
74.57
73.29
72.64
70.99
67.71
63.28
58.95
56.02
55.07
55.60
56.21
55.15
51.01
43.19
32.01
18.60
4.68
-7.79
-16.83
-20.91
-19.55
-13.67
-5.64
1.33
4.37
2.21
-4.21
-11.94
-17.22
-17.04
-10.34
1.67
16.05
29.38
38.85
43.06
41.98
36.53
27.92
17.25
5.59
-5.83
-15.45
-21.67
-23.48
-20.92
-15.20
-8.29
-2.13
1.83
2.95
1.14
-3.40
-10.31
-18.92
-28.15
-36.46
-42.16
-43.96
-41.21
-34.20
-23.90
-11.65
1.02
12.69
22.06
28.18
30.49
28.89
23.86
16.26
7.12
-2.55
-11.87
-20.09
-26.44
-30.21
-30.81
-28.09
-22.53
-15.22
-7.67
-1.33
2.69
3.84
2.07
-2.29
-8.68
-16.26
-23.91
-30.40
-34.68
-36.27
-35.42
-32.95
-29.78
-26.40
-22.70
-18.17
-12.30
-5.12
2.79
10.50
17.14
22.32
26.07
28.72
30.59
31.75
32.10
31.58
30.24
28.29
26.05
23.86
22.03
20.92
20.89
22.21
24.81
28.09
30.98
32.26
31.00
27.02
20.98
14.16
7.93
3.30
0.69
-0.06
0.43
1.24
1.32
-0.31
-4.32
-10.71
-18.71
-26.83
-33.19
-36.09
-34.50
-28.44
-18.94
-7.82
2.91
11.48
16.80
18.45
16.58
11.77
4.94
-2.67
-9.58
-14.25
-15.56
-13.13
-7.57
-0.20
7.31
13.52
17.56
19.17
18.58
16.29
12.85
8.82
4.70
0.82
-2.67
-5.78
-8.61
-11.29
-13.80
-15.96
-17.50
-18.17
-17.84
-16.50
-14.06
-10.24
-4.66
3.02
12.60
23.18
33.33
41.60
47.09
49.74
50.07
48.78
46.17
42.09
36.23
28.55
19.61
10.53
2.55
-3.39
-6.93
-8.24
-7.82
-6.30
-4.23
-2.23
-1.03
-1.44
-4.29
-10.14
-18.96
-30.05
-42.15
-53.80
-63.81
-71.53
-76.81
-79.86
-80.91
-80.18
-77.77
-73.74
-68.12
-60.82
-51.69
-40.68
-27.98
-14.29
-0.66
11.63
21.38
27.69
30.05
28.51
23.67
16.72
9.12
2.28
-2.88
-6.08
-7.53
-7.57
-6.24
-3.25
1.71
8.58
16.76
25.17
32.55
37.64
39.31
36.55
28.78
16.44
1.15
-14.44
-27.82
-37.69
-44.46
-49.59
-53.98
-56.86
-55.72
-47.86
-32.56
-12.16
8.48
24.25
32.22
32.90
29.54
26.05
24.83
25.74
26.79
25.71
21.61
15.55
9.77
6.38
6.24
8.70
12.32
15.95
19.43
23.58
29.53
37.70
47.03
54.88
57.77
52.77
38.87
17.73
-6.76
-29.93
-48.25
-60.58
-68.14
-73.19
-77.19
-79.73
-78.73
-71.85
-58.08
-38.47
-15.72
6.98
27.15
43.44
55.26
62.34
64.40
61.39
53.81
42.84
30.26
17.87
7.14
-1.28
-7.34
-11.45
-14.03
-15.12
-14.36
-11.22
-5.42
2.53
11.27
18.86
23.33
23.36
18.50
9.18
-3.56
-18.36
-33.71
-47.96
-59.53
-67.30
-70.90
-70.97
-68.80
-65.98
-63.58
-61.92
-60.56
-58.72
-55.51
-50.34
-42.94
-33.50
-22.55
-10.99
0.00
9.29
16.03
19.75
20.55
18.78
15.11
10.39
5.61
1.86
-0.05
0.08
1.64
3.34
3.93
3.01
1.42
1.03
3.69
10.13
19.20
27.91
32.72
31.09
22.68
9.52
-4.96
-17.52
-26.50
-32.50
-37.70
-44.60
-54.70
-67.67
-81.55
-93.76
-102.19
-106.27
-106.87
-105.54
-103.46
-100.67
-96.01
-87.79
-74.49
-55.26
-29.64
2.67
41.62
85.98
132.30
174.65
205.85
220.00
215.31
195.52
169.23
146.93
137.33
144.40
166.60
198.04
231.14
259.01
277.11
283.55
278.57
263.77
241.26
213.29
181.91
149.05
116.39
85.37
57.23
32.89
12.90
-2.69
-14.48
-23.73
-32.23
-42.36
-56.87
-78.33
-108.00
-144.41
-182.52
-214.12
-229.88
-222.42
-189.23
-134.17
-66.47
1.87
59.55
98.99
117.89
118.85
107.67
90.90
73.47
57.67
43.39
29.58
15.63
1.82
-11.48
-25.11
-41.08
-61.15
-84.45
-106.16
-118.68
-115.03
-92.78
-56.18
-15.00
19.32
38.31
39.52
26.45
6.27
-13.63
-28.58
-37.70
-43.22
-48.74
-57.03
-68.59
-81.50
-92.36
-98.01
-96.89
-89.48
-77.60
-63.37
-48.50
-34.11
-21.01
-10.00
-1.68
3.89
7.62
11.21
16.47
24.31
34.28
44.64
53.18
58.16
58.81
55.26
48.19
38.61
27.74
17.24
8.99
4.46
3.83
5.29
5.40
0.52
-11.09
-27.92
-45.25
-57.19
-59.26
-50.41
-33.36
-13.13
5.25
18.51
25.72
27.51
25.16
19.81
12.60
4.97
-1.07
-3.54
-1.35
4.77
12.42
18.52
20.74
18.69
14.03
9.64
8.05
10.12
14.68
19.27
21.41
19.84
14.96
8.35
1.90
-3.13
-6.31
-7.86
-8.23
-7.72
-6.54
-4.96
-3.47
-2.98
-4.34
-8.02
-13.88
-21.13
-28.73
-35.79
-41.76
-46.69
-50.75
-54.17
-56.98
-59.04
-60.38
-61.47
-63.29
-67.08
-73.58
-82.47
-92.11
-100.06
-103.94
-102.50
-96.30
-87.78
-80.40
-77.46
-80.77
-90.19
-103.81
-118.67
-131.62
-140.19
-142.92
-139.42
-130.50
-117.92
-104.00
-90.79
-78.91
-67.32
-53.44
-34.73
-10.57
16.65
42.09
60.65
69.42
69.19
64.18
59.93
60.78
68.08
79.93
92.92
104.18
112.67
119.14
125.00
131.16
137.38
142.40
144.68
143.56
139.73
134.74
130.23
127.06
125.09
123.38
120.56
114.93
105.82
94.04
81.47
69.99
60.77
54.08
49.49
46.40
43.00
38.35
32.49
25.62
17.16
5.67
-10.17
-30.50
-54.30
-81.42
-110.02
-136.76
-158.05
-172.28
-180.59
-185.89
-190.98
-197.67
-208.24
-221.58
-233.65
-239.58
-236.58
-224.54
-205.04
-179.76
-133.83
-64.48
17.47
93.90
151.95
188.96
209.18
218.26
221.05
219.12
209.16
188.14
155.53
113.38
64.13
9.86
-49.37
-104.21
-148.25
-180.90
-204.66
-222.69
-236.91
-248.91
-259.43
-269.42
-277.58
-281.71
-279.29
-267.32
-244.09
-210.55
-175.05
-140.80
-112.12
-91.14
-78.27
-72.51
-72.05
-75.37
-80.84
-87.60
-94.16
-99.63
-102.42
-101.66
-97.06
-88.10
-79.11
-71.53
-65.48
-59.52
-52.36
-42.54
-29.51
-13.68
3.60
20.40
35.77
49.29
61.74
74.11
87.74
103.56
121.59
140.85
159.53
176.25
190.06
201.15
210.53
219.92
231.03
244.71
260.46
276.60
291.28
302.85
310.88
316.12
320.57
326.94
337.99
355.71
380.32
409.72
439.00
461.37
470.16
461.17
434.45
394.52
348.79
304.90
268.23
240.35
219.20
200.31
178.90
151.77
118.63
82.23
47.40
19.23
1.05
-6.78
-6.72
-2.61
2.05
5.23
6.43
5.88
3.79
0.22
-4.43
-8.98
-11.31
-9.23
-1.60
10.87
25.68
39.45
49.25
53.65
53.02
48.93
43.08
36.10
27.29
14.99
-2.52
-26.11
-55.25
-88.65
-125.16
-164.12
-205.09
-247.03
-287.65
-323.45
-351.05
-368.61
-376.48
-376.80
-371.72
-362.31
-348.47
-329.97
-307.81
-284.25
-261.56
-240.00
-217.30
-190.13
-156.67
-118.46
-79.85
-45.71
-18.39
3.31
23.22
45.28
71.20
99.43
126.41
148.42
163.13
170.46
172.17
170.42
166.19
158.77
146.56
128.72
107.03
86.31
73.39
74.17
90.78
120.47
156.97
193.49
225.48
252.17
275.70
299.22
324.67
351.61
377.24
397.33
407.85
406.50
393.64
372.05
345.70
317.66
288.96
258.75
225.34
187.81
146.83
104.25
61.88
20.29
-21.54
-65.79
-114.81
-170.66
-234.80
-307.69
-388.00
-471.78
-552.02
-619.77
-666.51
-687.16
-682.04
-656.84
-620.31
-581.05
-544.84
-513.55
-485.97
-459.51
-431.76
-401.14
-366.53
-326.79
-281.02
-229.50
-174.76
-121.56
-75.57
-41.00
-18.20
-3.22
10.38
28.00
50.94
75.46
95.36
105.77
105.99
99.81
92.56
87.75
85.07
80.63
69.32
47.66
15.79
-22.46
-60.58
-91.75
-110.58
-114.42
-104.05
-83.54
-58.02
-31.38
-4.75
23.65
56.07
93.53
134.26
173.31
202.69
215.68
209.62
186.70
153.17
115.03
77.66
45.11
19.24
-2.38
-22.08
-40.18
-54.79
-62.00
-61.68
-55.18
-44.42
-32.03
-25.21
-29.57
-46.67
-73.84
-104.19
-135.57
-167.26
-199.18
-232.72
-275.40
-331.94
-400.38
-472.06
-532.88
-576.78
-602.64
-613.14
-576.76
-482.45
-345.28
-198.26
-90.06
-14.65
40.58
84.13
124.42
162.44
192.33
211.13
221.69
231.37
250.69
281.15
320.72
366.29
413.79
455.04
483.75
497.76
499.03
493.48
481.93
463.65
437.85
403.52
358.35
302.93
242.13
183.67
136.32
102.52
80.40
65.48
52.04
33.77
6.19
-32.25
-79.69
-130.25
-176.74
-210.88
-225.68
-218.65
-193.59
-158.51
-122.03
-89.45
-61.16
-35.15
-9.51
15.32
36.39
50.42
56.19
55.61
52.92
52.70
58.51
72.74
97.13
132.79
179.22
232.87
286.73
331.76
359.77
366.30
351.94
321.43
281.28
237.49
194.04
152.91
114.69
79.19
45.47
12.01
-23.90
-64.96
-112.67
-165.77
-219.34
-265.33
-294.76
-300.53
-280.48
-238.42
-183.16
-125.85
-76.50
-41.35
-21.99
-16.21
-20.20
-30.12
-43.20
-57.66
-72.07
-84.85
-94.36
-99.36
-99.79
-96.64
-91.52
-85.83
-79.98
-73.40
-64.85
-53.20
-38.64
-22.71
-8.01
2.89
8.64
9.70
8.20
6.93
7.70
10.62
13.91
14.74
10.58
0.21
-15.78
-35.06
-54.52
-70.84
-80.96
-82.47
-73.87
-54.96
-27.37
5.54
39.05
68.13
88.87
99.51
100.83
95.64
87.68
80.41
76.10
75.56
78.27
82.90
87.87
91.67
93.19
91.93
87.91
81.72
74.33
66.74
59.88
54.31
50.03
46.67
43.44
39.31
33.48
25.44
15.41
4.21
-6.88
-16.39
-23.26
-27.07
-28.23
-27.53
-25.73
-23.21
-20.00
-16.07
-11.96
-8.94
-8.64
-12.26
-19.92
-30.53
-42.29
-53.63
-63.73
-72.60
-80.46
-87.12
-91.64
-92.58
-88.75
-79.63
-65.84
-48.74
-30.14
-11.83
4.75
18.62
29.34
36.99
41.98
44.85
46.15
46.28
45.54
44.14
42.21
39.78
36.62
32.24
25.95
17.06
5.14
-9.75
-26.82
-44.54
-60.79
-73.38
-80.55
-81.63
-77.16
-68.69
-58.19
-47.16
-36.32
-25.38
-13.53
-0.20
14.36
28.87
41.33
49.92
53.76
53.30
50.24
46.73
44.50
44.22
45.44
46.99
47.66
46.73
44.20
40.61
36.77
33.41
30.91
29.19
27.74
25.85
22.87
18.58
13.37
8.11
3.89
1.64
1.71
3.72
6.79
9.70
11.29
10.80
8.00
3.48
-1.49
-5.14
-5.78
-2.45
4.57
13.52
21.60
26.02
24.84
17.90
6.73
-6.02
-17.58
-26.04
-30.62
-31.57
-29.64
-25.50
-19.47
-11.60
-1.94
8.94
19.69
28.26
32.13
29.15
18.31
0.30
-22.42
-46.05
-66.46
-80.27
-85.68
-83.20
-75.45
-66.69
-61.47
-63.15
-72.61
-87.81
-104.79
-119.32
-128.55
-131.75
-129.76
-123.74
-114.28
-101.40
-85.41
-67.66
-50.48
-36.07
-25.13
-16.14
-6.27
6.88
23.46
40.92
55.15
62.51
61.99
55.93
49.62
49.49
60.92
86.32
123.98
168.09
210.18
241.42
255.26
249.07
224.76
187.47
143.73
99.81
60.82
30.64
12.11
6.65
13.52
29.12
47.28
60.67
63.31
52.52
29.84
0.27
-29.44
-53.03
-66.59
-69.82
-66.17
-61.86
-63.73
-76.69
-101.64
-135.00
-170.32
-200.83
-221.90
-232.11
-232.41
-224.87
-211.09
-192.12
-169.04
-143.69
-118.66
-96.42
-78.23
-63.67
-50.79
-37.20
-21.29
-2.80
17.07
36.23
52.54
64.44
71.38
73.91
73.41
71.59
70.00
69.61
70.74
73.01
75.69
78.02
79.41
79.64
78.79
77.01
74.42
70.92
66.27
60.37
53.31
45.50
37.50
29.72
22.39
15.45
8.87
2.71
-2.78
-7.47
-11.46
-15.25
-19.41
-24.29
-29.71
-34.89
-38.84
-40.70
-39.96
-36.58
-30.79
-22.96
-13.54
-3.15
7.33
16.77
24.12
28.60
30.00
28.74
25.70
21.99
18.63
16.40
15.69
16.55
18.66
21.52
24.45
26.80
28.04
27.88
26.36
23.80
20.59
17.07
13.30
9.15
4.40
-1.01
-6.91
-12.90
-18.57
-23.67
-28.23
-32.54
-37.11
-42.41
-48.73
-55.87
-63.10
-69.24
-72.86
-72.75
-68.26
-59.64
-47.91
-34.64
-21.52
-9.99
-1.03
4.93
7.98
8.62
7.64
5.96
4.56
4.25
5.58
8.70
13.32
18.77
24.17
28.67
31.70
33.10
33.09
32.11
30.55
28.65
26.46
23.94
21.08
17.98
14.75
11.41
7.85
3.80
-1.05
-6.89
-13.74
-21.36
-29.25
-36.68
-42.78
-46.61
-47.36
-44.64
-38.59
-29.98
-20.04
-10.12
-1.43
5.26
9.67
11.94
12.52
12.00
10.99
9.99
9.36
9.23
9.63
10.48
11.65
13.06
14.59
16.14
17.54
18.52
18.80
18.14
16.44
13.75
10.29
6.39
2.29
-1.86
-6.09
-10.60
-15.57
-21.16
-27.29
-33.62
-39.56
-44.25
-46.75
-46.16
-41.98
-34.25
-23.67
-11.45
0.96
12.18
21.21
27.55
31.21
32.52
32.13
30.72
28.98
27.44
26.45
26.07
26.19
26.58
27.00
27.30
27.37
27.14
26.51
25.28
23.23
20.13
15.85
10.49
4.44
-1.70
-7.37
-12.23
-16.37
-20.31
-24.78
-30.25
-36.72
-43.50
-49.42
-53.17
-53.69
-50.56
-44.01
-34.83
-24.17
-13.22
-3.05
5.49
11.84
15.73
17.28
16.96
15.59
14.12
13.40
13.89
15.61
18.14
20.91
23.41
25.33
26.59
27.19
27.15
26.43
25.02
23.00
20.57
17.98
15.40
12.87
10.33
7.80
5.33
3.07
1.04
-1.00
-3.60
-7.39
-12.85
-19.92
-27.85
-35.35
-40.83
-42.93
-40.87
-34.74
-25.44
-14.46
-3.36
6.61
14.74
20.93
25.34
28.26
29.94
30.60
30.54
30.16
29.85
29.89
30.31
30.87
31.23
31.16
30.62
29.72
28.66
27.51
26.19
24.39
21.74
17.88
12.71
6.42
-0.52
-7.49
-13.90
-19.46
-24.26
-28.79
-33.71
-39.47
-46.21
-53.72
-61.55
-69.33
-76.90
-84.47
-92.66
-102.17
-113.20
-125.23
-136.65
-145.03
-147.50
-141.41
-124.78
-96.75
-58.01
-10.81
40.27
88.63
127.03
150.03
156.08
148.15
132.56
116.45
106.47
106.31
116.76
136.90
165.24
199.80
237.31
272.63
299.49
314.17
315.57
305.55
287.92
266.98
245.91
225.88
206.20
185.35
164.31
144.49
126.92
111.67
98.23
86.03
75.22
66.45
48.04
15.10
-29.59
-76.75
-116.87
-145.46
-163.36
-173.59
-179.48
-183.53
-185.17
-183.69
-179.31
-173.57
-168.03
-164.76
-164.33
-166.22
-169.23
-170.37
-167.27
-159.00
-146.31
-129.66
-110.99
-92.06
-74.19
-57.97
-42.56
-27.21
-11.73
2.93
15.30
24.01
28.59
29.22
26.88
23.23
19.72
17.23
15.38
12.67
8.14
1.99
-5.12
-12.15
-18.68
-24.86
-30.61
-36.27
-40.32
-39.01
-27.76
-3.99
32.02
76.63
124.81
172.35
213.86
245.21
264.39
271.70
263.71
240.57
204.95
162.00
118.07
74.54
30.02
-17.72
-70.05
-127.61
-190.01
-256.92
-328.03
-382.56
-405.02
-393.19
-358.93
-317.15
-277.30
-242.50
-212.95
-187.98
-166.04
-149.44
-139.91
-136.84
-137.03
-137.08
-134.77
-129.87
-127.80
-127.77
-133.05
-146.74
-168.86
-194.99
-217.83
-229.65
-225.34
-204.21
-169.71
-131.04
-97.64
-75.34
-64.70
-62.44
-63.95
-65.91
-66.99
-66.62
-66.07
-66.02
-65.98
-64.74
-61.53
-56.72
-51.55
-47.50
-45.01
-44.20
-44.26
-43.82
-41.59
-37.11
-30.81
-23.86
-17.46
-12.24
-8.34
-5.36
-2.57
0.53
4.03
7.53
10.38
11.97
12.13
11.01
9.10
6.92
4.94
3.28
1.80
0.19
-1.78
-4.18
-6.83
-9.44
-11.62
-13.18
-14.06
-14.37
-14.25
-13.68
-12.48
-10.27
-6.63
-1.30
5.68
14.01
23.18
32.71
42.41
52.40
63.18
75.28
89.09
104.59
121.37
138.76
156.13
173.07
189.53
205.69
221.88
238.52
256.09
275.04
295.38
316.24
335.55
350.24
357.05
353.68
339.78
317.18
289.31
259.88
231.80
206.46
183.88
163.47
144.75
127.51
111.47
95.78
79.03
59.87
38.04
15.08
-5.88
-21.24
-28.57
-27.77
-21.08
-11.92
-3.36
3.09
7.49
10.67
13.19
14.84
14.85
12.55
7.90
1.64
-4.97
-10.47
-13.63
-13.82
-11.08
-6.20
-0.52
4.52
7.87
9.16
8.67
6.81
3.79
-0.57
-6.62
-14.52
-24.12
-35.28
-47.97
-62.11
-77.03
-91.08
-101.95
-107.79
-108.32
-105.21
-101.33
-98.98
-98.65
-98.72
-96.52
-89.82
-77.96
-61.91
-43.86
-26.40
-11.55
-0.13
8.79
17.67
29.39
45.61
65.29
84.46
97.79
101.24
94.17
79.84
63.70
50.68
43.11
40.21
39.51
38.69
36.87
34.51
32.51
31.28
30.27
28.44
24.90
19.50
12.92
6.21
0.12
-5.13
-9.99
-15.04
-20.57
-26.29
-31.46
-35.38
-37.61
-38.26
-37.56
-35.62
-32.21
-26.97
-19.70
-10.60
-0.12
11.37
23.84
37.36
51.64
65.40
76.52
82.54
81.90
74.58
62.21
47.46
32.95
20.54
11.17
5.00
1.87
1.58
3.77
7.81
12.70
17.26
20.53
21.82
21.17
19.25
17.31
16.74
18.56
22.90
28.76
34.16
36.89
35.36
29.22
19.46
7.93
-3.58
-13.94
-23.17
-31.98
-41.06
-50.46
-59.30
-66.04
-69.14
-67.63
-61.55
-51.76
-39.59
-26.39
-13.26
-1.00
9.75
18.44
24.50
27.58
27.76
25.70
22.50
19.44
17.57
17.44
18.83
21.07
23.31
24.85
25.34
24.81
23.41
21.28
18.44
14.81
10.38
5.29
-0.14
-5.52
-10.48
-14.69
-17.98
-20.23
-21.44
-21.74
-21.44
-20.96
-20.84
-21.58
-23.53
-26.77
-31.04
-35.70
-39.81
-42.28
-42.13
-38.71
-32.02
-22.75
-12.13
-1.61
7.46
14.24
18.44
20.32
20.49
19.71
18.67
17.92
17.84
18.63
20.41
23.13
26.57
30.25
33.56
35.86
36.72
36.07
34.19
31.60
28.83
26.18
23.71
21.22
18.44
15.21
11.48
7.43
3.30
-0.60
-4.10
-7.26
-10.38
-13.96
-18.45
-23.96
-30.06
-35.73
-39.62
-40.54
-37.78
-31.45
-22.38
-11.83
-1.11
8.71
16.87
22.97
26.80
28.34
27.76
25.60
22.61
19.75
17.80
17.15
17.75
19.07
20.47
21.48
21.83
21.53
20.63
19.05
16.59
13.01
8.15
2.21
-4.35
-10.85
-16.65
-21.34
-24.76
-27.01
-28.37
-29.19
-29.97
-31.31
-33.81
-37.78
-42.90
-48.18
-52.09
-53.16
-50.63
-44.82
-37.06
-29.18
-22.75
-18.49
-16.20
-14.94
-13.68
-11.71
-8.93
-5.68
-2.49
0.32
2.76
5.17
7.91
11.07
14.32
16.97
18.33
17.99
16.04
12.99
9.51
6.15
3.15
0.47
-2.08
-4.61
-7.14
-9.58
-11.93
-14.39
-17.28
-20.90
-25.21
-29.68
-33.32
-35.00
-33.90
-29.80
-23.30
-15.50
-7.71
-0.96
4.14
7.50
9.24
9.60
8.81
7.15
4.98
2.80
1.08
0.22
0.33
1.22
2.50
3.67
4.32
4.28
3.61
2.61
1.62
0.85
0.32
-0.18
-0.89
-1.94
-3.22
-4.44
-5.34
-5.89
-6.34
-7.18
-8.91
-11.73
-15.52
-19.80
-23.94
-27.28
-29.18
-29.09
-26.68
-21.95
-15.37
-7.92
-0.80
4.90
8.54
10.08
9.96
8.79
7.13
5.34
3.75
2.70
2.58
3.60
5.68
8.29
10.58
11.70
11.20
9.21
6.42
3.68
1.66
0.51
-0.03
-0.42
-1.06
-2.08
-3.36
-4.73
-6.09
-7.43
-8.77
-10.21
-11.81
-13.78
-16.41
-19.93
-24.19
-28.54
-31.79
-32.93
-31.34
-27.24
-21.49
-15.19
-9.21
-4.04
0.15
3.14
4.67
4.58
3.03
0.76
-1.13
-1.68
-0.45
2.10
5.09
7.54
9.00
9.57
9.71
9.78
9.85
9.42
7.96
5.23
1.62
-1.99
-4.54
-5.38
-4.50
-2.66
-0.91
-0.04
-0.20
-0.87
-1.18
-0.57
0.88
2.30
2.46
0.52
-3.46
-8.37
-12.45
-13.99
-11.96
-6.53
1.18
9.49
16.83
22.14
25.06
25.86
25.22
23.87
22.40
21.14
20.18
19.46
18.90
18.47
18.24
18.18
18.16
17.86
16.95
15.23
12.83
10.20
7.95
6.53
6.01
6.05
6.01
5.36
3.92
1.86
-0.34
-2.22
-3.61
-4.69
-5.89
-7.63
-10.12
-13.35
-17.13
-21.24
-25.53
-29.77
-33.64
-36.57
-37.92
-37.15
-34.13
-29.27
-23.38
-17.44
-12.26
-8.33
-5.77
-4.49
-4.27
-4.89
-6.14
-7.73
-9.40
-10.87
-11.93
-12.47
-12.41
-11.78
-10.74
-9.58
-8.71
-8.57
-9.38
-11.07
-13.23
-15.31
-16.84
-17.65
-17.85
-17.77
-17.72
-17.84
-18.10
-18.40
-18.66
-18.85
-18.97
-18.95
-18.70
-18.16
-17.47
-16.91
-16.82
-17.33
-18.15
-18.65
-18.03
-15.68
-11.51
-5.94
0.20
5.97
10.65
13.85
15.51
15.86
15.23
14.05
12.75
11.71
11.26
11.62
12.86
14.94
17.74
20.98
24.26
27.15
29.16
29.96
29.47
27.81
25.35
22.44
19.30
15.95
12.22
7.96
3.30
-1.40
-5.60
-8.93
-11.35
-13.23
-15.09
-17.39
-20.27
-23.63
-27.26
-31.12
-35.26
-39.66
-43.95
-47.26
-48.54
-47.07
-42.93
-37.15
-31.38
-27.08
-24.93
-24.59
-24.99
-25.05
-24.19
-22.62
-20.95
-19.69
-18.80
-17.69
-15.60
-12.14
-7.52
-2.59
1.74
4.87
6.75
7.69
7.97
7.54
6.08
3.33
-0.37
-3.97
-5.94
-5.07
-1.09
5.13
11.97
17.81
21.77
23.95
25.16
26.25
27.70
29.43
31.21
32.86
34.65
37.11
40.64
45.13
49.85
53.61
55.33
54.41
51.12
46.44
41.65
37.80
35.23
33.64
32.34
30.75
28.77
26.75
25.29
24.79
25.25
26.19
26.91
26.79
25.48
23.02
19.71
15.97
12.18
8.68
5.70
3.44
2.01
1.37
1.31
1.40
1.15
0.11
-1.92
-4.81
-8.14
-11.46
-14.42
-16.84
-18.70
-19.90
-20.19
-19.27
-17.04
-13.84
-10.43
-7.78
-6.63
-7.12
-8.67
-10.28
-11.00
-10.37
-8.63
-6.51
-4.78
-3.88
-3.72
-3.91
-4.05
-4.09
-4.28
-4.99
-6.38
-8.16
-9.70
-10.37
-9.99
-9.02
-8.47
-9.40
-12.42
-17.21
-22.66
-27.24
-29.79
-30.03
-28.79
-27.57
-27.88
-30.48
-34.99
-40.20
-44.63
-47.21
-47.69
-46.49
-44.40
-42.16
-40.21
-38.72
-37.63
-36.68
-35.38
-32.96
-28.61
-21.79
-12.59
-1.91
8.72
17.73
24.01
27.34
28.27
27.81
26.96
26.40
26.39
26.85
27.54
28.14
28.36
27.90
26.55
24.25
21.14
17.58
13.97
10.74
8.12
6.17
4.73
3.42
1.74
-0.81
-4.61
-9.73
-15.84
-22.32
-28.23
-32.61
-34.67
-33.93
-30.40
-24.55
-17.22
-9.49
-2.39
3.32
7.24
9.33
9.81
8.96
7.16
4.85
2.61
1.04
0.68
1.71
3.91
6.70
9.32
11.19
12.16
12.44
12.47
12.56
12.71
12.58
11.70
9.78
6.99
3.86
1.08
-0.82
-1.79
-2.17
-2.52
-3.32
-4.69
-6.51
-8.62
-10.94
-13.51
-16.32
-18.98
-20.72
-20.51
-17.51
-11.57
-3.43
5.41
13.20
18.58
21.05
21.04
19.54
17.55
15.67
14.05
12.58
11.27
10.47
10.65
12.10
14.57
17.20
18.95
19.09
17.65
15.34
13.13
11.75
11.24
11.05
10.32
8.44
5.35
1.60
-2.01
-4.71
-6.17
-6.62
-6.66
-7.01
-8.13
-10.02
-12.33
-14.56
-16.38
-17.80
-19.03
-20.11
-20.70
-20.01
-17.27
-12.14
-5.14
2.57
9.55
14.79
18.02
19.54
19.85
19.25
17.84
15.78
13.59
12.14
12.38
14.73
18.72
23.04
26.08
26.60
24.24
19.64
14.06
8.87
4.90
2.34
0.85
-0.27
-1.58
-3.31
-5.34
-7.27
-8.96
-10.40
-11.79
-13.26
-14.63
-15.51
-15.56
-14.86
-14.14
-14.42
-16.43
-19.99
-23.85
-26.17
-25.37
-21.02
-14.28
-7.33
-2.39
-0.67
-1.85
-4.43
-6.60
-7.13
-6.01
-4.13
-2.58
-1.93
-1.93
-1.78
-0.81
1.17
3.54
5.43
6.20
5.79
4.69
3.62
3.10
3.26
3.77
4.15
4.03
3.29
2.09
0.77
-0.38
-1.14
-1.61
-2.14
-3.23
-5.41
-8.94
-13.64
-18.93
-23.86
-27.47
-29.02
-28.19
-25.15
-20.48
-14.96
-9.39
-4.42
-0.49
2.10
3.13
2.49
0.20
-3.43
-7.75
-11.90
-15.02
-16.54
-16.37
-14.90
-12.81
-10.86
-9.67
-9.60
-10.62
-12.23
-13.44
-13.06
-10.15
-4.47
3.22
11.44
18.58
23.55
26.14
26.97
26.85
26.30
25.21
23.03
19.16
13.41
6.24
-1.38
-8.28
-13.43
-16.14
-16.15
-13.57
-8.88
-2.79
3.80
9.93
14.72
17.61
18.51
17.79
16.13
14.25
12.68
11.63
11.00
10.55
10.13
9.76
9.60
9.87
10.65
11.90
13.41
14.91
16.18
16.97
17.11
16.38
14.64
11.90
8.44
4.81
1.73
-0.20
-0.76
-0.18
0.83
1.41
0.91
-0.93
-3.73
-6.71
-8.91
-9.60
-8.56
-6.06
-2.75
0.69
3.75
6.16
7.83
8.69
8.59
7.41
5.21
2.36
-0.49
-2.66
-3.73
-3.64
-2.73
-1.48
-0.29
0.63
1.33
1.80
2.01
1.75
0.79
-0.96
-3.34
-5.97
-8.30
-9.96
-10.86
-11.19
-11.39
-11.85
-12.79
-14.14
-15.62
-16.88
-17.56
-17.37
-16.02
-13.30
-9.10
-3.63
2.57
8.56
13.38
16.25
16.92
15.73
13.41
10.83
8.66
7.18
6.31
5.84
5.57
5.50
5.75
6.44
7.51
8.61
9.20
8.77
7.04
4.17
0.68
-2.73
-5.43
-7.13
-7.91
-8.16
-8.35
-8.86
-9.89
-11.46
-13.40
-15.53
-17.58
-19.16
-19.82
-19.05
-16.50
-12.13
-6.32
0.10
6.14
10.88
13.78
14.75
14.13
12.45
10.20
7.76
5.32
3.05
1.13
-0.25
-0.90
-0.73
0.15
1.40
2.57
3.14
2.69
1.10
-1.45
-4.49
-7.38
-9.58
-10.86
-11.39
-11.64
-12.21
-13.50
-15.57
-18.07
-20.41
-21.94
-22.11
-20.61
-17.38
-12.60
-6.66
-0.07
6.51
12.38
16.90
19.60
20.33
19.27
16.91
13.94
11.03
8.70
7.27
6.80
7.19
8.21
9.63
11.15
12.49
13.38
13.58
12.93
11.45
9.25
6.63
3.99
1.69
-0.02
-1.17
-2.07
-3.13
-4.79
-7.24
-10.29
-13.45
-15.99
-17.21
-16.57
-13.85
-9.21
-3.15
3.59
10.16
15.71
19.51
21.04
20.13
16.92
12.05
6.49
1.37
-2.34
-4.12
-4.04
-2.61
-0.50
1.69
3.73
5.51
6.96
7.87
7.93
6.92
4.90
2.27
-0.39
-2.63
-4.35
-5.82
-7.54
-9.92
-13.08
-16.76
-20.40
-23.36
-25.06
-25.12
-23.37
-19.83
-14.81
-8.83
-2.61
2.99
7.25
9.77
10.57
10.11
9.06
8.05
7.49
7.49
7.90
8.54
9.26
9.99
10.70
11.29
11.63
11.58
11.02
9.86
8.05
5.50
2.22
-1.62
-5.65
-9.37
-12.33
-14.36
-15.65
-16.59
-17.65
-19.08
-20.88
-22.90
-24.98
-27.00
-28.85
-30.20
-30.50
-29.00
-25.04
-18.45
-9.67
0.19
9.70
17.51
22.77
25.29
25.45
24.00
21.75
19.42
17.54
16.48
16.39
17.28
18.93
20.92
22.70
23.74
23.62
22.20
19.62
16.24
12.52
8.88
5.60
2.75
0.24
-2.05
-4.15
-5.94
-7.23
-7.90
-8.11
-8.25
-8.83
-10.23
-12.48
-15.16
-17.57
-18.89
-18.50
-16.12
-11.93
-6.49
-0.61
4.85
9.22
12.12
13.56
13.79
13.16
12.04
10.77
9.70
9.18
9.51
10.73
12.61
14.62
16.14
16.77
16.58
15.94
15.42
15.44
16.02
16.89
17.62
17.80
17.23
15.71
13.22
9.86
6.01
2.31
-0.43
-1.66
-1.36
-0.29
0.30
-0.72
-3.87
-8.65
-13.75
-17.59
-18.87
-17.22
-13.04
-7.26
-0.90
5.31
10.97
15.83
19.69
22.02
22.39
20.66
17.25
13.24
9.96
8.46
9.12
11.30
13.84
15.67
16.36
16.30
16.36
17.24
18.91
20.45
20.69
18.87
15.32
11.30
8.43
7.74
9.19
11.47
12.65
10.99
5.60
-3.28
-14.45
-26.25
-36.93
-45.27
-50.60
-52.86
-52.33
-49.47
-44.73
-38.56
-31.44
-24.13
-17.53
-12.45
-9.30
-7.86
-7.46
-7.22
-6.53
-5.25
-3.71
-2.31
-1.26
-0.42
0.66
2.43
5.10
8.53
12.25
15.70
18.35
19.91
20.35
19.89
18.91
17.82
16.94
16.39
16.09
15.74
15.03
13.72
11.81
9.54
7.22
5.02
2.77
-0.04
-4.15
-10.10
-17.88
-26.79
-35.57
-42.73
-47.04
-47.81
-45.01
-39.17
-31.23
-22.27
-13.39
-5.52
0.66
4.74
6.60
6.36
4.35
1.08
-2.78
-6.47
-9.26
-10.74
-10.83
-9.86
-8.38
-6.95
-5.95
-5.60
-5.99
-7.15
-9.07
-11.52
-14.09
-16.26
-17.59
-17.94
-17.51
-16.68
-15.66
-14.42
-12.62
-9.96
-6.46
-2.55
1.01
3.40
4.10
3.05
0.73
-2.07
-4.37
-5.36
-4.54
-1.81
2.50
7.82
13.40
18.57
22.69
25.32
26.14
25.13
22.53
18.89
14.94
11.42
8.93
7.75
7.88
9.05
10.86
12.97
15.11
17.05
18.51
19.16
18.63
16.69
13.44
9.33
5.09
1.38
-1.39
-3.27
-4.65
-5.97
-7.45
-8.97
-10.27
-11.23
-12.12
-13.58
-16.28
-20.53
-25.95
-31.46
-35.72
-37.64
-36.74
-33.27
-27.97
-21.71
-15.17
-8.85
-3.15
1.52
4.78
6.41
6.54
5.63
4.37
3.43
3.25
3.91
5.22
6.85
8.45
9.76
10.60
10.91
10.66
9.81
8.32
6.17
3.42
0.26
-3.02
-6.10
-8.74
-11.01
-13.13
-15.41
-18.06
-20.94
-23.68
-25.71
-26.51
-25.86
-23.86
-20.83
-17.09
-12.78
-7.84
-2.15
4.27
11.03
17.41
22.50
25.57
26.27
24.84
21.92
18.39
14.97
12.11
9.91
8.30
7.15
6.40
6.04
6.12
6.55
7.17
7.70
7.85
7.41
6.32
4.73
2.93
1.28
-0.01
-0.98
-1.88
-3.06
-4.73
-6.86
-9.14
-11.28
-13.11
-14.77
-16.55
-18.69
-21.09
-23.27
-24.51
-24.09
-21.68
-17.43
-11.98
-6.20
-0.90
3.33
6.29
8.00
8.61
8.31
7.21
5.55
3.67
2.03
1.10
1.14
2.10
3.64
5.26
6.50
7.17
7.30
7.08
6.69
6.22
5.60
4.67
3.31
1.49
-0.62
-2.74
-4.60
-6.01
-7.00
-7.80
-8.77
-10.22
-12.31
-14.88
-17.56
-19.81
-21.12
-21.07
-19.42
-16.10
-11.30
-5.45
0.80
6.63
11.25
14.04
14.80
13.72
11.40
8.65
6.26
4.81
4.56
5.36
6.88
8.66
10.29
11.57
12.43
12.92
13.10
12.97
12.44
11.42
9.85
7.80
5.44
2.97
0.59
-1.60
-3.58
-5.40
-7.14
-8.87
-10.66
-12.60
-14.74
-17.03
-19.17
-20.65
-20.81
-19.08
-15.27
-9.67
-3.10
3.35
8.64
12.06
13.40
12.91
11.17
8.84
6.50
4.59
3.38
3.03
3.58
5.00
7.10
9.52
11.81
13.50
14.26
13.96
12.74
10.93
8.87
6.79
4.76
2.70
0.55
-1.64
-3.72
-5.43
-6.60
-7.28
-7.75
-8.47
-9.81
-11.88
-14.32
-16.37
-17.07
-15.70
-11.94
-6.12
0.90
8.02
14.20
18.76
21.52
22.68
22.67
21.99
21.06
20.22
19.75
19.91
20.89
22.73
25.22
27.94
30.34
31.93
32.45
31.99
30.92
29.68
28.61
27.84
27.34
27.05
27.02
27.33
27.91
28.24
27.33
23.77
16.19
3.81
-13.06
-32.86
-53.01
-70.58
-83.02
-88.83
-87.77
-80.83
-69.61
-55.99
-41.61
-27.81
-15.61
-5.77
1.20
5.14
6.29
5.25
2.79
-0.34
-3.66
-6.91
-9.96
-12.62
-14.54
-15.31
-14.66
-12.72
-10.05
-7.43
-5.54
-4.68
-4.62
-4.91
-5.14
-5.22
-5.46
-6.23
-7.71
-9.76
-12.02
-14.38
-16.93
-19.94
-23.42
-26.72
-28.57
-27.54
-22.82
-14.79
-4.94
4.71
12.49
17.71
20.70
22.29
23.15
23.32
22.40
20.08
16.52
12.59
9.47
8.06
8.58
10.28
11.98
12.68
12.08
10.70
9.46
9.01
9.33
9.49
8.37
5.32
0.70
-4.20
-7.81
-9.17
-8.38
-6.66
-5.58
-6.33
-9.20
-13.57
-18.28
-22.13
-24.08
-23.52
-20.19
-14.34
-6.72
1.54
9.16
15.05
18.73
20.20
19.77
17.89
14.98
11.51
8.14
5.63
4.62
5.29
7.26
9.71
11.77
12.85
12.84
11.98
10.64
9.12
7.58
6.08
4.50
2.67
0.41
-2.39
-5.59
-8.82
-11.64
-13.81
-15.52
-17.29
-19.64
-22.67
-25.74
-27.59
-26.94
-23.11
-16.45
-8.29
-0.39
5.79
9.63
11.38
11.84
11.84
11.86
11.91
11.75
11.26
10.63
10.33
10.84
12.33
14.45
16.48
17.65
17.53
16.25
14.33
12.43
10.87
9.49
7.81
5.43
2.38
-0.77
-3.21
-4.38
-4.39
-4.09
-4.63
-6.83
-10.62
-14.90
-17.94
-18.13
-14.62
-7.70
1.33
10.70
18.78
24.57
27.92
29.40
29.98
30.56
31.65
33.22
34.85
35.94
36.06
35.01
32.80
29.51
25.18
19.86
13.73
7.29
1.20
-3.90
-7.70
-10.43
-12.73
-15.35
-18.78
-23.05
-27.84
-32.73
-37.60
-42.65
-48.21
-54.38
-60.76
-66.36
-70.06
-71.03
-69.08
-64.76
-58.93
-52.32
-45.21
-37.47
-28.91
-19.70
-10.46
-2.01
5.09
10.97
16.37
22.26
29.10
36.47
43.06
47.20
47.58
43.87
36.86
28.12
19.37
11.89
6.18
1.97
-1.46
-5.02
-9.57
-15.71
-23.75
-33.33
-43.14
-50.82
-53.29
-47.79
-33.17
-10.83
15.19
39.40
56.86
64.89
63.89
56.76
47.41
39.17
33.85
31.77
32.36
34.80
38.35
42.31
45.84
48.08
48.28
46.18
42.19
37.22
32.38
28.47
25.83
24.37
23.64
23.25
22.90
22.42
21.52
19.76
16.55
11.55
4.90
-2.70
-10.19
-16.72
-22.01
-26.54
-31.08
-36.10
-41.32
-45.65
-47.59
-45.97
-40.36
-31.21
-19.54
-6.50
6.82
19.34
29.89
37.25
40.40
38.93
33.42
25.40
16.98
10.16
6.30
5.75
7.94
11.77
16.04
19.78
22.39
23.68
23.67
22.49
20.30
17.29
13.80
10.40
7.81
6.69
7.35
9.46
12.14
14.28
15.01
14.06
11.79
8.92
6.09
3.58
1.29
-1.06
-3.57
-6.05
-8.17
-9.79
-11.12
-12.69
-15.03
-18.31
-22.23
-26.15
-29.46
-31.91
-33.72
-35.39
-37.36
-39.86
-42.78
-45.76
-48.30
-49.84
-49.83
-47.78
-43.43
-36.97
-29.02
-20.53
-12.45
-5.51
-0.09
3.69
5.96
6.89
6.83
6.26
5.79
5.92
6.90
8.61
10.72
12.85
14.81
16.61
18.35
19.97
21.17
21.45
20.41
17.98
14.53
10.88
8.00
6.66
7.10
8.91
11.22
13.01
13.47
12.30
9.74
6.37
2.87
-0.27
-2.81
-4.71
-6.13
-7.25
-8.41
-10.05
-12.61
-16.33
-20.92
-25.52
-28.77
-29.28
-26.23
-19.68
-10.69
-0.89
7.99
14.73
18.84
20.49
20.32
19.02
17.20
15.30
13.65
12.55
12.24
12.82
14.10
15.69
17.03
17.59
17.13
15.73
13.78
11.77
10.02
8.57
7.27
5.81
4.00
1.79
-0.68
-3.20
-5.54
-7.56
-9.23
-10.60
-11.77
-12.89
-14.03
-15.21
-16.36
-17.40
-18.38
-19.49
-21.09
-23.47
-26.70
-30.39
-33.78
-35.90
-35.91
-33.37
-28.36
-21.52
-13.87
-6.55
-0.57
3.39
5.16
5.04
3.73
2.02
0.61
-0.07
0.11
1.09
2.64
4.52
6.47
8.28
9.73
10.64
10.94
10.64
9.83
8.61
7.09
5.36
3.48
1.53
-0.40
-2.17
-3.73
-5.07
-6.26
-7.39
-8.50
-9.59
-10.58
-11.46
-12.27
-13.09
-14.03
-15.16
-16.55
-18.41
-20.94
-24.16
-27.72
-30.66
-31.62
-29.26
-22.81
-12.63
-0.11
12.63
23.50
31.01
34.54
34.34
31.24
26.29
20.60
15.20
10.89
8.31
7.76
9.19
12.17
15.76
18.93
20.70
20.53
18.59
15.68
12.84
10.93
10.12
9.91
9.58
8.58
6.95
5.29
4.27
4.22
4.69
4.79
3.64
0.89
-3.01
-7.13
-10.60
-13.11
-15.19
-17.69
-21.13
-25.21
-28.64
-29.74
-27.27
-21.08
-12.44
-3.38
4.19
9.29
12.05
13.45
14.43
15.46
16.31
16.45
15.62
14.18
13.09
13.43
15.85
20.24
25.65
30.76
34.37
35.84
35.22
33.09
30.24
27.41
24.91
22.74
20.57
18.03
14.81
10.84
6.29
1.53
-3.03
-7.09
-10.59
-13.65
-16.52
-19.39
-22.36
-25.46
-28.66
-31.92
-35.10
-37.81
-39.42
-39.14
-36.34
-30.88
-23.26
-14.67
-6.54
-0.21
3.52
4.48
3.13
0.32
-2.97
-5.87
-7.73
-8.26
-7.50
-5.72
-3.33
-0.76
1.65
3.65
5.05
5.75
5.79
5.34
4.64
3.91
3.21
2.39
1.11
-0.84
-3.47
-6.43
-9.16
-11.15
-12.23
-12.69
-13.18
-14.44
-17.04
-21.05
-25.95
-30.74
-34.19
-35.23
-33.26
-28.36
-21.18
-12.76
-4.20
3.54
9.82
14.27
16.75
17.40
16.54
14.71
12.52
10.48
8.92
8.03
7.88
8.53
9.97
12.09
14.55
16.84
18.44
18.97
18.35
16.72
14.30
11.27
7.75
3.82
-0.32
-4.32
-7.78
-10.38
-11.96
-12.70
-12.97
-13.23
-13.95
-15.40
-17.62
-20.30
-22.91
-24.75
-25.06
-23.32
-19.31
-13.34
-6.15
1.22
7.64
12.27
14.76
15.33
14.58
13.27
11.94
10.85
10.02
9.47
9.30
9.73
10.86
12.58
14.47
15.99
16.75
16.66
15.94
14.91
13.74
12.35
10.51
8.10
5.28
2.48
0.19
-1.35
-2.34
-3.35
-5.02
-7.73
-11.38
-15.36
-18.80
-20.84
-20.98
-19.12
-15.44
-10.28
-4.03
2.87
9.91
16.41
21.51
24.40
24.64
22.39
18.45
14.06
10.44
8.39
8.01
8.88
10.29
11.63
12.60
13.14
13.27
12.90
11.79
9.64
6.35
2.10
-2.58
-7.00
-10.53
-12.86
-14.11
-14.73
-15.39
-16.63
-18.75
-21.58
-24.59
-26.92
-27.74
-26.45
-22.89
-17.47
-11.00
-4.51
1.08
5.22
7.82
9.13
9.50
9.18
8.23
6.62
4.50
2.28
0.54
-0.15
0.48
2.24
4.61
6.93
8.69
9.63
9.62
8.64
6.60
3.49
-0.56
-5.19
-9.82
-13.93
-17.19
-19.68
-21.77
-23.96
-26.52
-29.28
-31.55
-32.31
-30.61
-26.00
-18.76
-9.92
-0.87
7.05
12.94
16.59
18.22
18.29
17.19
15.15
12.31
8.90
5.38
2.48
0.88
1.01
2.76
5.48
8.19
9.95
10.22
9.05
6.94
4.47
2.04
-0.37
-2.99
-6.12
-9.82
-13.86
-17.90
-21.66
-25.07
-28.22
-31.05
-33.24
-34.09
-32.82
-28.86
-22.33
-14.07
-5.42
2.22
7.78
10.79
11.46
10.36
8.17
5.49
2.73
0.25
-1.68
-2.74
-2.68
-1.39
0.99
4.03
7.08
9.46
10.66
10.51
9.24
7.29
5.12
3.01
0.92
-1.27
-3.74
-6.50
-9.41
-12.21
-14.65
-16.49
-17.43
-17.11
-15.16
-11.38
-5.94
0.58
7.27
13.14
17.42
19.75
20.17
19.01
16.79
14.08
11.43
9.32
8.13
8.07
9.08
10.89
13.02
14.89
16.07
16.31
15.66
14.38
12.85
11.35
10.08
9.00
7.94
6.62
4.80
2.28
-0.91
-4.51
-7.93
-10.35
-10.97
-9.29
-5.42
-0.11
5.50
10.22
13.34
14.78
15.00
14.64
14.16
13.59
12.71
11.31
9.48
7.62
6.29
5.86
6.31
7.32
8.40
9.23
9.72
9.94
9.96
9.67
8.83
7.25
4.89
1.97
-1.31
-4.91
-9.24
-14.96
-22.55
-31.87
-41.93
-51.06
-57.50
-59.94
-57.84
-51.42
-41.40
-28.80
-14.91
-1.30
10.31
18.37
22.01
21.41
17.72
12.62
7.60
3.52
0.48
-1.84
-3.79
-5.39
-6.39
-6.40
-5.17
-2.65
0.97
5.26
9.67
13.50
16.07
16.98
16.12
13.85
10.66
7.02
3.18
-0.82
-4.86
-8.51
-11.03
-11.55
-9.67
-5.64
-0.37
4.94
9.31
12.34
14.06
14.77
14.55
13.27
10.76
7.10
2.84
-1.16
-3.98
-5.03
-4.43
-2.78
-0.88
0.58
1.31
1.41
1.12
0.62
-0.33
-2.13
-5.12
-9.23
-13.83
-17.91
-20.60
-21.52
-21.27
-20.97
-21.79
-24.19
-27.58
-30.55
-31.49
-29.36
-24.21
-17.08
-9.42
-2.45
3.30
7.93
11.83
15.30
18.11
19.84
20.11
18.99
17.05
15.22
14.30
14.67
16.08
17.82
19.12
19.52
19.03
17.97
16.77
15.69
14.65
13.36
11.51
8.97
5.85
2.54
-0.56
-3.03
-4.68
-5.57
-6.04
-6.63
-7.86
-10.07
-13.16
-16.57
-19.43
-20.83
-20.11
-17.13
-12.26
-6.28
-0.11
5.41
9.77
12.81
14.61
15.33
15.08
13.96
12.12
9.93
8.00
6.94
7.17
8.64
10.84
12.97
14.31
14.39
13.22
11.07
8.35
5.43
2.52
-0.31
-3.01
-5.50
-7.65
-9.30
-10.40
-11.02
-11.40
-11.84
-12.64
-13.93
-15.74
-17.97
-20.51
-23.22
-25.79
-27.67
-28.12
-26.33
-21.85
-14.87
-6.31
2.42
9.95
15.40
18.64
20.13
20.60
20.60
20.31
19.66
18.59
17.32
16.29
16.03
16.79
18.31
19.94
20.91
20.70
19.34
17.26
15.04
13.07
11.28
9.33
6.78
3.51
-0.20
-3.79
-6.63
-8.39
-9.10
-9.17
-9.10
-9.37
-10.30
-12.00
-14.44
-17.47
-20.80
-23.90
-26.09
-26.62
-24.88
-20.67
-14.33
-6.67
1.18
8.16
13.44
16.64
17.79
17.25
15.62
13.55
11.65
10.36
9.85
10.10
10.92
12.09
13.49
14.96
16.40
17.59
18.29
18.37
17.89
17.10
16.35
15.73
15.12
14.15
12.47
10.01
7.09
4.24
2.00
0.55
-0.27
-0.89
-1.70
-2.90
-4.45
-6.22
-8.14
-10.29
-12.68
-15.03
-16.70
-16.73
-14.29
-9.13
-1.83
6.22
13.40
18.43
20.86
21.13
20.18
18.96
18.05
17.50
17.11
16.68
16.26
16.10
16.46
17.43
18.87
20.37
21.53
22.05
21.81
20.83
19.23
17.19
14.87
12.44
10.02
7.70
5.46
3.27
1.10
-1.00
-2.93
-4.57
-5.86
-6.80
-7.52
-8.21
-9.10
-10.45
-12.42
-14.98
-17.82
-20.32
-21.61
-20.87
-17.66
-12.10
-4.90
2.82
9.91
15.48
19.11
20.73
20.56
18.88
16.07
12.54
8.86
5.69
3.67
3.18
4.24
6.42
9.02
11.28
12.57
12.60
11.36
9.17
6.44
3.60
0.95
-1.35
-3.33
-5.06
-6.57
-7.86
-8.82
-9.43
-9.69
-9.75
-9.83
-10.18
-11.01
-12.42
-14.42
-16.90
-19.62
-22.20
-24.18
-25.00
-24.24
-21.63
-17.27
-11.62
-5.38
0.59
5.52
8.88
10.45
10.36
8.97
6.78
4.31
2.07
0.46
-0.23
0.07
1.20
2.81
4.48
5.84
6.69
7.01
6.85
6.27
5.33
3.98
2.23
0.13
-2.18
-4.54
-6.79
-8.87
-10.73
-12.34
-13.67
-14.62
-15.13
-15.24
-15.15
-15.22
-15.82
-17.25
-19.49
-22.14
-24.46
-25.56
-24.71
-21.62
-16.51
-10.05
-3.11
3.47
9.03
13.14
15.53
16.05
14.74
11.87
8.03
4.00
0.62
-1.51
-2.12
-1.40
0.20
2.10
3.86
5.22
6.13
6.56
6.49
5.82
4.52
2.65
0.45
-1.67
-3.36
-4.43
-5.04
-5.59
-6.51
-8.06
-10.19
-12.58
-14.86
-16.87
-18.68
-20.58
-22.87
-25.55
-28.22
-30.14
-30.48
-28.64
-24.60
-18.85
-12.36
-6.16
-1.05
2.57
4.73
5.57
5.28
3.89
1.47
-1.68
-4.97
-7.53
-8.61
-7.86
-5.55
-2.41
0.62
2.88
4.13
4.57
4.56
4.36
3.97
3.22
1.90
-0.06
-2.48
-5.04
-7.34
-9.15
-10.39
-11.16
-11.68
-12.20
-12.97
-14.22
-16.06
-18.47
-21.16
-23.58
-24.97
-24.59
-21.93
-17.05
-10.54
-3.41
3.24
8.53
12.03
13.74
14.05
13.40
12.16
10.59
8.87
7.23
5.97
5.44
5.89
7.31
9.38
11.57
13.30
14.17
14.08
13.19
11.85
10.25
8.50
6.49
4.10
1.32
-1.64
-4.41
-6.61
-8.16
-9.28
-10.38
-11.84
-13.74
-15.72
-17.18
-17.51
-16.50
-14.29
-11.27
-7.80
-4.01
0.20
4.83
9.64
13.82
16.47
16.89
15.04
11.69
8.11
5.46
4.43
4.69
5.42
5.72
5.27
4.50
4.30
5.41
7.91
10.84
12.81
12.66
10.16
6.21
2.34
-0.14
-0.75
-0.27
-0.13
-1.59
-5.03
-9.73
-14.38
-17.78
-19.39
-19.53
-18.86
-17.78
-16.13
-13.32
-8.83
-2.74
4.13
10.35
14.61
16.19
15.23
12.56
9.28
6.32
4.21
2.98
2.41
2.26
2.40
2.85
3.67
4.77
6.00
7.00
7.45
7.12
6.00
4.24
2.10
-0.18
-2.40
-4.45
-6.32
-8.04
-9.73
-11.52
-13.55
-15.96
-18.73
-21.70
-24.50
-26.61
-27.44
-26.52
-23.69
-19.12
-13.38
-7.26
-1.60
2.92
5.95
7.53
7.94
7.61
6.98
6.37
6.03
6.10
6.62
7.57
8.84
10.23
11.48
12.34
12.60
12.18
11.13
9.58
7.73
5.77
3.89
2.27
1.01
0.14
-0.47
-0.99
-1.71
-2.85
-4.55
-6.80
-9.40
-12.00
-14.09
-15.10
-14.48
-11.90
-7.36
-1.30
5.49
12.02
17.42
21.11
22.94
23.18
22.35
21.05
19.85
19.12
19.02
19.50
20.32
21.24
22.05
22.67
23.13
23.49
23.68
23.52
22.72
21.06
18.48
15.17
11.46
7.74
4.28
1.21
-1.45
-3.71
-5.63
-7.32
-9.01
-10.98
-13.49
-16.60
-19.91
-22.65
-23.75
-22.35
-18.09
-11.37
-3.28
4.78
11.56
16.28
18.80
19.39
18.52
16.64
14.12
11.38
8.87
7.09
6.42
6.93
8.31
9.99
11.33
11.94
11.75
11.02
10.14
9.39
8.75
7.98
6.70
4.70
2.02
-0.96
-3.69
-5.79
-7.11
-7.88
-8.58
-9.63
-11.30
-13.54
-16.04
-18.37
-20.08
-20.68
-19.78
-17.01
-12.17
-5.48
2.41
10.38
17.15
21.66
23.45
22.78
20.46
17.53
14.88
12.99
11.97
11.74
12.22
13.32
14.93
16.80
18.51
19.50
19.34
17.83
15.13
11.66
7.95
4.46
1.47
-0.96
-2.95
-4.70
-6.47
-8.41
-10.63
-13.07
-15.61
-18.13
-20.57
-23.00
-25.50
-28.01
-30.16
-31.30
-30.57
-27.40
-21.71
-14.21
-6.13
1.14
6.54
9.63
10.70
10.38
9.30
7.87
6.17
4.23
2.21
0.46
-0.60
-0.74
-0.12
0.78
1.35
1.21
0.37
-0.80
-1.80
-2.35
-2.60
-3.04
-4.26
-6.60
-10.03
-14.09
-18.10
-21.40
-23.61
-24.72
-25.02
-25.02
-25.24
-26.02
-27.43
-29.20
-30.79
-31.52
-30.74
-27.99
-23.24
-16.84
-9.48
-2.06
4.53
9.58
12.63
13.62
12.76
10.61
7.93
5.57
4.24
4.38
6.02
8.87
12.28
15.57
18.16
19.66
19.96
19.18
17.60
15.54
13.30
11.05
8.83
6.62
4.34
2.02
-0.31
-2.54
-4.62
-6.54
-8.35
-10.20
-12.25
-14.60
-17.21
-19.78
-21.74
-22.37
-20.98
-17.19
-11.19
-3.74
4.04
11.02
16.33
19.56
20.72
20.10
18.15
15.34
12.14
9.11
6.72
5.38
5.26
6.32
8.26
10.56
12.65
14.04
14.46
13.90
12.65
11.04
9.33
7.60
5.68
3.40
0.74
-2.12
-4.76
-6.81
-8.18
-9.12
-10.19
-11.94
-14.59
-17.76
-20.55
-21.79
-20.52
-16.35
-9.64
-1.42
7.04
14.50
20.15
23.58
24.74
23.83
21.22
17.44
13.17
9.18
6.18
4.59
4.48
5.48
6.98
8.35
9.15
9.31
9.01
8.56
8.14
7.74
7.15
6.13
4.56
2.54
0.37
-1.66
-3.39
-4.90
-6.46
-8.36
-10.78
-13.65
-16.58
-18.90
-19.86
-18.79
-15.34
-9.61
-2.14
6.19
14.43
21.74
27.53
31.49
33.54
33.74
32.37
29.92
27.04
24.43
22.64
21.90
22.06
22.76
23.58
24.21
24.54
24.56
24.26
23.52
22.16
20.02
17.11
13.64
9.92
6.26
2.84
-0.31
-3.22
-5.88
-8.32
-10.60
-13.00
-16.01
-20.05
-25.14
-30.67
-35.43
-37.97
-37.21
-32.85
-25.54
-16.64
-7.72
-0.13
5.37
8.57
9.80
9.49
8.23
6.54
4.81
3.42
2.68
2.77
3.77
5.29
6.79
7.67
7.57
6.60
5.31
4.32
3.98
3.94
3.40
1.52
-2.03
-6.75
-11.45
-14.89
-16.38
-16.30
-15.75
-16.06
-18.06
-21.69
-26.19
-30.52
-33.91
-36.21
-37.57
-37.98
-37.07
-34.06
-28.35
-20.05
-10.13
-0.44
7.22
11.68
12.91
11.89
10.02
8.52
8.03
8.46
9.36
10.27
10.95
11.45
11.94
12.47
13.03
13.35
13.17
12.27
10.59
8.18
5.23
1.96
-1.37
-4.58
-7.53
-10.17
-12.51
-14.54
-16.27
-17.73
-19.01
-20.33
-21.94
-23.99
-26.37
-28.58
-29.80
-29.17
-26.06
-20.43
-12.88
-4.45
3.62
10.30
15.00
17.59
18.33
17.69
16.20
14.36
12.61
11.26
10.49
10.31
10.61
11.16
11.67
11.89
11.58
10.63
9.04
6.95
4.56
2.08
-0.39
-2.89
-5.55
-8.50
-11.70
-14.92
-17.81
-20.10
-21.75
-23.06
-24.56
-26.75
-29.85
-33.58
-37.16
-39.56
-39.74
-37.09
-31.54
-23.67
-14.46
-5.02
3.63
10.84
16.17
19.47
20.75
20.18
18.15
15.31
12.45
10.38
9.68
10.46
12.42
14.92
17.25
18.85
19.45
19.06
17.79
15.81
13.20
10.08
6.59
3.04
-0.22
-2.86
-4.71
-5.84
-6.53
-7.20
-8.23
-9.86
-12.16
-14.95
-17.93
-20.70
-22.79
-23.79
-23.33
-21.21
-17.44
-12.38
-6.73
-1.43
2.58
4.69
4.78
3.33
1.19
-0.67
-1.43
-0.60
1.96
6.07
11.36
17.25
23.12
28.30
32.21
34.49
34.96
33.65
30.76
26.64
21.71
16.40
11.09
6.03
1.32
-2.92
-6.61
-9.66
-12.12
-14.29
-16.66
-19.67
-23.40
-27.37
-30.53
-31.74
-30.18
-25.85
-19.56
-12.61
-6.29
-1.43
1.76
3.58
4.53
4.98
5.12
4.99
4.69
4.48
4.76
5.88
7.93
10.56
13.13
14.96
15.68
15.34
14.37
13.27
12.38
11.63
10.69
9.23
7.13
4.60
2.03
-0.24
-2.06
-3.62
-5.32
-7.56
-10.52
-14.02
-17.51
-20.17
-21.09
-19.56
-15.30
-8.65
-0.47
8.03
15.61
21.38
24.98
26.52
26.46
25.38
23.74
21.92
20.16
18.75
17.99
18.13
19.21
21.00
22.96
24.49
25.04
24.44
22.85
20.68
18.39
16.25
14.30
12.48
10.69
8.95
7.40
6.10
4.92
3.49
1.29
-2.02
-6.44
-11.45
-16.15
-19.51
-20.70
-19.35
-15.59
-10.03
-3.52
3.07
9.03
13.85
17.27
19.17
19.55
18.59
16.60
14.09
11.65
9.88
9.12
9.38
10.27
11.19
11.55
11.02
9.64
7.70
5.60
3.58
1.63
-0.41
-2.75
-5.43
-8.23
-10.85
-12.99
-14.61
-15.95
-17.36
-19.25
-21.77
-24.71
-27.61
-29.79
-30.65
-29.78
-27.04
-22.59
-16.83
-10.29
-3.59
2.61
7.76
11.36
13.22
13.38
12.22
10.34
8.40
6.99
6.44
6.72
7.57
8.61
9.49
10.09
10.36
10.30
9.79
8.55
6.40
3.34
-0.25
-3.74
-6.51
-8.25
-9.13
-9.64
-10.35
-11.60
-13.45
-15.66
-18.02
-20.46
-23.00
-25.68
-28.20
-29.97
-30.25
-28.42
-24.35
-18.51
-11.88
-5.64
-0.76
2.27
3.52
3.49
2.87
2.21
1.83
1.76
1.85
1.92
1.87
1.73
1.54
1.38
1.20
0.90
0.32
-0.61
-1.92
-3.50
-5.17
-6.79
-8.22
-9.42
-10.42
-11.25
-11.92
-12.42
-12.80
-13.21
-13.94
-15.37
-17.68
-20.70
-23.76
-25.80
-25.71
-22.86
-17.31
-9.91
-2.00
5.06
10.38
13.62
14.96
14.86
13.78
12.15
10.32
8.64
7.51
7.24
7.92
9.33
11.03
12.47
13.25
13.23
12.56
11.49
10.25
8.88
7.27
5.24
2.71
-0.19
-3.07
-5.44
-6.89
-7.32
-7.03
-6.64
-6.83
-8.08
-10.30
-12.87
-14.76
-15.01
-13.05
-9.02
-3.62
2.21
7.66
12.21
15.68
17.98
18.97
18.47
16.45
13.23
9.51
6.10
3.72
2.64
2.76
3.76
5.28
7.06
8.89
10.43
11.23
10.88
9.21
6.54
3.53
0.93
-0.78
-1.69
-2.37
-3.53
-5.63
-8.60
-11.93
-14.90
-16.89
-17.70
-17.37
-16.01
-13.67
-10.20
-5.43
0.54
7.23
13.67
18.77
21.77
22.55
21.71
20.29
19.23
19.03
19.42
19.82
19.69
19.02
18.39
18.63
20.22
22.86
25.44
26.59
25.35
21.76
16.80
11.90
8.20
6.09
4.94
3.73
1.55
-1.83
-5.99
-10.11
-13.61
-16.27
-18.33
-19.98
-21.11
-21.18
-19.50
-15.74
-10.23
-3.95
1.73
5.66
7.27
6.73
4.70
2.02
-0.62
-2.74
-4.17
-4.88
-4.91
-4.39
-3.54
-2.60
-1.86
-1.52
-1.73
-2.56
-4.01
-6.07
-8.65
-11.61
-14.67
-17.54
-19.92
-21.68
-22.89
-23.79
-24.70
-25.84
-27.19
-28.44
-29.06
-28.43
-26.05
-21.79
-15.90
-9.02
-1.99
4.42
9.69
13.59
16.13
17.44
17.61
16.79
15.18
13.14
11.10
9.48
8.48
8.01
7.79
7.47
6.89
6.09
5.24
4.51
3.89
3.23
2.32
0.99
-0.77
-2.75
-4.74
-6.56
-8.25
-10.01
-12.12
-14.67
-17.46
-19.92
-21.24
-20.64
-17.77
-12.85
-6.71
-0.47
4.77
8.32
10.02
10.11
9.07
7.31
5.07
2.52
-0.16
-2.60
-4.35
-5.03
-4.56
-3.26
-1.81
-0.88
-0.95
-2.08
-3.95
-6.11
-8.22
-10.16
-12.02
-13.96
-16.03
-18.16
-20.23
-22.16
-23.98
-25.67
-27.07
-27.72
-26.99
-24.29
-19.40
-12.66
-4.91
2.71
9.23
14.00
16.89
18.12
18.06
17.08
15.48
13.59
11.77
10.46
10.04
10.70
12.25
14.21
15.85
16.46
15.66
13.44
10.25
6.73
3.39
0.49
-2.06
-4.57
-7.32
-10.39
-13.64
-16.71
-19.21
-20.76
-20.97
-19.53
-16.28
-11.30
-5.03
1.70
7.84
12.44
14.96
15.35
14.10
11.93
9.53
7.43
5.77
4.55
3.71
3.31
3.45
4.24
5.60
7.28
8.78
9.62
9.47
8.29
6.30
3.84
1.14
-1.68
-4.76
-8.27
-12.28
-16.51
-20.41
-23.19
-24.11
-22.69
-18.91
-13.24
-6.50
0.37
6.46
11.17
14.15
15.45
15.26
13.96
11.96
9.68
7.52
5.81
4.80
4.62
5.22
6.37
7.68
8.71
9.07
8.53
7.08
5.00
2.66
0.39
-1.70
-3.77
-6.13
-9.05
-12.49
-15.98
-18.72
-19.84
-18.72
-15.26
-9.83
-3.22
3.67
10.04
15.23
18.82
20.56
20.42
18.57
15.42
11.59
7.85
4.92
3.26
2.94
3.56
4.38
4.62
3.76
1.77
-0.88
-3.51
-5.53
-6.75
-7.39
-7.92
-8.70
-9.83
-11.08
-12.07
-12.46
-12.09
-10.91
-8.95
-6.19
-2.55
2.00
7.26
12.74
17.68
21.33
23.13
23.04
21.51
19.34
17.28
15.81
14.97
14.49
14.03
13.44
12.79
12.26
11.90
11.50
10.64
8.94
6.20
2.61
-1.31
-5.01
-8.11
-10.57
-12.69
-14.82
-17.18
-19.61
-21.58
-22.34
-21.28
-18.19
-13.39
-7.62
-1.77
3.43
7.58
10.61
12.55
13.41
13.06
11.38
8.46
4.76
1.05
-1.83
-3.30
-3.35
-2.52
-1.60
-1.29
-1.89
-3.18
-4.66
-5.86
-6.65
-7.29
-8.24
-9.89
-12.32
-15.24
-18.09
-20.30
-21.39
-21.07
-19.19
-15.70
-10.70
-4.49
2.33
8.91
14.30
17.74
18.86
17.83
15.28
12.11
9.21
7.19
6.28
6.38
7.14
8.17
9.12
9.80
10.07
9.90
9.30
8.30
6.96
5.31
3.35
1.04
-1.67
-4.80
-8.23
-11.63
-14.43
-15.91
-15.39
-12.45
-7.20
-0.32
7.05
13.65
18.43
20.83
20.85
18.98
15.92
12.37
8.95
6.08
4.02
2.83
2.45
2.68
3.26
3.95
4.54
4.88
4.88
4.49
3.70
2.55
1.01
-1.00
-3.64
-7.00
-10.92
-14.85
-17.86
-18.87
-16.99
-11.95
-4.20
5.14
14.70
23.17
29.70
33.89
35.81
35.75
34.17
31.54
28.41
25.34
22.87
21.38
20.92
21.15
21.44
21.08
19.65
17.12
13.98
10.83
8.19
6.07
4.04
1.41
-2.32
-7.20
-12.71
-18.10
-22.45
-25.00
-25.16
-22.54
-17.01
-8.95
0.72
10.46
18.58
23.80
25.64
24.60
21.82
18.51
15.45
12.72
10.11
7.40
4.78
2.72
1.71
1.80
2.53
2.92
2.13
-0.12
-3.35
-6.46
-8.37
-8.64
-7.75
-7.19
-8.60
-12.95
-19.89
-27.63
-33.66
-35.81
-33.13
-26.45
-17.77
-9.32
-2.60
2.10
5.41
8.08
10.41
11.90
11.70
9.24
4.78
-0.55
-5.22
-7.99
-8.35
-6.84
-4.59
-2.82
-2.38
-3.45
-5.61
-8.19
-10.45
-12.09
-13.13
-13.97
-15.10
-16.91
-19.48
-22.58
-25.62
-27.91
-28.73
-27.59
-24.30
-19.02
-12.27
-4.76
2.68
9.27
14.38
17.57
18.72
17.90
15.50
12.08
8.34
4.96
2.50
1.26
1.21
2.02
3.15
4.01
4.13
3.26
1.43
-1.12
-4.08
-7.08
-9.84
-12.14
-13.85
-15.03
-15.92
-16.97
-18.64
-21.23
-24.55
-27.90
-30.17
-30.22
-27.34
-21.61
-13.92
-5.62
1.90
7.70
11.45
13.36
13.81
13.17
11.65
9.37
6.61
3.90
1.90
1.18
1.94
3.84
6.16
8.03
8.80
8.26
6.64
4.44
2.14
0.03
-1.91
-3.89
-6.16
-8.89
-12.11
-15.67
-19.35
-22.74
-25.30
-26.37
-25.29
-21.69
-15.71
-8.05
0.19
7.81
13.88
17.93
19.88
19.96
18.50
15.88
12.58
9.18
6.36
4.72
4.60
5.93
8.21
10.67
12.49
13.05
12.08
9.76
6.53
2.99
-0.31
-3.09
-5.35
-7.39
-9.64
-12.52
-16.17
-20.30
-24.16
-26.72
-26.95
-24.25
-18.69
-11.06
-2.59
5.47
12.18
17.07
20.12
21.45
21.27
19.77
17.23
14.15
11.22
9.07
8.08
8.24
9.09
10.04
10.53
10.26
9.22
7.52
5.32
2.70
-0.26
-3.42
-6.58
-9.51
-12.15
-14.72
-17.60
-21.15
-25.31
-29.44
-32.36
-32.73
-29.61
-22.98
-13.75
-3.54
5.93
13.41
18.38
21.01
21.84
21.40
20.04
18.03
15.65
13.30
11.46
10.53
10.69
11.73
13.23
14.61
15.39
15.30
14.26
12.45
10.17
7.69
5.24
2.89
0.60
-1.72
-4.14
-6.73
-9.51
-12.58
-15.99
-19.66
-23.22
-25.94
-26.88
-25.18
-20.41
-12.86
-3.52
6.18
14.81
21.31
25.28
26.91
26.85
25.80
24.37
22.94
21.68
20.73
20.19
20.22
20.90
22.12
23.61
24.84
25.29
24.58
22.65
19.74
16.36
13.04
10.14
7.78
5.84
4.07
2.27
0.31
-1.84
-4.23
-6.90
-9.85
-12.89
-15.48
-16.81
-16.01
-12.44
-6.09
2.32
11.49
19.86
26.13
29.56
30.16
28.54
25.58
22.15
18.84
15.91
13.47
11.50
10.05
9.18
8.91
9.14
9.61
9.96
9.86
9.06
7.50
5.33
2.83
0.32
-2.00
-4.05
-5.90
-7.65
-9.35
-10.96
-12.48
-14.02
-15.87
-18.40
-21.74
-25.57
-29.01
-30.78
-29.76
-25.40
-18.05
-8.91
0.44
8.51
14.40
17.86
19.16
18.74
17.03
14.34
11.08
7.81
5.25
4.13
4.83
7.24
10.63
13.96
16.25
16.84
15.60
12.89
9.27
5.25
1.17
-2.85
-6.78
-10.52
-13.84
-16.39
-17.97
-18.67
-19.00
-19.80
-21.83
-25.35
-29.90
-34.29
-37.03
-36.94
-33.55
-27.33
-19.41
-11.21
-3.91
1.78
5.65
7.77
8.32
7.46
5.37
2.38
-0.95
-3.91
-5.84
-6.38
-5.65
-4.16
-2.61
-1.59
-1.41
-2.03
-3.24
-4.89
-6.96
-9.56
-12.79
-16.53
-20.41
-23.88
-26.43
-27.91
-28.54
-28.81
-29.25
-30.08
-31.10
-31.75
-31.38
-29.48
-25.87
-20.76
-14.63
-8.10
-1.79
3.73
8.01
10.79
12.04
11.96
10.88
9.27
7.58
6.17
5.32
5.11
5.41
5.92
6.32
6.33
5.87
5.11
4.34
3.87
3.88
4.35
5.03
5.59
5.68
5.00
3.36
0.66
-2.99
-7.28
-11.64
-15.28
-17.33
-17.08
-14.21
-8.94
-1.99
5.61
12.79
18.71
22.85
24.98
25.12
23.46
20.34
16.26
11.87
7.92
5.08
3.84
4.25
5.92
8.09
9.88
10.59
9.96
8.28
6.10
4.03
2.39
1.09
-0.27
-2.06
-4.55
-7.68
-11.36
-15.42
-19.52
-23.10
-25.31
-25.18
-22.09
-16.14
-8.41
-0.52
5.89
9.90
11.52
11.52
10.85
10.15
9.44
8.37
6.64
4.38
2.20
0.89
0.92
2.18
3.79
4.75
4.44
3.03
1.37
0.52
0.94
2.27
3.20
2.35
-1.11
-6.86
-13.63
-19.71
-23.72
-25.04
-23.93
-21.08
-17.16
-12.54
-7.35
-1.74
3.81
8.56
11.59
12.34
10.81
7.70
4.03
0.82
-1.31
-2.22
-2.29
-2.15
-2.45
-3.65
-5.79
-8.31
-10.12
-9.84
-6.44
0.26
9.26
18.56
25.83
29.28
28.24
23.28
15.86
7.63
-0.09
-6.49
-11.22
-14.13
-15.17
-14.39
-12.09
-8.84
-5.45
-2.75
-1.38
-1.60
-3.36
-6.33
-10.11
-14.26
-18.24
-21.28
-22.35
-20.43
-14.89
-5.96
5.21
16.76
26.82
34.07
38.12
39.32
38.36
35.77
31.73
26.29
19.59
12.02
4.15
-3.46
-10.39
-16.31
-20.81
-23.32
-23.21
-20.11
-14.14
-6.00
3.23
12.30
20.11
25.86
29.07
29.67
27.99
24.75
20.89
17.36
14.79
13.36
12.85
12.80
12.81
12.64
12.21
11.55
10.66
9.41
7.70
5.50
2.97
0.38
-1.96
-3.86
-5.35
-6.68
-8.24
-10.38
-13.28
-16.85
-20.66
-23.97
-25.94
-25.79
-23.12
-18.00
-11.00
-3.06
4.85
11.89
17.47
21.25
23.05
22.87
20.89
17.56
13.50
9.49
6.23
4.20
3.64
4.49
6.45
9.06
11.79
14.07
15.41
15.50
14.26
11.88
8.79
5.57
2.84
1.09
0.49
0.83
1.52
1.84
1.16
-0.78
-3.84
-7.47
-10.96
-13.64
-15.00
-14.67
-12.53
-8.59
-3.23
2.91
8.87
13.67
16.53
17.19
15.86
13.12
9.61
5.81
1.91
-2.00
-5.72
-8.91
-11.10
-11.96
-11.47
-10.01
-8.26
-6.89
-6.36
-6.84
-8.17
-10.06
-12.19
-14.25
-16.04
-17.45
-18.45
-19.16
-19.78
-20.59
-21.82
-23.66
-26.14
-29.12
-32.13
-34.49
-35.40
-34.12
-30.32
-24.20
-16.56
-8.59
-1.48
3.90
7.28
8.91
9.41
9.42
9.38
9.41
9.33
8.90
7.96
6.65
5.32
4.38
4.10
4.44
5.08
5.54
5.39
4.41
2.61
0.19
-2.51
-5.14
-7.39
-9.07
-10.13
-10.72
-11.16
-11.80
-12.87
-14.32
-15.85
-16.92
-16.97
-15.54
-12.45
-7.85
-2.25
3.59
8.85
12.83
15.17
15.80
15.00
13.21
10.97
8.85
7.36
6.90
7.63
9.42
11.82
14.22
16.02
16.80
16.37
14.77
12.24
9.06
5.56
2.05
-1.26
-4.30
-7.12
-9.82
-12.50
-15.29
-18.39
-22.12
-26.78
-32.45
-38.77
-45.04
-50.40
-54.15
-55.73
-54.54
-49.71
-40.18
-25.33
-5.70
16.53
37.87
54.63
64.40
66.84
63.73
57.93
52.08
47.71
45.02
43.25
41.37
38.50
34.12
28.08
20.57
12.20
3.83
-3.55
-9.12
-12.49
-13.82
-13.73
-13.17
-13.05
-14.08
-16.47
-19.81
-23.14
-25.15
-24.67
-21.09
-14.63
-6.45
1.70
7.97
10.88
9.78
5.05
-2.08
-9.80
-16.31
-20.31
-21.26
-19.49
-15.86
-11.43
-7.12
-3.53
-0.87
0.89
1.98
2.69
3.27
3.88
4.53
5.21
5.83
6.29
6.46
6.11
4.98
2.87
-0.18
-3.79
-7.19
-9.51
-10.04
-8.48
-5.09
-0.55
4.27
8.76
12.65
16.07
19.30
22.44
25.24
27.15
27.56
26.16
23.08
18.94
14.62
10.97
8.51
7.33
7.01
6.77
5.69
3.02
-1.52
-7.52
-13.92
-19.41
-22.86
-23.78
-22.41
-19.55
-16.19
-13.23
-11.30
-10.85
-12.15
-15.24
-19.65
-24.33
-27.67
-28.03
-24.37
-16.75
-6.51
4.25
13.42
19.62
22.50
22.70
21.34
19.47
17.76
16.41
15.31
14.22
12.95
11.37
9.44
7.25
5.00
3.03
1.80
1.72
2.95
5.34
8.44
11.56
14.06
15.48
15.66
14.76
13.10
11.08
9.03
7.13
5.41
3.87
2.48
1.39
0.76
0.82
1.76
3.64
6.38
9.79
13.61
17.52
21.17
24.21
26.41
27.74
28.41
28.76
29.09
29.53
29.82
29.53
28.24
25.77
22.42
18.92
16.19
14.99
15.43
16.96
18.51
18.86
17.16
13.29
7.70
1.32
-5.07
-10.79
-15.40
-18.47
-19.61
-18.67
-16.04
-12.79
-10.55
-10.73
-13.86
-19.17
-24.81
-28.60
-29.09
-26.06
-20.67
-14.59
-9.23
-5.02
-1.52
2.07
6.11
10.20
13.17
13.78
11.44
6.53
0.27
-5.85
-10.72
-13.83
-15.35
-15.61
-14.87
-13.21
-10.65
-7.45
-4.27
-2.05
-1.73
-3.87
-8.38
-14.49
-21.03
-26.74
-30.62
-32.23
-31.75
-29.86
-27.49
-25.47
-24.31
-23.98
-24.04
-23.71
-22.24
-19.17
-14.41
-8.34
-1.54
5.29
11.51
16.57
19.98
21.36
20.54
17.69
13.38
8.53
4.17
1.09
-0.35
-0.32
0.64
1.87
2.80
3.10
2.69
1.71
0.37
-1.12
-2.62
-4.06
-5.41
-6.67
-7.77
-8.59
-9.01
-8.98
-8.63
-8.32
-8.46
-9.43
-11.27
-13.59
-15.67
-16.59
-15.69
-12.71
-7.97
-2.21
3.70
9.02
13.26
16.22
17.86
18.21
17.34
15.43
12.84
10.13
7.88
6.51
6.15
6.60
7.43
8.25
8.79
8.97
8.81
8.32
7.42
6.04
4.15
1.88
-0.45
-2.49
-3.99
-4.93
-5.50
-5.99
-6.73
-7.91
-9.62
-11.77
-14.12
-16.25
-17.57
-17.46
-15.47
-11.54
-6.12
-0.04
5.74
10.45
13.69
15.45
15.97
15.60
14.68
13.56
12.60
12.10
12.20
12.84
13.78
14.74
15.57
16.30
17.06
17.88
18.59
18.84
18.26
16.71
14.41
11.89
9.69
8.16
7.38
7.17
7.30
7.60
7.92
8.13
7.96
7.14
5.60
3.59
1.79
1.10
2.15
5.13
9.46
14.16
18.18
20.82
21.92
21.78
20.88
19.59
18.00
16.10
13.92
11.75
10.08
9.34
9.60
10.48
11.22
11.07
9.70
7.27
4.37
1.68
-0.39
-1.83
-3.02
-4.41
-6.28
-8.59
-10.98
-13.02
-14.44
-15.25
-15.85
-16.78
-18.47
-21.00
-23.92
-26.40
-27.50
-26.43
-23.00
-17.58
-11.00
-4.30
1.67
6.38
9.66
11.61
12.40
12.21
11.25
9.76
8.12
6.72
5.90
5.86
6.51
7.65
8.92
10.01
10.61
10.52
9.70
8.26
6.48
4.64
2.90
1.23
-0.55
-2.60
-4.89
-7.17
-9.12
-10.56
-11.67
-12.93
-14.88
-17.84
-21.64
-25.62
-28.87
-30.54
-30.10
-27.58
-23.42
-18.35
-13.09
-8.20
-4.05
-0.90
0.95
1.21
-0.29
-3.41
-7.50
-11.57
-14.58
-15.86
-15.42
-13.88
-12.17
-11.13
-11.07
-11.82
-12.93
-13.98
-14.82
-15.58
-16.43
-17.47
-18.56
-19.38
-19.69
-19.40
-18.71
-17.97
-17.55
-17.71
-18.57
-20.12
-22.24
-24.76
-27.43
-29.89
-31.69
-32.37
-31.48
-28.74
-24.15
-18.10
-11.33
-4.85
0.44
3.84
5.22
4.89
3.47
1.64
-0.09
-1.36
-1.89
-1.49
-0.08
2.22
5.04
7.76
9.82
10.84
10.84
10.09
9.04
8.06
7.23
6.38
5.18
3.29
0.65
-2.42
-5.27
-7.21
-7.88
-7.51
-6.84
-6.85
-8.08
-10.38
-12.84
-14.22
-13.60
-10.68
-5.98
-0.47
4.83
9.19
12.24
13.96
14.46
13.89
12.43
10.28
7.74
5.22
3.18
2.09
2.25
3.74
6.32
9.51
12.63
15.02
16.17
15.86
14.17
11.42
8.08
4.58
1.26
-1.65
-4.07
-5.94
-7.31
-8.36
-9.45
-11.11
-13.77
-17.58
-22.18
-26.72
-30.06
-31.18
-29.46
-24.93
-18.25
-10.48
-2.80
3.78
8.62
11.45
12.39
11.77
10.03
7.69
5.27
3.35
2.45
2.89
4.67
7.43
10.52
13.21
14.98
15.58
15.09
13.74
11.77
9.42
6.86
4.33
2.12
0.51
-0.33
-0.49
-0.31
-0.32
-1.08
-2.90
-5.75
-9.08
-12.05
-13.65
-13.17
-10.33
-5.49
0.54
6.76
12.28
16.48
19.05
19.93
19.21
17.13
14.12
10.80
7.86
5.94
5.36
6.02
7.47
9.13
10.44
11.04
10.63
9.12
6.58
3.36
0.10
-2.43
-3.64
-3.46
-2.44
-1.55
-1.66
-3.08
-5.50
-8.11
-10.15
-11.21
-11.38
-10.96
-10.15
-8.78
-6.41
-2.62
2.64
9.00
15.49
21.06
24.84
26.49
26.23
24.71
22.59
20.34
17.92
15.13
11.94
8.67
6.04
4.79
5.24
7.05
9.12
10.23
9.59
7.20
3.81
0.52
-1.84
-3.09
-3.78
-4.75
-6.60
-9.27
-12.12
-14.37
-15.65
-16.26
-17.12
-19.10
-22.37
-26.07
-28.64
-28.47
-24.79
-18.02
-9.66
-1.63
4.52
8.06
9.17
8.53
6.93
5.03
3.16
1.45
-0.00
-1.08
-1.68
-1.72
-1.32
-0.64
0.05
0.51
0.53
-0.03
-1.23
-3.06
-5.41
-8.02
-10.53
-12.59
-13.97
-14.71
-15.11
-15.63
-16.68
-18.47
-20.89
-23.59
-26.04
-27.67
-27.94
-26.41
-22.84
-17.33
-10.32
-2.64
4.73
10.80
14.89
16.76
16.61
15.04
12.86
10.82
9.49
9.07
9.44
10.18
10.81
10.92
10.35
9.22
7.78
6.32
4.99
3.80
2.70
1.65
0.67
-0.16
-0.82
-1.36
-1.96
-2.81
-4.07
-5.78
-7.86
-10.08
-12.14
-13.70
-14.38
-13.85
-11.87
-8.41
-3.65
1.92
7.65
12.79
16.73
19.12
19.92
19.48
18.24
16.66
15.03
13.51
12.17
11.10
10.50
10.52
11.17
12.20
13.18
13.57
13.03
11.52
9.31
6.85
4.54
2.63
1.10
-0.20
-1.49
-2.97
-4.78
-6.98
-9.48
-12.07
-14.27
-15.51
-15.22
-13.10
-9.22
-4.02
1.79
7.47
12.34
15.89
17.80
17.94
16.43
13.70
10.39
7.20
4.73
3.32
3.03
3.70
5.04
6.76
8.45
9.70
10.08
9.32
7.42
4.72
1.76
-0.96
-3.26
-5.29
-7.46
-10.15
-13.48
-17.24
-20.92
-23.86
-25.59
-25.73
-24.09
-20.63
-15.47
-8.94
-1.67
5.54
11.77
16.28
18.70
19.08
17.89
15.78
13.30
10.87
8.59
6.48
4.61
3.18
2.44
2.48
3.11
3.79
3.80
2.59
-0.01
-3.66
-7.66
-11.26
-13.97
-15.64
-16.54
-17.19
-18.12
-19.68
-21.93
-24.60
-27.16
-28.86
-29.01
-27.08
-22.89
-16.70
-9.22
-1.41
5.70
11.35
15.18
17.29
17.98
17.64
16.57
15.02
13.31
11.91
11.33
11.93
13.73
16.26
18.78
20.49
20.88
19.90
17.91
15.43
12.97
10.78
8.86
7.06
5.28
3.52
1.85
0.28
-1.32
-3.20
-5.47
-7.89
-9.80
-10.21
-8.36
-4.03
2.22
9.19
15.53
20.22
22.88
23.78
23.57
22.90
22.12
21.24
20.11
18.65
17.02
15.60
14.84
15.00
15.97
17.30
18.41
18.82
18.37
17.23
15.79
14.42
13.31
12.39
11.49
10.39
9.00
7.35
5.54
3.60
1.54
-0.59
-2.55
-3.83
-3.79
-1.82
2.26
8.06
14.65
20.84
25.63
28.49
29.48
29.04
27.69
25.80
23.47
20.70
17.68
14.84
12.85
12.34
13.46
15.72
18.09
19.33
18.67
16.00
11.98
7.68
4.05
1.58
0.18
-0.69
-1.63
-3.13
-5.43
-8.45
-11.88
-15.20
-17.68
-18.62
-17.43
-13.96
-8.53
-1.94
4.75
10.52
14.60
16.56
16.35
14.24
10.72
6.43
2.06
-1.79
-4.71
-6.55
-7.39
-7.40
-6.82
-5.89
-4.87
-4.10
-3.91
-4.53
-5.98
-7.90
-9.77
-11.03
-11.44
-11.22
-11.01
-11.60
-13.61
-17.21
-21.87
-26.56
-30.01
-31.13
-29.39
-24.99
-18.75
-11.83
-5.40
-0.32
2.98
4.46
4.45
3.42
1.92
0.46
-0.60
-1.07
-0.97
-0.57
-0.33
-0.81
-2.54
-5.73
-10.15
-15.11
-19.71
-23.24
-25.47
-26.73
-27.62
-28.64
-29.87
-30.92
-31.22
-30.43
-28.64
-26.50
-24.93
-24.73
-26.25
-29.21
-32.77
-35.69
-36.53
-33.95
-27.10
-16.08
-2.06
12.79
25.89
35.05
39.18
38.55
34.54
28.96
23.33
18.52
14.79
12.09
10.34
9.50
9.51
10.13
10.94
11.47
11.47
10.84
9.72
8.37
6.96
5.59
4.24
2.80
1.05
-1.25
-4.40
-8.58
-13.72
-19.39
-24.72
-28.70
-30.41
-29.34
-25.67
-20.11
-13.74
-7.62
-2.55
0.94
2.71
2.83
1.63
-0.32
-2.25
-3.36
-3.12
-1.54
0.87
3.43
5.62
7.39
9.06
10.98
13.15
14.96
15.52
14.12
10.71
5.97
1.06
-2.94
-5.46
-6.83
-7.80
-9.20
-11.54
-14.77
-18.52
-22.25
-25.49
-28.08
-29.88
-30.68
-29.99
-27.23
-21.92
-14.14
-4.71
4.81
12.65
17.46
18.87
17.61
15.15
13.03
12.29
12.99
14.52
16.06
17.10
17.66
18.13
18.94
20.26
21.81
23.09
23.63
23.20
21.87
19.83
17.27
14.34
11.05
7.47
3.81
0.34
-2.68
-5.09
-7.02
-8.69
-10.47
-12.64
-15.24
-17.99
-20.30
-21.29
-20.17
-16.43
-10.23
-2.41
5.64
12.46
17.00
18.95
18.71
17.20
15.31
13.64
12.41
11.54
10.92
10.51
10.37
10.53
10.94
11.38
11.57
11.28
10.40
8.95
7.10
5.03
2.91
0.86
-1.17
-3.27
-5.59
-8.14
-10.82
-13.33
-15.38
-16.80
-17.72
-18.63
-20.12
-22.69
-26.51
-31.25
-36.10
-40.00
-41.93
-41.17
-37.58
-31.60
-24.15
-16.34
-9.20
-3.40
0.74
3.19
4.12
3.73
2.28
0.14
-2.12
-3.87
-4.55
-3.90
-2.09
0.37
2.81
4.76
6.00
6.62
6.84
6.82
6.54
5.86
4.70
3.10
1.30
-0.35
-1.55
-2.17
-2.23
-1.82
-1.12
-0.29
0.40
0.53
-0.44
-3.02
-7.43
-13.36
-19.90
-25.74
-29.50
-30.19
-27.48
-21.81
-14.19
-5.89
1.85
8.16
12.52
14.81
15.21
14.08
11.98
9.47
7.16
5.59
5.06
5.60
6.98
8.72
10.34
11.44
11.86
11.69
11.17
10.52
9.81
8.91
7.56
5.57
2.99
0.14
-2.48
-4.43
-5.51
-5.94
-6.17
-6.73
-8.04
-10.18
-13.01
-16.12
-19.01
-21.07
-21.66
-20.29
-16.72
-11.19
-4.45
2.49
8.73
13.71
17.33
19.77
21.24
21.76
21.14
19.28
16.36
12.97
9.99
8.15
7.74
8.45
9.50
10.10
9.88
8.97
7.90
7.18
7.01
7.20
7.25
6.69
5.30
3.18
0.69
-1.76
-3.84
-5.40
-6.55
-7.63
-9.04
-11.13
-13.95
-17.14
-19.96
-21.41
-20.71
-17.49
-12.04
-5.24
1.71
7.67
11.87
14.10
14.61
13.92
12.53
10.77
8.83
6.88
5.20
4.22
4.34
5.63
7.73
9.86
11.16
11.04
9.47
7.03
4.53
2.67
1.68
1.32
1.10
0.55
-0.50
-1.91
-3.40
-4.81
-6.22
-8.00
-10.54
-14.04
-18.37
-22.92
-26.87
-29.36
-29.85
-28.21
-24.77
-20.09
-14.82
-9.44
-4.28
0.42
4.39
7.28
8.76
8.71
7.34
5.23
3.17
1.90
1.78
2.73
4.35
6.13
7.72
9.03
10.13
11.14
12.07
12.71
12.85
12.27
10.91
8.90
6.45
3.78
1.00
-1.82
-4.64
-7.32
-9.60
-11.16
-11.80
-11.58
-10.83
-10.05
-9.58
-9.42
-9.16
-8.13
-5.79
-2.05
2.66
7.53
11.82
15.04
17.13
18.34
18.93
19.11
18.92
18.31
17.38
16.34
15.53
15.25
15.61
16.41
17.26
17.67
17.30
16.10
14.25
12.15
10.21
8.67
7.51
6.56
5.57
4.33
2.71
0.69
-1.74
-4.57
-7.75
-11.17
-14.67
-18.04
-21.05
-23.40
-24.77
-24.78
-23.07
-19.46
-14.09
-7.39
-0.03
7.32
14.09
19.84
24.24
26.97
27.85
26.88
24.45
21.34
18.48
16.64
16.21
17.05
18.60
20.23
21.43
22.01
22.06
21.76
21.26
20.50
19.29
17.34
14.47
10.76
6.55
2.39
-1.18
-3.80
-5.47
-6.48
-7.31
-8.40
-9.99
-12.09
-14.50
-16.93
-19.04
-20.44
-20.75
-19.54
-16.50
-11.57
-5.05
2.32
9.56
15.65
19.83
21.78
21.60
19.69
16.61
12.86
8.95
5.27
2.21
0.09
-0.96
-1.01
-0.29
0.90
2.33
3.91
5.64
7.48
9.24
10.52
10.89
10.00
7.86
4.84
1.57
-1.32
-3.53
-5.11
-6.54
-8.33
-10.82
-13.95
-17.33
-20.47
-22.99
-24.72
-25.60
-25.52
-24.18
-21.15
-16.16
-9.38
-1.59
5.88
11.57
14.42
14.09
11.06
6.39
1.15
-3.77
-7.72
-10.06
-10.05
-6.95
-0.59
8.23
17.56
24.98
28.54
27.67
23.39
17.73
12.63
9.04
6.64
4.40
1.50
-2.12
-5.72
-8.31
-9.46
-9.62
-10.10
-12.20
-16.52
-22.40
-28.10
-31.51
-31.10
-26.65
-19.47
-11.64
-5.14
-0.94
1.17
2.24
3.19
4.35
5.04
4.23
1.34
-3.25
-8.13
-11.55
-12.25
-10.09
-6.18
-2.22
0.35
0.98
0.12
-1.21
-2.12
-2.25
-2.02
-2.17
-3.28
-5.46
-8.31
-11.18
-13.56
-15.24
-16.49
-17.76
-19.46
-21.77
-24.48
-27.03
-28.69
-28.72
-26.76
-22.87
-17.58
-11.74
-6.17
-1.46
2.10
4.52
5.92
6.42
6.13
5.21
3.90
2.57
1.58
1.23
1.62
2.68
4.15
5.72
7.09
8.04
8.41
8.13
7.21
5.73
3.84
1.69
-0.57
-2.82
-4.93
-6.80
-8.34
-9.57
-10.61
-11.66
-12.91
-14.40
-15.88
-16.80
-16.55
-14.65
-11.06
-6.15
-0.65
4.64
9.09
12.36
14.39
15.25
15.04
13.84
11.75
9.01
6.03
3.37
1.56
0.99
1.68
3.29
5.19
6.75
7.53
7.41
6.59
5.35
3.95
2.44
0.75
-1.18
-3.36
-5.68
-8.07
-10.53
-13.21
-16.14
-19.14
-21.72
-23.15
-22.79
-20.36
-16.09
-10.67
-4.94
0.35
4.74
8.04
10.26
11.50
11.89
11.52
10.53
9.08
7.38
5.69
4.35
3.67
3.84
4.84
6.36
7.88
8.82
8.80
7.74
5.88
3.58
1.16
-1.24
-3.59
-5.89
-8.11
-10.19
-12.19
-14.26
-16.61
-19.34
-22.24
-24.72
-25.90
-24.86
-21.03
-14.33
-5.32
4.86
14.84
23.29
29.22
32.21
32.34
30.15
26.40
21.87
17.38
13.66
11.28
10.63
11.58
13.59
15.79
17.29
17.50
16.41
14.40
12.12
9.99
8.13
6.37
4.43
2.18
-0.31
-2.84
-5.26
-7.64
-10.20
-13.06
-16.02
-18.45
-19.51
-18.49
-15.20
-10.14
-4.30
1.30
5.98
9.59
12.40
14.64
16.33
17.14
16.70
14.92
12.19
9.34
7.23
6.38
6.87
8.26
9.96
11.40
12.18
12.12
11.12
9.25
6.74
3.93
1.25
-0.97
-2.64
-3.93
-5.16
-6.69
-8.73
-11.34
-14.43
-17.73
-20.82
-23.07
-23.81
-22.48
-18.86
-13.20
-6.28
0.89
7.24
11.96
14.63
15.19
13.98
11.63
8.88
6.46
4.93
4.48
4.96
6.00
7.17
8.18
8.92
9.35
9.40
8.95
7.86
6.11
3.85
1.41
-0.84
-2.66
-4.04
-5.13
-6.21
-7.57
-9.35
-11.62
-14.22
-16.82
-18.92
-19.95
-19.41
-17.04
-12.93
-7.50
-1.46
4.43
9.46
13.12
15.15
15.53
14.50
12.47
10.00
7.65
5.87
4.98
5.00
5.81
7.22
8.96
10.77
12.32
13.19
13.04
11.68
9.24
6.14
3.00
0.35
-1.58
-2.91
-4.02
-5.34
-7.12
-9.36
-11.86
-14.33
-16.53
-18.29
-19.39
-19.64
-18.72
-16.35
-12.44
-7.22
-1.34
4.27
8.65
11.13
11.50
10.08
7.49
4.38
1.19
-1.87
-4.65
-6.88
-8.05
-7.59
-5.12
-0.77
4.74
10.24
14.57
16.85
16.79
14.64
11.03
6.70
2.32
-1.62
-4.78
-6.99
-8.20
-8.60
-8.51
-8.42
-8.83
-10.02
-11.98
-14.22
-15.91
-16.11
-14.13
-9.85
-3.84
2.71
8.45
12.26
13.64
12.85
10.66
8.01
5.63
3.80
2.49
1.56
0.98
0.89
1.40
2.39
3.40
3.75
2.87
0.54
-2.85
-6.55
-9.74
-11.89
-12.91
-13.10
-12.89
-12.59
-12.33
-12.11
-12.05
-12.42
-13.60
-15.85
-18.96
-22.26
-24.69
-25.22
-23.25
-18.95
-13.10
-6.95
-1.63
2.19
4.36
5.28
5.46
5.34
5.08
4.68
4.11
3.44
2.95
2.94
3.60
4.88
6.40
7.64
8.11
7.56
6.07
3.96
1.66
-0.52
-2.42
-4.09
-5.70
-7.35
-9.05
-10.75
-12.39
-14.01
-15.67
-17.39
-18.98
-20.05
-20.07
-18.61
-15.56
-11.22
-6.25
-1.39
2.81
6.14
8.67
10.47
11.36
11.05
9.30
6.29
2.76
-0.19
-1.56
-0.98
1.13
3.69
5.59
6.14
5.34
3.80
2.39
1.65
1.65
1.93
1.70
0.29
-2.59
-6.75
-11.61
-16.58
-21.09
-24.67
-26.81
-26.88
-24.26
-18.70
-10.73
-1.75
6.41
12.20
15.05
15.54
15.05
14.81
15.35
16.18
16.39
15.38
13.40
11.56
11.19
13.02
16.79
21.13
24.44
25.66
24.69
22.37
19.80
17.64
15.85
13.68
10.38
5.68
-0.08
-6.09
-11.53
-15.90
-19.03
-21.03
-21.93
-21.66
-20.11
-17.30
-13.52
-9.22
-4.86
-0.85
2.53
5.06
6.50
6.67
5.58
3.49
0.99
-1.28
-2.81
-3.39
-3.17
-2.45
-1.55
-0.65
0.26
1.16
1.98
2.50
2.42
1.51
-0.24
-2.56
-4.97
-7.00
-8.32
-8.91
-9.05
-9.14
-9.44
-9.97
-10.37
-10.12
-8.79
-6.22
-2.70
1.18
4.75
7.55
9.50
10.87
12.07
13.30
14.47
15.17
14.99
13.78
11.78
9.48
7.39
5.76
4.52
3.44
2.33
1.18
0.14
-0.62
-1.06
-1.29
-1.53
-1.96
-2.65
-3.62
-4.87
-6.47
-8.53
-11.10
-14.06
-17.00
-19.31
-20.30
-19.37
-16.29
-11.33
-5.15
1.29
7.16
11.85
15.17
17.29
18.52
19.19
19.49
19.44
19.06
18.42
17.75
17.37
17.56
18.36
19.52
20.58
21.04
20.65
19.52
17.99
16.43
15.01
13.66
12.15
10.37
8.36
6.39
4.70
3.28
1.85
-0.06
-2.86
-6.58
-10.68
-14.18
-15.86
-14.73
-10.43
-3.41
5.17
13.79
21.09
26.23
29.13
30.21
30.07
29.21
27.87
26.19
24.33
22.71
21.77
21.71
22.38
23.15
23.27
22.23
20.02
17.12
14.24
11.85
10.00
8.31
6.27
3.59
0.40
-2.87
-5.72
-7.90
-9.54
-10.99
-12.66
-14.76
-17.25
-19.96
-22.66
-25.27
-27.62
-29.43
-30.16
-29.15
-25.88
-20.35
-13.14
-5.39
1.64
6.98
10.24
11.62
11.73
11.13
10.24
9.09
7.62
5.84
4.05
2.74
2.40
3.23
4.99
7.00
8.47
8.83
7.94
6.08
3.68
1.15
-1.33
-3.78
-6.26
-8.75
-11.08
-13.02
-14.46
-15.39
-15.99
-16.55
-17.39
-18.77
-20.91
-23.88
-27.59
-31.70
-35.59
-38.49
-39.58
-38.28
-34.42
-28.36
-20.90
-13.07
-5.86
0.00
4.12
6.43
7.07
6.35
4.67
2.53
0.57
-0.63
-0.67
0.45
2.32
4.22
5.39
5.43
4.40
2.84
1.44
0.73
0.84
1.44
1.93
1.76
0.69
-1.19
-3.48
-5.71
-7.50
-8.67
-9.22
-9.29
-9.08
-8.91
-9.17
-10.27
-12.46
-15.66
-19.34
-22.61
-24.41
-23.96
-21.01
-15.88
-9.43
-2.65
3.54
8.52
12.00
13.94
14.51
14.00
12.78
11.27
9.89
8.97
8.76
9.35
10.63
12.37
14.19
15.81
17.03
17.89
18.55
19.16
19.64
19.70
18.92
17.03
14.16
10.77
7.55
5.13
3.78
3.37
3.40
3.30
2.50
0.64
-2.35
-6.24
-10.49
-14.32
-16.92
-17.60
-16.03
-12.33
-7.00
-0.77
5.52
11.16
15.54
18.29
19.17
18.12
15.36
11.33
6.75
2.43
-0.86
-2.64
-2.75
-1.44
0.85
3.61
6.40
8.86
10.70
11.66
11.50
10.10
7.60
4.36
0.95
-2.06
-4.26
-5.51
-5.97
-5.95
-5.88
-6.12
-6.99
-8.64
-11.10
-14.16
-17.38
-20.09
-21.51
-20.94
-18.01
-12.87
-6.22
0.90
7.39
12.43
15.72
17.40
17.87
17.58
16.73
15.41
13.70
11.85
10.33
9.68
10.22
11.84
14.01
16.03
17.29
17.55
16.97
15.91
14.66
13.32
11.74
9.71
7.17
4.33
1.58
-0.68
-2.23
-3.18
-3.93
-5.04
-6.92
-9.69
-13.04
-16.31
-18.70
-19.52
-18.36
-15.18
-10.27
-4.14
2.55
9.14
14.98
19.49
22.24
23.02
21.93
19.37
16.02
12.67
10.02
8.53
8.31
9.13
10.56
12.13
13.46
14.25
14.30
13.43
11.55
8.69
5.12
1.36
-2.00
-4.48
-5.92
-6.49
-6.63
-6.78
-7.23
-8.07
-9.36
-11.21
-13.84
-17.40
-21.74
-26.25
-29.91
-31.63
-30.75
-27.26
-21.79
-15.30
-8.58
-2.04
4.19
10.02
14.92
18.10
18.77
16.69
12.51
7.60
3.54
1.46
1.43
2.70
4.16
5.05
5.29
5.39
5.90
6.95
7.87
7.68
5.62
1.80
-2.81
-6.71
-8.72
-8.53
-6.99
-5.49
-5.28
-6.76
-9.35
-11.93
-13.58
-14.10
-14.25
-15.09
-17.28
-20.45
-23.23
-23.86
-21.09
-14.83
-6.32
2.44
9.56
14.04
15.93
16.11
15.60
15.16
14.86
14.40
13.50
12.15
10.76
9.97
10.21
11.56
13.50
15.24
15.99
15.33
13.34
10.52
7.45
4.61
2.14
-0.07
-2.27
-4.57
-6.95
-9.21
-11.11
-12.51
-13.47
-14.25
-15.27
-16.91
-19.38
-22.64
-26.30
-29.72
-32.11
-32.80
-31.42
-28.03
-23.07
-17.25
-11.26
-5.71
-0.98
2.70
5.16
6.28
6.07
4.70
2.59
0.35
-1.38
-2.11
-1.70
-0.32
1.64
3.76
5.70
7.29
8.48
9.24
9.42
8.87
7.44
5.15
2.30
-0.62
-3.02
-4.45
-4.76
-4.21
-3.35
-2.85
-3.31
-5.05
-8.01
-11.81
-15.80
-19.24
-21.42
-21.85
-20.35
-17.03
-12.32
-6.87
-1.40
3.35
6.83
8.67
8.82
7.57
5.42
2.98
0.81
-0.74
-1.61
-1.90
-1.78
-1.39
-0.76
0.07
1.10
2.22
3.27
4.05
4.38
4.13
3.30
1.99
0.42
-1.15
-2.45
-3.34
-3.80
-3.92
-3.96
-4.22
-5.05
-6.75
-9.44
-12.87
-16.42
-19.13
-20.10
-18.79
-15.29
-10.24
-4.63
0.65
5.03
8.32
10.58
11.88
12.24
11.62
10.06
7.84
5.47
3.58
2.65
2.84
3.93
5.39
6.67
7.39
7.51
7.25
6.81
6.22
5.30
3.78
1.61
-0.90
-3.14
-4.49
-4.73
-4.09
-3.28
-3.08
-4.01
-6.15
-9.18
-12.52
-15.59
-17.90
-18.99
-18.50
-16.13
-11.86
-6.03
0.67
7.20
12.59
16.13
17.59
17.23
15.67
13.62
11.70
10.21
9.23
8.65
8.33
8.24
8.44
8.97
9.85
10.85
11.62
11.73
10.90
9.09
6.54
3.65
0.92
-1.34
-2.97
-4.02
-4.63
-4.98
-5.28
-5.75
-6.63
-8.20
-10.61
-13.75
-17.14
-20.05
-21.59
-21.12
-18.39
-13.70
-7.79
-1.60
3.97
8.31
11.15
12.49
12.61
11.85
10.56
9.09
7.70
6.58
5.86
5.59
5.79
6.44
7.45
8.71
10.01
11.10
11.72
11.66
10.89
9.52
7.77
5.87
3.98
2.15
0.43
-1.14
-2.47
-3.52
-4.30
-5.04
-6.08
-7.82
-10.45
-13.81
-17.38
-20.32
-21.82
-21.32
-18.71
-14.35
-8.91
-3.11
2.50
7.54
11.77
14.98
16.94
17.53
16.76
14.96
12.71
10.64
9.25
8.76
9.06
9.84
10.74
11.48
11.95
12.10
11.92
11.31
10.15
8.37
5.97
3.21
0.46
-1.86
-3.46
-4.27
-4.52
-4.57
-4.83
-5.57
-6.91
-8.83
-11.28
-14.20
-17.45
-20.75
-23.56
-25.22
-25.04
-22.64
-18.13
-12.10
-5.49
0.73
5.76
9.16
10.89
11.16
10.35
8.89
7.10
5.33
3.84
2.94
2.88
3.83
5.72
8.21
10.71
12.63
13.54
13.33
12.23
10.65
8.97
7.37
5.80
4.11
2.24
0.29
-1.39
-2.50
-2.90
-2.81
-2.72
-3.22
-4.70
-7.25
-10.63
-14.40
-18.09
-21.24
-23.48
-24.47
-23.92
-21.68
-17.81
-12.64
-6.74
-0.80
4.48
8.58
11.18
12.19
11.78
10.29
8.15
5.86
3.88
2.60
2.25
2.88
4.38
6.39
8.45
10.09
10.95
10.84
9.81
8.12
6.09
4.03
2.12
0.42
-1.11
-2.47
-3.66
-4.60
-5.21
-5.49
-5.60
-5.85
-6.63
-8.28
-10.99
-14.64
-18.79
-22.72
-25.62
-26.85
-26.08
-23.36
-19.10
-13.87
-8.27
-2.75
2.38
6.89
10.60
13.33
14.97
15.52
15.20
14.35
13.34
12.44
11.78
11.35
11.12
11.10
11.30
11.70
12.20
12.58
12.62
12.19
11.33
10.21
9.01
7.81
6.53
5.02
3.16
1.00
-1.20
-3.05
-4.28
-4.86
-5.15
-5.84
-7.61
-10.80
-15.16
-19.88
-24.02
-26.70
-27.48
-26.30
-23.32
-18.80
-13.10
-6.74
-0.62
4.19
6.80
6.90
5.07
2.51
0.58
0.13
1.04
2.53
3.65
3.91
3.57
3.42
4.16
5.96
8.08
9.43
9.17
7.19
4.21
1.37
-0.51
-1.26
-1.67
-2.70
-4.90
-7.99
-10.96
-12.71
-12.80
-11.74
-11.01
-12.09
-15.67
-21.12
-26.68
-30.20
-30.16
-26.22
-19.34
-11.20
-3.39
3.14
8.16
11.93
14.70
16.53
17.19
16.52
14.70
12.27
10.05
8.79
8.83
10.09
12.08
14.18
15.90
16.96
17.29
16.92
15.94
14.39
12.29
9.71
6.80
3.75
0.82
-1.74
-3.75
-5.14
-6.00
-6.62
-7.42
-8.91
-11.49
-15.24
-19.79
-24.29
-27.62
-28.79
-27.22
-23.04
-16.98
-10.07
-3.30
2.70
7.67
11.52
14.19
15.48
15.27
13.63
11.06
8.40
6.50
5.96
6.84
8.71
10.88
12.75
14.00
14.66
14.90
14.84
14.42
13.47
11.78
9.33
6.35
3.22
0.43
-1.71
-3.06
-3.76
-4.14
-4.63
-5.67
-7.60
-10.55
-14.42
-18.80
-23.05
-26.36
-27.95
-27.24
-24.01
-18.49
-11.34
-3.50
4.03
10.39
14.98
17.59
18.32
17.51
15.72
13.55
11.58
10.29
9.94
10.59
12.05
13.99
16.00
17.72
18.84
19.18
18.66
17.30
15.22
12.62
9.77
6.93
4.31
2.02
0.09
-1.49
-2.74
-3.70
-4.45
-5.23
-6.40
-8.40
-11.52
-15.73
-20.50
-24.95
-28.06
-28.97
-27.32
-23.31
-17.58
-11.03
-4.50
1.33
5.97
9.13
10.65
10.55
9.08
6.75
4.27
2.36
1.52
1.91
3.32
5.29
7.25
8.83
9.90
10.47
10.66
10.55
10.05
9.02
7.38
5.13
2.52
-0.17
-2.68
-4.84
-6.65
-8.16
-9.43
-10.49
-11.39
-12.40
-13.92
-16.40
-20.04
-24.59
-29.19
-32.64
-33.80
-32.06
-27.61
-21.29
-14.27
-7.54
-1.69
3.13
7.01
9.94
11.82
12.53
12.15
11.06
9.87
9.20
9.51
10.86
12.99
15.46
17.78
19.56
20.60
20.85
20.48
19.67
18.60
17.34
15.84
14.04
12.00
9.95
8.26
7.19
6.75
6.63
6.30
5.24
3.12
-0.07
-4.05
-8.37
-12.52
-16.04
-18.49
-19.51
-18.85
-16.40
-12.35
-7.13
-1.42
3.98
8.31
11.06
12.04
11.42
9.70
7.46
5.31
3.69
2.81
2.69
3.15
3.94
4.85
5.76
6.64
7.44
8.02
8.16
7.58
6.15
3.99
1.46
-0.98
-3.01
-4.51
-5.58
-6.41
-7.16
-7.96
-8.94
-10.38
-12.59
-15.73
-19.63
-23.67
-26.91
-28.37
-27.40
-23.89
-18.33
-11.61
-4.65
1.76
7.14
11.26
14.05
15.51
15.68
14.72
13.04
11.21
9.85
9.44
10.09
11.57
13.37
14.92
15.88
16.10
15.71
14.93
13.96
12.79
11.30
9.28
6.67
3.58
0.39
-2.38
-4.24
-5.02
-4.96
-4.66
-4.83
-6.12
-8.83
-12.81
-17.54
-22.29
-26.23
-28.63
-28.96
-26.93
-22.66
-16.56
-9.36
-1.93
4.90
10.40
14.17
16.09
16.37
15.44
13.92
12.39
11.35
11.07
11.61
12.82
14.41
16.06
17.45
18.31
18.45
17.72
16.15
13.91
11.29
8.65
6.27
4.27
2.53
0.81
-1.16
-3.45
-5.90
-8.11
-9.76
-10.71
-11.24
-11.95
-13.48
-16.24
-20.09
-24.33
-27.96
-30.01
-29.85
-27.36
-22.86
-16.94
-10.26
-3.42
3.10
8.84
13.42
16.52
17.98
17.86
16.53
14.55
12.60
11.28
10.95
11.64
13.11
14.92
16.66
18.05
18.99
19.44
19.41
18.81
17.54
15.58
13.05
10.29
7.71
5.65
4.21
3.24
2.47
1.63
0.61
-0.57
-1.82
-3.18
-4.83
-7.06
-10.12
-13.97
-18.28
-22.44
-25.67
-27.30
-26.90
-24.40
-20.08
-14.47
-8.22
-1.97
3.78
8.66
12.49
15.13
16.53
16.76
16.03
14.70
13.26
12.12
11.58
11.73
12.44
13.50
14.69
15.81
16.66
17.01
16.65
15.41
13.33
10.62
7.71
5.04
2.93
1.45
0.43
-0.48
-1.54
-2.88
-4.32
-5.64
-6.69
-7.52
-8.46
-9.86
-11.93
-14.57
-17.52
-20.57
-23.62
-26.61
-29.23
-30.78
-30.28
-26.92
-20.59
-12.26
-3.64
3.55
8.23
10.50
11.30
11.71
12.30
12.76
12.37
10.63
7.88
5.22
4.03
5.11
8.24
12.07
14.92
15.60
14.02
11.19
8.56
7.17
7.20
7.77
7.70
6.17
3.28
-0.05
-2.58
-3.56
-3.00
-1.78
-1.05
-1.61
-3.56
-6.38
-9.34
-11.93
-14.10
-16.18
-18.47
-20.91
-22.98
-23.86
-22.86
-19.68
-14.56
-8.24
-1.60
4.58
9.69
13.41
15.58
16.21
15.50
13.81
11.58
9.35
7.51
6.28
5.76
5.90
6.62
7.82
9.30
10.77
11.87
12.27
11.77
10.38
8.31
5.98
3.75
1.95
0.68
-0.15
-0.80
-1.51
-2.45
-3.65
-4.99
-6.35
-7.66
-9.00
-10.56
-12.55
-15.04
-17.95
-21.01
-23.83
-26.01
-27.17
-27.04
-25.44
-22.30
-17.72
-12.01
-5.67
0.59
6.01
9.94
12.06
12.43
11.46
9.72
7.77
5.98
4.58
3.67
3.34
3.71
4.82
6.55
8.57
10.36
11.42
11.35
10.10
7.90
5.19
2.39
-0.14
-2.30
-4.11
-5.66
-6.97
-8.01
-8.65
-8.93
-9.04
-9.40
-10.48
-12.64
-15.96
-20.15
-24.70
-28.95
-32.30
-34.26
-34.50
-32.86
-29.36
-24.23
-17.90
-10.99
-4.25
1.56
5.79
8.06
8.33
6.94
4.46
1.64
-0.87
-2.60
-3.27
-2.76
-1.12
1.46
4.63
7.87
10.59
12.31
12.80
12.17
10.77
9.06
7.32
5.68
4.06
2.36
0.56
-1.18
-2.64
-3.57
-3.92
-3.84
-3.65
-3.79
-4.62
-6.35
-8.85
-11.77
-14.55
-16.57
-17.27
-16.34
-13.70
-9.50
-4.14
1.85
7.81
13.06
16.97
19.08
19.23
17.60
14.70
11.26
7.89
5.09
3.11
2.03
1.84
2.54
4.01
6.10
8.39
10.42
11.74
12.07
11.40
9.94
7.93
5.61
3.06
0.31
-2.54
-5.26
-7.50
-8.96
-9.57
-9.57
-9.51
-9.97
-11.29
-13.46
-16.01
-18.20
-19.30
-18.76
-16.45
-12.56
-7.50
-1.80
4.01
9.39
13.86
17.05
18.77
19.03
18.05
16.18
13.82
11.36
9.19
7.67
7.06
7.46
8.73
10.48
12.24
13.55
14.14
13.95
13.01
11.40
9.12
6.22
2.79
-0.84
-4.26
-6.96
-8.62
-9.31
-9.51
-10.06
-11.78
-15.11
-19.79
-24.88
-29.01
-30.90
-29.87
-26.02
-20.09
-13.16
-6.20
0.10
5.34
9.26
11.67
12.37
11.41
9.08
6.01
2.99
0.77
-0.17
0.27
1.84
4.02
6.24
8.00
9.02
9.24
8.67
7.34
5.22
2.30
-1.33
-5.35
-9.19
-12.25
-14.09
-14.71
-14.61
-14.55
-15.30
-17.23
-20.16
-23.47
-26.31
-27.85
-27.58
-25.26
-21.03
-15.20
-8.26
-0.82
6.41
12.62
17.11
19.42
19.49
17.69
14.79
11.70
9.28
8.07
8.21
9.49
11.43
13.50
15.27
16.44
16.91
16.68
15.75
14.19
12.04
9.43
6.62
3.97
1.82
0.32
-0.65
-1.46
-2.57
-4.37
-6.95
-10.16
-13.56
-16.63
-18.84
-19.67
-18.71
-15.69
-10.60
-3.81
3.92
11.58
18.13
22.81
25.28
25.67
24.46
22.29
19.81
17.52
15.79
14.86
14.80
15.61
17.11
19.03
20.98
22.59
23.51
23.55
22.63
20.81
18.31
15.38
12.35
9.48
6.96
4.83
2.98
1.24
-0.60
-2.74
-5.40
-8.73
-12.85
-17.62
-22.57
-26.83
-29.30
-29.03
-25.52
-19.01
-10.46
-1.24
7.31
14.23
19.10
21.96
23.13
22.90
21.60
19.50
17.01
14.68
13.05
12.54
13.21
14.75
16.56
17.99
18.57
18.15
16.86
14.99
12.74
10.21
7.30
3.95
0.24
-3.50
-6.74
-8.98
-9.96
-9.85
-9.27
-9.02
-9.88
-12.25
-16.03
-20.68
-25.40
-29.24
-31.39
-31.27
-28.60
-23.45
-16.34
-8.08
0.26
7.58
12.98
15.99
16.61
15.25
12.47
8.88
5.08
1.66
-0.78
-1.70
-0.86
1.49
4.53
7.15
8.41
7.94
6.06
3.60
1.35
-0.31
-1.52
-2.83
-4.74
-7.44
-10.67
-13.87
-16.50
-18.16
-18.97
-19.28
-19.69
-20.74
-22.79
-25.82
-29.47
-33.07
-36.00
-37.63
-37.47
-35.15
-30.46
-23.42
-14.48
-4.56
4.91
12.43
16.88
17.98
16.37
13.41
10.53
8.74
8.19
8.49
9.05
9.60
10.34
11.68
13.80
16.39
18.49
19.10
17.66
14.42
10.37
6.73
4.30
3.20
2.73
1.97
0.24
-2.53
-5.82
-8.88
-11.13
-12.45
-13.24
-14.16
-15.70
-17.99
-20.64
-22.94
-24.07
-23.41
-20.73
-16.15
-10.21
-3.60
2.89
8.53
12.83
15.61
16.97
17.23
16.78
15.94
14.93
13.84
12.77
11.81
11.07
10.64
10.50
10.54
10.57
10.43
10.07
9.50
8.77
7.81
6.44
4.41
1.60
-1.86
-5.57
-8.91
-11.28
-12.44
-12.65
-12.64
-13.36
-15.58
-19.47
-24.41
-29.15
-32.18
-32.28
-28.96
-22.59
-14.22
-5.19
3.26
10.33
15.57
18.91
20.48
20.54
19.45
17.67
15.68
13.93
12.78
12.34
12.56
13.23
14.11
15.01
15.84
16.59
17.21
17.57
17.42
16.43
14.36
11.23
7.34
3.26
-0.43
-3.26
-5.18
-6.49
-7.77
-9.63
-12.49
-16.31
-20.64
-24.66
-27.47
-28.33
-26.83
-23.00
-17.23
-10.14
-2.49
4.93
11.35
16.08
18.60
18.76
16.83
13.49
9.63
6.15
3.64
2.30
2.02
2.52
3.53
4.89
6.51
8.24
9.82
10.82
10.83
9.66
7.43
4.56
1.60
-0.95
-2.88
-4.27
-5.39
-6.58
-8.09
-10.16
-12.88
-16.29
-20.24
-24.24
-27.47
-28.91
-27.68
-23.42
-16.54
-8.09
0.56
8.17
14.03
17.95
20.15
20.92
20.49
19.02
16.75
14.11
11.74
10.24
10.00
10.92
12.53
14.15
15.26
15.66
15.45
14.82
13.87
12.42
10.16
6.91
2.83
-1.47
-5.23
-7.84
-9.15
-9.60
-10.05
-11.35
-14.00
-17.97
-22.63
-27.05
-30.21
-31.30
-29.84
-25.81
-19.62
-12.04
-4.01
3.53
9.92
14.77
17.98
19.66
20.01
19.31
17.92
16.25
14.82
13.99
13.94
14.57
15.54
16.47
17.03
17.10
16.73
16.03
15.02
13.59
11.56
8.81
5.40
1.68
-1.76
-4.35
-5.73
-6.02
-5.83
-6.03
-7.39
-10.26
-14.32
-18.68
-22.17
-23.73
-22.71
-19.03
-13.09
-5.65
2.43
10.29
17.17
22.49
25.89
27.30
26.90
25.19
22.77
20.29
18.24
16.89
16.23
16.02
15.93
15.71
15.21
14.51
13.73
13.00
12.31
11.52
10.42
8.92
7.08
5.14
3.44
2.21
1.49
1.07
0.53
-0.54
-2.48
-5.41
-9.27
-13.74
-18.28
-22.15
-24.52
-24.65
-22.07
-16.87
-9.71
-1.79
5.57
11.22
14.55
15.56
14.81
13.08
11.12
9.41
8.08
7.11
6.37
5.89
5.82
6.35
7.53
9.18
10.88
12.09
12.29
11.16
8.71
5.23
1.12
-3.17
-7.37
-11.30
-14.95
-18.29
-21.30
-24.01
-26.51
-28.96
-31.51
-34.06
-36.20
-37.21
-36.36
-33.22
-27.91
-21.15
-14.07
-7.71
-2.82
0.34
1.99
2.56
2.52
2.18
1.67
1.03
0.30
-0.38
-0.77
-0.64
0.07
1.17
2.24
2.85
2.74
1.94
0.74
-0.51
-1.62
-2.58
-3.60
-4.88
-6.47
-8.25
-10.02
-11.69
-13.34
-15.19
-17.45
-20.05
-22.47
-23.92
-23.50
-20.69
-15.53
-8.66
-1.12
5.97
11.71
15.57
17.36
17.18
15.27
12.01
7.99
3.92
0.55
-1.41
-1.50
0.35
3.76
7.96
11.92
14.67
15.57
14.47
11.79
8.29
4.81
1.93
-0.17
-1.76
-3.33
-5.37
-8.10
-11.43
-14.97
-18.15
-20.39
-21.26
-20.50
-18.14
-14.40
-9.71
-4.59
0.38
4.69
7.85
9.61
9.87
8.81
6.78
4.30
1.92
0.10
-0.81
-0.64
0.69
3.09
6.24
9.57
12.22
13.32
12.29
9.14
4.53
-0.39
-4.57
-7.46
-9.23
-10.65
-12.56
-15.36
-18.70
-21.66
-23.10
-22.27
-19.10
-14.12
-8.18
-1.99
4.03
9.61
14.53
18.36
20.52
20.64
18.77
15.47
11.64
8.04
5.08
2.82
1.08
-0.15
-0.73
-0.43
0.80
2.55
4.18
5.00
4.61
3.05
0.73
-1.92
-4.58
-7.43
-10.75
-14.77
-19.35
-23.85
-27.30
-28.71
-27.51
-23.93
-18.73
-13.00
-7.54
-2.58
2.19
7.19
12.48
17.39
20.75
21.50
19.32
14.94
9.89
5.86
3.99
4.30
5.99
7.86
9.04
9.28
8.94
8.54
8.45
8.58
8.48
7.69
5.97
3.43
0.43
-2.60
-5.35
-7.86
-10.34
-13.05
-16.03
-18.97
-21.16
-21.71
-19.88
-15.48
-9.01
-1.54
5.69
11.70
16.04
18.76
20.19
20.66
20.31
19.12
17.14
14.60
12.02
9.98
9.00
9.20
10.33
11.85
13.11
13.64
13.25
12.00
10.14
7.88
5.34
2.56
-0.40
-3.41
-6.23
-8.64
-10.51
-11.93
-13.18
-14.66
-16.66
-19.25
-22.06
-24.44
-25.51
-24.47
-20.92
-14.95
-7.20
1.27
9.31
15.89
20.42
22.77
23.20
22.20
20.33
18.06
15.81
13.94
12.84
12.87
14.15
16.48
19.26
21.69
23.04
22.96
21.62
19.52
17.22
15.08
13.09
11.02
8.66
6.03
3.43
1.27
-0.13
-0.77
-0.98
-1.31
-2.33
-4.42
-7.65
-11.74
-16.09
-19.88
-22.23
-22.43
-20.02
-15.00
-7.85
0.59
9.23
17.02
23.05
26.77
28.01
26.99
24.27
20.67
17.10
14.34
12.92
13.03
14.59
17.26
20.56
23.92
26.70
28.37
28.59
27.34
24.98
22.07
19.18
16.67
14.58
12.68
10.69
8.44
5.98
3.49
1.21
-0.76
-2.53
-4.37
-6.66
-9.77
-13.88
-18.85
-24.10
-28.71
-31.62
-31.95
-29.28
-23.86
-16.47
-8.22
-0.18
6.75
11.96
15.10
16.06
14.95
12.20
8.51
4.77
1.74
-0.08
-0.54
0.18
1.80
3.99
6.42
8.73
10.48
11.24
10.77
9.12
6.66
3.90
1.32
-0.87
-2.76
-4.58
-6.47
-8.31
-9.80
-10.58
-10.53
-9.86
-9.14
-8.95
-9.72
-11.56
-14.23
-17.30
-20.22
-22.43
-23.41
-22.71
-20.02
-15.30
-8.93
-1.71
5.26
10.95
14.61
15.99
15.39
13.42
10.79
8.11
5.83
4.22
3.46
3.61
4.63
6.27
8.14
9.78
10.84
11.21
10.99
10.37
9.48
8.25
6.52
4.10
1.06
-2.27
-5.32
-7.54
-8.61
-8.63
-8.06
-7.56
-7.75
-9.01
-11.40
-14.70
-18.48
-22.23
-25.33
-27.16
-27.14
-24.83
-20.15
-13.53
-5.84
1.78
8.17
12.50
14.42
14.09
12.03
8.92
5.43
2.07
-0.81
-2.92
-4.03
-3.96
-2.69
-0.46
2.24
4.71
6.34
6.83
6.30
5.20
4.02
3.01
2.12
1.09
-0.25
-1.83
-3.34
-4.40
-4.87
-4.92
-5.04
-5.76
-7.44
-10.15
-13.61
-17.28
-20.53
-22.73
-23.37
-22.17
-19.15
-14.57
-8.94
-2.80
3.24
8.63
12.85
15.42
16.11
14.93
12.34
9.06
5.96
3.75
2.77
2.94
3.88
5.12
6.30
7.23
7.87
8.22
8.22
7.66
6.39
4.30
1.55
-1.49
-4.37
-6.73
-8.46
-9.76
-10.95
-12.33
-14.09
-16.20
-18.54
-20.99
-23.46
-25.86
-27.98
-29.41
-29.60
-28.03
-24.46
-19.07
-12.52
-5.81
0.06
4.29
6.46
6.65
5.27
2.88
0.11
-2.53
-4.64
-5.94
-6.24
-5.49
-3.78
-1.43
1.13
3.37
4.86
5.33
4.74
3.29
1.25
-1.05
-3.41
-5.72
-7.91
-9.96
-11.75
-13.14
-14.00
-14.41
-14.67
-15.26
-16.65
-19.03
-22.13
-25.17
-27.18
-27.30
-25.13
-20.83
-15.03
-8.54
-2.13
3.65
8.42
11.92
13.91
14.25
12.97
10.43
7.25
4.25
2.14
1.33
1.79
3.15
4.84
6.34
7.38
7.94
8.16
8.13
7.83
7.09
5.72
3.69
1.15
-1.55
-4.10
-6.27
-8.09
-9.74
-11.49
-13.57
-16.01
-18.66
-21.14
-22.96
-23.65
-22.92
-20.65
-16.99
-12.24
-6.83
-1.26
3.93
8.14
10.80
11.55
10.40
7.77
4.47
1.36
-0.88
-1.95
-1.95
-1.23
-0.12
1.27
2.87
4.67
6.43
7.71
8.00
7.06
5.00
2.35
-0.37
-2.76
-4.77
-6.58
-8.43
-10.41
-12.48
-14.55
-16.64
-18.77
-20.83
-22.38
-22.68
-20.97
-16.90
-10.83
-3.94
2.29
6.63
8.54
8.37
7.06
5.58
4.57
3.90
3.10
1.77
-0.01
-1.55
-1.94
-0.59
2.34
5.73
8.10
8.34
6.26
2.76
-0.66
-2.67
-2.79
-1.63
-0.40
-0.21
-1.50
-3.90
-6.53
-8.69
-10.07
-10.93
-11.66
-12.39
-12.76
-12.10
-9.79
-5.73
-0.29
5.58
10.91
14.95
17.35
18.12
17.49
15.77
13.36
10.64
7.99
5.85
4.51
4.10
4.60
5.81
7.53
9.49
11.39
12.85
13.45
12.85
11.03
8.26
5.06
1.98
-0.67
-2.92
-5.09
-7.52
-10.38
-13.54
-16.59
-19.05
-20.54
-20.82
-19.79
-17.46
-13.92
-9.35
-4.04
1.60
7.05
11.79
15.39
17.61
18.44
18.14
17.13
15.91
14.93
14.44
14.47
14.87
15.38
15.81
16.11
16.28
16.34
16.23
15.79
14.86
13.34
11.29
8.89
6.33
3.82
1.45
-0.76
-2.87
-5.03
-7.43
-10.26
-13.56
-17.08
-20.27
-22.34
-22.62
-20.75
-16.90
-11.65
-5.78
-0.02
5.17
9.55
13.02
15.48
16.83
17.02
16.20
14.76
13.29
12.39
12.42
13.39
14.91
16.45
17.53
17.93
17.74
17.21
16.56
15.84
14.91
13.56
11.63
9.14
6.30
3.43
0.74
-1.62
-3.70
-5.60
-7.46
-9.44
-11.67
-14.29
-17.31
-20.55
-23.52
-25.42
-25.43
-22.95
-17.98
-11.15
-3.58
3.60
9.60
14.15
17.37
19.55
20.87
21.34
20.95
19.85
18.39
17.10
16.43
16.53
17.27
18.25
19.05
19.39
19.15
18.45
17.39
16.06
14.49
12.66
10.60
8.39
6.19
4.19
2.45
1.01
-0.21
-1.28
-2.26
-3.17
-4.05
-5.03
-6.42
-8.61
-11.82
-15.96
-20.40
-24.13
-26.00
-25.10
-21.26
-14.98
-7.34
0.46
7.46
13.22
17.69
21.05
23.40
24.66
24.71
23.61
21.69
19.57
17.90
17.20
17.55
18.68
20.05
21.13
21.52
21.15
20.15
18.85
17.52
16.34
15.25
14.04
12.47
10.42
8.01
5.55
3.40
1.80
0.75
0.03
-0.65
-1.54
-2.77
-4.32
-6.16
-8.33
-10.88
-13.87
-17.18
-20.42
-22.94
-23.92
-22.72
-19.03
-13.15
-5.88
1.65
8.34
13.46
16.79
18.56
19.17
19.00
18.22
16.84
14.95
12.81
10.95
9.90
10.01
11.20
12.97
14.62
15.56
15.55
14.76
13.61
12.49
11.62
10.92
10.23
9.38
8.37
7.37
6.56
5.99
5.52
4.86
3.70
1.91
-0.47
-3.12
-5.72
-8.05
-10.18
-12.41
-15.10
-18.33
-21.75
-24.54
-25.68
-24.44
-20.69
-14.98
-8.35
-1.91
3.57
7.79
10.80
12.80
13.87
13.93
12.94
11.00
8.54
6.20
4.64
4.27
5.06
6.56
8.11
9.10
9.22
8.59
7.58
6.58
5.78
5.07
4.22
2.95
1.26
-0.59
-2.25
-3.44
-4.17
-4.75
-5.59
-6.94
-8.80
-10.86
-12.73
-14.14
-15.07
-15.83
-16.84
-18.42
-20.60
-22.96
-24.80
-25.38
-24.21
-21.24
-16.85
-11.63
-6.19
-0.97
3.73
7.68
10.57
12.04
11.87
10.10
7.23
3.98
1.19
-0.55
-0.98
-0.21
1.37
3.27
5.02
6.28
6.82
6.58
5.55
3.81
1.49
-1.20
-3.96
-6.41
-8.22
-9.23
-9.51
-9.35
-9.14
-9.20
-9.68
-10.52
-11.59
-12.78
-14.06
-15.53
-17.28
-19.37
-21.62
-23.68
-25.05
-25.24
-23.94
-21.17
-17.30
-12.89
-8.54
-4.64
-1.35
1.30
3.28
4.42
4.55
3.60
1.75
-0.54
-2.67
-4.16
-4.83
-4.81
-4.46
-4.18
-4.16
-4.45
-4.90
-5.41
-5.92
-6.60
-7.63
-9.20
-11.33
-13.84
-16.39
-18.64
-20.41
-21.65
-22.47
-22.87
-22.81
-22.16
-20.94
-19.45
-18.25
-17.95
-18.86
-20.75
-22.89
-24.37
-24.41
-22.72
-19.48
-15.15
-10.28
-5.31
-0.59
3.56
6.79
8.72
9.07
7.72
4.91
1.24
-2.45
-5.30
-6.65
-6.30
-4.56
-2.05
0.46
2.44
3.72
4.29
4.32
3.87
2.91
1.42
-0.46
-2.51
-4.35
-5.88
-7.11
-8.24
-9.35
-10.31
-10.79
-10.54
-9.66
-8.82
-8.90
-10.51
-13.52
-16.92
-19.20
-19.11
-16.26
-11.44
-6.12
-1.65
1.32
3.10
4.52
6.22
8.23
9.70
9.59
7.35
3.34
-1.12
-4.43
-5.52
-4.28
-1.65
1.03
2.74
3.31
3.33
3.67
4.85
6.75
8.51
9.15
8.12
5.57
2.30
-0.64
-2.49
-3.03
-2.73
-2.42
-2.91
-4.68
-7.64
-11.24
-14.61
-16.86
-17.43
-16.14
-13.20
-9.13
-4.48
0.23
4.60
8.37
11.29
13.14
13.82
13.36
12.04
10.32
8.74
7.71
7.40
7.69
8.26
8.82
9.17
9.26
9.15
8.92
8.54
7.88
6.80
5.18
3.09
0.72
-1.57
-3.43
-4.64
-5.21
-5.45
-5.83
-6.80
-8.47
-10.56
-12.46
-13.44
-13.01
-11.04
-7.84
-3.97
-0.01
3.55
6.51
8.80
10.46
11.54
12.00
11.82
11.03
9.78
8.39
7.28
6.80
7.12
8.08
9.24
10.03
9.91
8.58
5.95
2.20
-2.36
-7.29
-12.06
-16.11
-18.99
-20.47
-20.73
-20.38
-20.39
-21.63
-24.35
-27.83
-30.51
-30.54
-26.66
-18.88
-8.56
2.11
11.09
17.25
20.59
21.96
22.30
22.12
21.36
19.70
17.02
13.66
10.42
8.10
7.21
7.68
8.97
10.30
11.05
10.99
10.35
9.66
9.34
9.50
9.76
9.51
8.19
5.66
2.31
-1.07
-3.67
-5.06
-5.36
-5.23
-5.53
-6.95
-9.70
-13.42
-17.35
-20.59
-22.34
-22.19
-20.09
-16.34
-11.47
-6.05
-0.66
4.16
7.94
10.35
11.30
11.00
9.94
8.82
8.22
8.48
9.51
10.97
12.37
13.35
13.84
13.97
13.91
13.78
13.56
13.15
12.45
11.43
10.10
8.55
6.78
4.79
2.65
0.44
-1.58
-3.17
-4.17
-4.64
-4.99
-5.79
-7.57
-10.43
-13.97
-17.25
-19.20
-18.96
-16.30
-11.64
-5.90
-0.10
4.96
8.83
11.44
12.92
13.46
13.27
12.56
11.58
10.62
9.94
9.73
10.10
10.92
11.95
12.86
13.33
13.22
12.64
11.91
11.44
11.49
12.06
12.83
13.28
12.96
11.70
9.66
7.36
5.35
3.99
3.32
3.02
2.54
1.37
-0.83
-3.99
-7.70
-11.26
-13.85
-14.77
-13.58
-10.26
-5.22
0.91
7.34
13.39
18.57
22.60
25.31
26.63
26.59
25.43
23.62
21.73
20.30
19.61
19.62
20.06
20.56
20.85
20.84
20.57
20.13
19.52
18.74
17.76
16.53
15.09
13.46
11.70
9.89
8.13
6.50
5.11
3.96
3.09
2.43
1.90
1.33
0.48
-0.89
-3.01
-5.83
-8.98
-11.80
-13.50
-13.43
-11.33
-7.38
-2.14
3.68
9.51
14.93
19.67
23.49
26.10
27.28
26.88
25.11
22.52
19.80
17.60
16.26
15.77
15.82
16.06
16.20
16.17
15.97
15.58
14.94
13.88
12.36
10.39
8.16
5.94
4.00
2.42
1.14
-0.06
-1.40
-2.96
-4.68
-6.40
-7.89
-9.11
-10.21
-11.55
-13.48
-16.19
-19.46
-22.66
-24.91
-25.34
-23.41
-19.15
-13.10
-6.19
0.61
6.55
11.21
14.42
16.21
16.65
15.85
14.03
11.53
8.90
6.68
5.26
4.77
4.98
5.49
5.89
5.97
5.73
5.35
4.97
4.56
3.92
2.77
0.97
-1.40
-4.01
-6.44
-8.32
-9.54
-10.16
-10.37
-10.40
-10.45
-10.65
-11.17
-12.22
-13.99
-16.57
-19.75
-23.03
-25.63
-26.72
-25.75
-22.58
-17.60
-11.56
-5.34
0.30
4.87
8.18
10.23
11.10
10.91
9.80
8.03
5.95
4.00
2.59
1.97
2.19
3.07
4.29
5.46
6.30
6.65
6.49
5.91
5.02
3.84
2.37
0.59
-1.45
-3.59
-5.60
-7.28
-8.54
-9.48
-10.32
-11.28
-12.54
-14.10
-15.95
-18.07
-20.50
-23.25
-26.18
-28.90
-30.77
-31.08
-29.37
-25.63
-20.34
-14.36
-8.64
-3.95
-0.71
1.01
1.32
0.44
-1.42
-3.99
-6.90
-9.67
-11.71
-12.58
-12.20
-10.85
-9.11
-7.58
-6.55
-5.97
-5.50
-4.83
-4.01
-3.46
-3.78
-5.42
-8.34
-12.01
-15.55
-18.10
-19.27
-19.18
-18.38
-17.62
-17.48
-18.27
-19.98
-22.36
-25.21
-28.24
-31.06
-33.07
-33.47
-31.52
-26.99
-20.28
-12.68
-5.81
-1.03
1.07
0.87
-0.57
-2.10
-3.10
-3.67
-4.33
-5.56
-7.29
-8.83
-9.25
-7.96
-5.06
-1.53
1.36
2.65
2.16
0.47
-1.44
-2.86
-3.60
-4.12
-5.05
-6.71
-8.90
-10.98
-12.28
-12.53
-11.97
-11.39
-11.62
-13.21
-16.09
-19.56
-22.59
-24.16
-23.59
-20.82
-16.29
-10.77
-5.04
0.35
5.08
9.04
12.23
14.56
15.87
15.99
14.88
12.72
9.97
7.25
5.21
4.29
4.60
5.87
7.51
8.89
9.54
9.22
8.01
6.17
4.02
1.79
-0.42
-2.60
-4.79
-6.97
-9.10
-11.11
-13.01
-14.85
-16.76
-18.72
-20.53
-21.76
-21.85
-20.32
-17.04
-12.23
-6.51
-0.68
4.54
8.63
11.37
12.79
13.08
12.53
11.47
10.21
9.04
8.19
7.79
7.85
8.13
8.13
7.26
5.17
1.97
-1.54
-4.23
-5.03
-3.55
-0.31
3.49
6.47
7.68
6.90
4.52
1.15
-2.67
-6.62
-10.44
-13.71
-15.80
-16.06
-14.10
-10.07
-4.63
1.21
6.45
10.39
12.76
13.67
13.49
12.62
11.44
10.21
9.09
8.19
7.55
7.16
6.93
6.70
6.29
5.53
4.34
2.79
1.00
-0.80
-2.42
-3.74
-4.75
-5.55
-6.35
-7.36
-8.81
-10.84
-13.43
-16.32
-19.05
-21.00
-21.53
-20.19
-16.85
-11.84
-5.79
0.44
6.01
10.35
13.16
14.46
14.54
13.79
12.67
11.53
10.66
10.18
10.15
10.56
11.37
12.51
13.87
15.19
16.17
16.52
16.00
14.61
12.47
9.79
6.73
3.35
-0.35
-4.35
-8.47
-12.47
-16.12
-19.31
-22.05
-24.42
-26.36
-27.53
-27.41
-25.45
-21.41
-15.52
-8.50
-1.38
4.92
9.83
13.23
15.42
16.80
17.70
18.30
18.64
18.74
18.71
18.75
19.03
19.61
20.43
21.29
21.87
21.88
21.05
19.27
16.59
13.29
9.77
6.48
3.76
1.70
0.18
-1.10
-2.43
-4.10
-6.33
-9.23
-12.90
-17.28
-22.07
-26.66
-30.19
-31.78
-30.79
-27.07
-21.08
-13.75
-6.21
0.51
5.76
9.35
11.47
12.53
12.97
13.21
13.51
14.05
14.91
16.15
17.71
19.45
21.13
22.46
23.21
23.25
22.60
21.42
19.91
18.28
16.63
14.94
13.09
10.94
8.40
5.53
2.56
-0.16
-2.34
-3.90
-5.09
-6.40
-8.42
-11.55
-15.78
-20.57
-25.00
-28.01
-28.70
-26.59
-21.80
-14.97
-7.10
0.81
7.94
13.77
18.09
20.79
21.92
21.60
20.20
18.33
16.74
16.10
16.74
18.46
20.70
22.71
23.88
23.95
23.02
21.44
19.58
17.68
15.83
13.97
12.06
10.14
8.37
6.90
5.84
5.12
4.57
3.96
3.10
1.92
0.46
-1.23
-3.19
-5.61
-8.64
-12.31
-16.27
-19.75
-21.73
-21.26
-17.83
-11.71
-3.83
4.43
11.76
17.33
20.93
22.81
23.44
23.17
22.16
20.54
18.52
16.56
15.25
15.01
15.91
17.60
19.45
20.85
21.46
21.28
20.53
19.50
18.32
16.98
15.45
13.71
11.87
10.11
8.57
7.28
6.11
4.88
3.43
1.73
-0.13
-1.97
-3.66
-5.23
-6.90
-9.00
-11.81
-15.34
-19.11
-22.27
-23.80
-22.91
-19.32
-13.44
-6.16
1.39
8.24
13.79
17.80
20.23
21.11
20.49
18.50
15.47
12.03
9.02
7.19
6.97
8.30
10.62
13.16
15.19
16.33
16.58
16.14
15.27
14.05
12.39
10.18
7.39
4.23
1.05
-1.81
-4.16
-6.05
-7.64
-9.13
-10.63
-12.11
-13.50
-14.87
-16.40
-18.39
-21.04
-24.25
-27.53
-30.07
-30.99
-29.61
-25.71
-19.66
-12.25
-4.47
2.74
8.69
13.02
15.57
16.40
15.66
13.61
10.66
7.36
4.39
2.41
1.83
2.73
4.72
7.12
9.17
10.36
10.57
10.03
9.19
8.29
7.35
6.11
4.32
1.92
-0.77
-3.40
-5.61
-7.35
-8.80
-10.12
-11.35
-12.31
-12.80
-13.01
-13.45
-14.81
-17.48
-21.20
-24.99
-27.49
-27.63
-25.12
-20.52
-14.85
-9.08
-3.72
1.21
5.83
10.01
13.05
14.07
12.51
8.63
3.64
-0.71
-2.88
-2.20
0.66
4.24
7.02
8.19
7.98
7.31
7.13
7.75
8.49
8.28
6.30
2.65
-1.67
-5.20
-6.94
-6.74
-5.55
-4.70
-5.20
-7.24
-10.25
-13.29
-15.69
-17.38
-18.91
-20.91
-23.62
-26.55
-28.68
-28.80
-26.20
-20.86
-13.66
-5.92
1.04
6.31
9.60
11.08
11.16
10.29
8.74
6.68
4.33
2.01
0.17
-0.77
-0.55
0.77
2.83
5.08
6.94
7.96
7.96
6.95
5.14
2.77
0.10
-2.68
-5.42
-7.96
-10.14
-11.79
-12.82
-13.21
-13.11
-12.87
-12.92
-13.71
-15.46
-18.06
-21.01
-23.52
-24.69
-23.85
-20.75
-15.71
-9.58
-3.43
1.77
5.42
7.42
8.09
7.89
7.17
6.08
4.64
2.93
1.20
-0.10
-0.57
-0.07
1.19
2.69
3.91
4.54
4.60
4.27
3.78
3.15
2.25
0.86
-1.09
-3.46
-5.88
-7.95
-9.37
-10.07
-10.27
-10.40
-10.91
-12.20
-14.36
-17.15
-20.04
-22.33
-23.35
-22.69
-20.25
-16.24
-11.08
-5.28
0.61
6.01
10.37
13.17
14.10
13.16
10.74
7.56
4.45
2.09
0.83
0.66
1.35
2.59
4.15
5.92
7.74
9.40
10.56
10.86
10.07
8.27
5.82
3.23
0.97
-0.74
-1.97
-3.01
-4.23
-5.96
-8.32
-11.25
-14.51
-17.67
-20.18
-21.49
-21.07
-18.69
-14.41
-8.68
-2.26
3.98
9.29
13.12
15.22
15.66
14.79
13.05
10.99
9.05
7.58
6.73
6.52
6.85
7.58
8.46
9.24
9.66
9.47
8.60
7.11
5.27
3.40
1.70
0.24
-1.08
-2.40
-3.77
-5.17
-6.50
-7.78
-9.25
-11.18
-13.77
-16.84
-19.72
-21.40
-20.90
-17.67
-11.97
-4.74
2.75
9.29
14.20
17.41
19.23
20.09
20.22
19.67
18.40
16.57
14.56
12.92
12.14
12.42
13.52
14.96
16.15
16.69
16.46
15.58
14.31
12.87
11.34
9.69
7.85
5.81
3.70
1.69
-0.04
-1.50
-2.87
-4.57
-6.98
-10.25
-14.13
-17.92
-20.65
-21.37
-19.53
-15.15
-8.89
-1.74
5.22
11.19
15.71
18.74
20.43
21.03
20.79
19.94
18.72
17.40
16.22
15.41
15.05
15.16
15.62
16.24
16.78
16.98
16.66
15.77
14.39
12.68
10.78
8.71
6.41
3.84
1.03
-1.75
-4.20
-6.08
-7.42
-8.56
-10.06
-12.43
-15.89
-20.14
-24.44
-27.75
-29.13
-28.04
-24.44
-18.91
-12.28
-5.41
1.04
6.62
11.05
14.11
15.67
15.70
14.44
12.45
10.41
8.98
8.53
9.03
10.20
11.59
12.88
13.92
14.72
15.30
15.62
15.49
14.69
13.07
10.66
7.74
4.66
1.80
-0.56
-2.36
-3.64
-4.56
-5.33
-6.13
-7.16
-8.66
-10.83
-13.79
-17.38
-21.16
-24.43
-26.34
-26.20
-23.66
-18.89
-12.57
-5.64
0.94
6.46
10.60
13.37
14.96
15.49
14.98
13.47
11.10
8.28
5.66
3.90
3.37
4.02
5.33
6.66
7.45
7.50
6.95
6.16
5.41
4.79
4.19
3.45
2.47
1.32
0.20
-0.70
-1.31
-1.67
-1.95
-2.36
-3.04
-4.10
-5.60
-7.61
-10.19
-13.32
-16.82
-20.28
-23.03
-24.31
-23.46
-20.26
-14.99
-8.46
-1.71
4.26
8.78
11.61
12.87
12.82
11.75
9.90
7.51
4.87
2.38
0.47
-0.50
-0.37
0.70
2.30
3.85
4.83
4.92
4.11
2.70
1.06
-0.46
-1.73
-2.84
-3.95
-5.18
-6.50
-7.75
-8.75
-9.44
-9.92
-10.42
-11.21
-12.52
-14.46
-17.04
-20.08
-23.31
-26.30
-28.49
-29.32
-28.32
-25.29
-20.36
-14.04
-7.10
-0.40
5.31
9.50
11.97
12.80
12.28
10.82
8.84
6.77
5.00
3.88
3.64
4.36
5.88
7.85
9.77
11.16
11.72
11.38
10.33
8.93
7.52
6.22
5.00
3.64
1.97
-0.01
-2.08
-3.75
-4.64
-4.59
-3.90
-3.28
-3.53
-5.19
-8.29
-12.26
-16.31
-19.62
-21.60
-21.97
-20.52
-17.13
-11.84
-4.97
2.47
9.15
13.73
15.45
14.49
11.89
8.98
6.85
5.82
5.58
5.57
5.48
5.51
6.13
7.67
10.00
12.23
13.29
12.44
9.72
5.99
2.55
0.32
-0.45
-0.57
-1.17
-3.03
-6.12
-9.53
-12.04
-12.92
-12.34
-11.52
-11.90
-14.37
-18.62
-23.28
-26.45
-26.68
-23.46
-17.52
-10.27
-3.17
2.81
7.43
10.86
13.34
14.95
15.50
14.75
12.76
9.96
7.06
4.84
3.80
4.09
5.40
7.23
9.02
10.35
11.01
10.95
10.28
9.12
7.58
5.74
3.66
1.45
-0.72
-2.61
-4.04
-4.91
-5.29
-5.47
-5.83
-6.79
-8.67
-11.52
-15.07
-18.63
-21.30
-22.16
-20.61
-16.62
-10.74
-3.96
2.67
8.34
12.59
15.33
16.64
16.63
15.45
13.33
10.68
8.08
6.16
5.38
5.90
7.51
9.67
11.77
13.22
13.71
13.24
12.03
10.39
8.61
6.75
4.75
2.56
0.23
-1.97
-3.65
-4.56
-4.69
-4.44
-4.40
-5.20
-7.19
-10.32
-14.16
-18.08
-21.37
-23.37
-23.54
-21.53
-17.27
-11.08
-3.68
3.90
10.61
15.62
18.56
19.55
19.10
17.88
16.48
15.31
14.54
14.21
14.20
14.31
14.33
14.08
13.48
12.53
11.30
9.86
8.29
6.59
4.76
2.80
0.80
-1.12
-2.81
-4.15
-5.10
-5.71
-6.10
-6.41
-6.83
-7.58
-8.89
-10.90
-13.55
-16.50
-19.05
-20.42
-19.90
-17.22
-12.61
-6.80
-0.69
4.90
9.42
12.58
14.28
14.53
13.48
11.42
8.88
6.53
4.98
4.62
5.44
7.06
8.92
10.48
11.43
11.75
11.61
11.11
10.28
8.97
7.04
4.53
1.69
-1.01
-3.05
-4.20
-4.53
-4.42
-4.40
-4.83
-5.87
-7.50
-9.59
-12.13
-15.17
-18.61
-22.07
-24.77
-25.69
-24.00
-19.43
-12.58
-4.75
2.48
7.85
10.79
11.45
10.43
8.41
5.85
2.99
0.06
-2.57
-4.34
-4.76
-3.76
-1.75
0.40
1.81
1.97
0.91
-0.84
-2.69
-4.25
-5.45
-6.53
-7.74
-9.13
-10.52
-11.63
-12.22
-12.25
-11.87
-11.41
-11.27
-11.83
-13.39
-16.00
-19.34
-22.70
-25.13
-25.73
-23.98
-19.96
-14.32
-8.05
-2.16
2.58
5.86
7.70
8.30
7.93
6.86
5.38
3.83
2.62
2.14
2.69
4.25
6.55
9.00
10.96
11.91
11.66
10.39
8.51
6.46
4.47
2.53
0.48
-1.72
-3.94
-5.81
-6.97
-7.35
-7.27
-7.43
-8.55
-11.03
-14.72
-18.86
-22.34
-24.12
-23.59
-20.75
-16.14
-10.63
-5.04
0.02
4.21
7.41
9.54
10.53
10.43
9.38
7.80
6.28
5.39
5.47
6.52
8.22
10.13
11.83
13.08
13.84
14.17
14.07
13.45
12.15
10.13
7.49
4.56
1.84
-0.25
-1.54
-2.23
-2.84
-3.96
-6.00
-8.91
-12.16
-14.91
-16.29
-15.76
-13.23
-9.09
-4.05
1.15
5.91
9.84
12.74
14.51
15.09
14.51
12.99
10.92
8.87
7.34
6.69
6.96
7.91
9.20
10.50
11.57
12.30
12.62
12.43
11.59
10.00
7.67
4.84
1.87
-0.80
-2.84
-4.14
-4.88
-5.52
-6.60
-8.56
-11.53
-15.14
-18.63
-21.06
-21.59
-19.81
-15.87
-10.35
-4.07
2.25
8.09
13.11
17.10
19.83
21.05
20.71
19.05
16.67
14.32
12.70
12.12
12.49
13.40
14.35
15.07
15.50
15.72
15.82
15.65
14.92
13.36
10.87
7.72
4.45
1.67
-0.21
-1.14
-1.46
-1.76
-2.63
-4.41
-7.12
-10.40
-13.74
-16.47
-18.01
-17.86
-15.73
-11.58
-5.70
1.28
8.47
14.89
19.74
22.54
23.26
22.31
20.31
17.92
15.65
13.79
12.44
11.58
11.15
11.13
11.50
12.15
12.90
13.45
13.50
12.85
11.49
9.64
7.58
5.61
3.87
2.36
1.00
-0.31
-1.55
-2.74
-3.94
-5.34
-7.27
-10.04
-13.70
-17.90
-21.93
-24.88
-25.97
-24.78
-21.41
-16.33
-10.27
-3.93
2.17
7.66
12.30
15.86
18.13
18.96
18.37
16.68
14.47
12.53
11.42
11.41
12.31
13.57
14.61
15.05
14.83
14.17
13.18
11.87
10.08
7.73
4.98
2.29
0.19
-1.04
-1.63
-2.13
-3.08
-4.61
-6.36
-7.70
-8.22
-8.11
-8.28
-9.79
-13.23
-18.26
-23.52
-27.27
-28.11
-25.55
-20.35
-13.97
-7.83
-2.76
1.22
4.61
7.83
10.84
12.99
13.50
12.03
9.02
5.62
3.15
2.50
3.73
6.05
8.32
9.60
9.54
8.41
6.84
5.44
4.54
4.05
3.58
2.65
0.91
-1.75
-5.14
-8.89
-12.54
-15.73
-18.22
-19.95
-21.07
-21.80
-22.47
-23.42
-24.92
-27.04
-29.63
-32.16
-33.93
-34.22
-32.46
-28.46
-22.48
-15.19
-7.61
-0.85
4.11
6.67
6.80
5.06
2.43
-0.05
-1.57
-1.87
-1.17
0.03
1.25
2.25
3.08
3.87
4.67
5.28
5.38
4.69
3.23
1.29
-0.60
-2.01
-2.78
-3.09
-3.28
-3.70
-4.50
-5.64
-6.96
-8.33
-9.77
-11.36
-13.31
-15.71
-18.45
-21.20
-23.38
-24.36
-23.63
-21.03
-16.78
-11.51
-5.92
-0.66
3.90
7.63
10.51
12.51
13.48
13.32
12.06
9.97
7.56
5.46
4.14
3.80
4.37
5.56
7.04
8.54
9.90
11.01
11.72
11.86
11.23
9.72
7.41
4.57
1.64
-0.94
-2.84
-3.97
-4.47
-4.75
-5.29
-6.52
-8.66
-11.58
-14.82
-17.69
-19.48
-19.66
-18.03
-14.72
-10.11
-4.75
0.78
5.90
10.08
12.93
14.20
13.91
12.44
10.38
8.41
7.06
6.58
6.85
7.59
8.45
9.21
9.77
10.10
10.16
9.80
8.88
7.33
5.20
2.71
0.09
-2.48
-4.89
-7.09
-9.01
-10.57
-11.72
-12.54
-13.35
-14.51
-16.33
-18.71
-21.09
-22.58
-22.22
-19.45
-14.39
-7.79
-0.77
5.61
10.65
14.14
16.22
17.14
17.06
16.04
14.21
11.85
9.50
7.73
7.00
7.44
8.71
10.24
11.47
12.09
12.14
11.90
11.65
11.51
11.30
10.72
9.51
7.68
5.51
3.44
1.86
0.91
0.43
-0.04
-0.97
-2.66
-5.06
-7.68
-9.73
-10.29
-8.72
-4.85
0.85
7.46
13.91
19.36
23.42
26.12
27.65
28.16
27.59
25.81
22.85
19.13
15.36
12.43
10.98
11.11
12.41
14.17
15.69
16.54
16.62
16.00
14.78
12.94
10.39
7.09
3.25
-0.70
-4.23
-6.83
-8.34
-8.97
-9.31
-10.08
-11.80
-14.59
-18.02
-21.20
-23.13
-23.01
-20.57
-16.12
-10.37
-4.22
1.56
6.46
10.26
12.86
14.21
14.30
13.24
11.29
8.97
6.90
5.66
5.51
6.43
8.00
9.71
11.09
11.85
11.96
11.50
10.56
9.20
7.41
5.20
2.65
-0.01
-2.48
-4.42
-5.66
-6.26
-6.67
-7.45
-9.23
-12.27
-16.32
-20.61
-24.07
-25.71
-24.95
-21.81
-16.81
-10.74
-4.40
1.57
6.70
10.65
13.13
13.95
13.13
11.01
8.27
5.74
4.12
3.78
4.60
6.09
7.67
8.97
9.91
10.63
11.23
11.60
11.33
10.05
7.56
4.12
0.36
-2.92
-5.20
-6.36
-6.79
-7.07
-7.74
-9.12
-11.21
-13.83
-16.77
-19.80
-22.71
-25.09
-26.43
-26.11
-23.67
-19.05
-12.70
-5.52
1.38
7.03
10.79
12.51
12.44
11.07
8.94
6.54
4.26
2.45
1.37
1.22
2.03
3.67
5.80
7.92
9.49
10.07
9.49
7.88
5.64
3.27
1.18
-0.47
-1.76
-2.96
-4.28
-5.77
-7.27
-8.55
-9.50
-10.28
-11.34
-13.16
-16.03
-19.76
-23.64
-26.68
-27.92
-26.79
-23.36
-18.20
-12.19
-6.17
-0.75
3.77
7.25
9.65
10.88
10.91
9.84
7.96
5.81
3.99
3.01
3.13
4.23
5.93
7.76
9.29
10.28
10.63
10.31
9.34
7.74
5.60
3.14
0.72
-1.31
-2.72
-3.53
-3.95
-4.35
-5.08
-6.35
-8.22
-10.56
-13.23
-16.06
-18.87
-21.44
-23.41
-24.34
-23.70
-21.16
-16.70
-10.75
-4.18
1.93
6.63
9.40
10.22
9.43
7.59
5.26
2.90
0.93
-0.20
-0.18
1.07
3.15
5.29
6.63
6.68
5.52
3.84
2.45
1.85
1.93
2.07
1.58
0.19
-1.85
-3.87
-5.28
-5.80
-5.81
-5.93
-6.81
-8.75
-11.67
-15.12
-18.55
-21.42
-23.57
-24.90
-25.37
-24.78
-22.81
-19.13
-13.74
-7.17
-0.66
4.35
6.74
6.23
3.59
0.25
-2.38
-3.59
-3.69
-3.54
-3.94
-4.99
-6.00
-5.94
-4.13
-0.73
3.09
5.85
6.46
4.79
1.70
-1.52
-3.83
-4.86
-5.11
-5.35
-6.22
-7.78
-9.64
-11.25
-12.32
-13.01
-13.82
-15.25
-17.36
-19.70
-21.39
-21.52
-19.50
-15.27
-9.36
-2.67
3.78
9.12
12.78
14.62
14.85
13.96
12.54
11.09
9.93
9.13
8.64
8.38
8.40
8.84
9.85
11.35
13.03
14.33
14.68
13.74
11.58
8.68
5.70
3.20
1.42
0.22
-0.78
-1.97
-3.57
-5.60
-7.98
-10.63
-13.51
-16.52
-19.34
-21.39
-21.93
-20.35
-16.46
-10.74
-4.14
2.15
7.18
10.44
11.93
11.94
10.92
9.22
7.13
4.92
2.92
1.45
0.82
1.14
2.31
4.04
5.86
7.29
7.94
7.65
6.43
4.54
2.34
0.15
-1.79
-3.39
-4.71
-5.87
-7.06
-8.48
-10.35
-12.81
-15.83
-19.07
-21.91
-23.58
-23.41
-21.02
-16.50
-10.41
-3.59
3.04
8.74
13.00
15.60
16.55
16.06
14.50
12.30
9.96
7.96
6.65
6.22
6.71
7.95
9.66
11.48
13.02
13.95
14.04
13.25
11.66
9.49
6.99
4.41
1.94
-0.27
-2.20
-3.97
-5.81
-8.05
-10.90
-14.35
-18.02
-21.20
-23.06
-22.90
-20.36
-15.60
-9.22
-2.13
4.71
10.45
14.53
16.69
17.05
15.97
13.98
11.71
9.66
8.23
7.63
7.87
8.81
10.13
11.41
12.27
12.42
11.76
10.35
8.40
6.16
3.77
1.31
-1.18
-3.64
-5.94
-7.89
-9.39
-10.51
-11.62
-13.25
-15.88
-19.64
-24.12
-28.35
-31.12
-31.35
-28.62
-23.28
-16.28
-8.79
-1.73
4.40
9.44
13.43
16.30
17.91
18.14
17.14
15.38
13.61
12.56
12.71
14.04
16.13
18.30
19.90
20.56
20.27
19.24
17.89
16.41
14.82
12.95
10.55
7.61
4.39
1.45
-0.66
-1.61
-1.54
-0.99
-0.77
-1.57
-3.80
-7.42
-12.02
-16.97
-21.52
-24.92
-26.49
-25.73
-22.45
-16.87
-9.62
-1.63
6.07
12.58
17.29
20.01
20.97
20.60
19.50
18.19
17.04
16.26
15.96
16.16
16.85
17.97
19.32
20.60
21.43
21.49
20.62
18.93
16.70
14.32
12.13
10.24
8.59
6.96
5.13
3.03
0.75
-1.45
-3.32
-4.75
-5.83
-6.84
-8.15
-10.10
-12.90
-16.51
-20.54
-24.35
-27.10
-27.98
-26.44
-22.39
-16.28
-8.94
-1.35
5.64
11.48
15.98
19.16
21.18
22.20
22.41
22.04
21.39
20.79
20.51
20.67
21.26
22.09
22.99
23.80
24.40
24.67
24.45
23.50
21.68
18.96
15.62
12.20
9.38
7.71
7.37
8.05
9.07
9.64
9.24
7.82
5.75
3.55
1.55
-0.39
-2.70
-5.88
-10.09
-14.95
-19.64
-23.16
-24.76
-24.14
-21.38
-16.89
-11.15
-4.66
2.07
8.44
13.80
17.58
19.48
19.55
18.23
16.19
14.12
12.51
11.55
11.17
11.20
11.45
11.82
12.36
13.04
13.69
14.00
13.57
12.16
9.85
7.00
4.17
1.79
-0.01
-1.42
-2.81
-4.45
-6.36
-8.29
-9.89
-10.90
-11.30
-11.32
-11.36
-11.83
-13.04
-15.09
-17.87
-21.08
-24.27
-26.91
-28.43
-28.35
-26.33
-22.33
-16.53
-9.47
-1.94
5.16
10.97
14.86
16.60
16.40
14.79
12.48
10.15
8.32
7.28
7.11
7.69
8.81
10.18
11.48
12.36
12.52
11.77
10.07
7.60
4.76
2.04
-0.19
-1.85
-3.15
-4.52
-6.35
-8.78
-11.58
-14.31
-16.54
-18.11
-19.17
-20.08
-21.25
-22.95
-25.24
-28.03
-31.10
-34.11
-36.62
-38.10
-37.99
-35.90
-31.72
-25.70
-18.50
-11.00
-4.10
1.43
5.16
7.01
7.29
6.47
5.07
3.50
2.00
0.73
-0.10
-0.21
0.62
2.34
4.59
6.71
8.06
8.32
7.64
6.52
5.46
4.48
3.24
1.26
-1.61
-4.95
-7.80
-9.28
-9.05
-7.66
-6.28
-6.07
-7.58
-10.58
-14.23
-17.64
-20.21
-21.99
-23.15
-23.73
-23.38
-21.42
-17.29
-10.96
-3.07
4.93
11.51
15.54
16.71
15.60
13.37
11.15
9.65
8.79
8.05
6.94
5.44
4.14
3.92
5.37
8.40
12.05
14.96
16.01
14.85
12.07
8.77
5.97
4.20
3.20
2.32
0.97
-1.00
-3.29
-5.41
-7.04
-8.24
-9.50
-11.39
-14.23
-17.83
-21.47
-24.12
-24.84
-23.02
-18.66
-12.29
-4.87
2.52
8.91
13.60
16.32
17.15
16.50
14.91
12.90
10.88
9.11
7.74
6.89
6.74
7.42
8.93
11.02
13.21
14.86
15.47
14.84
13.11
10.67
7.97
5.28
2.68
0.19
-2.20
-4.39
-6.22
-7.64
-8.80
-10.06
-11.92
-14.73
-18.41
-22.41
-25.71
-27.19
-26.06
-22.15
-16.02
-8.75
-1.55
4.64
9.34
12.50
14.29
14.90
14.45
13.08
11.08
8.92
7.24
6.58
7.20
8.95
11.27
13.48
14.97
15.45
14.98
13.82
12.26
10.40
8.24
5.69
2.83
-0.08
-2.67
-4.63
-5.92
-6.82
-7.86
-9.61
-12.40
-16.16
-20.33
-24.07
-26.41
-26.63
-24.42
-19.94
-13.80
-6.79
0.29
6.76
12.11
15.96
18.08
18.42
17.25
15.11
12.75
10.89
9.94
9.97
10.73
11.83
12.94
13.93
14.80
15.54
16.03
16.05
15.38
13.91
11.69
8.97
6.07
3.28
0.80
-1.29
-3.03
-4.52
-5.91
-7.39
-9.13
-11.31
-13.94
-16.83
-19.51
-21.31
-21.47
-19.44
-15.07
-8.76
-1.36
6.01
12.36
17.03
19.81
20.87
20.63
19.46
17.71
15.68
13.69
12.11
11.28
11.33
12.04
12.89
13.27
12.78
11.43
9.55
7.59
5.80
4.12
2.14
-0.50
-3.92
-7.80
-11.54
-14.50
-16.37
-17.18
-17.44
-17.79
-18.80
-20.82
-23.82
-27.43
-31.01
-33.80
-35.13
-34.57
-31.95
-27.45
-21.54
-14.86
-8.14
-2.07
2.80
6.10
7.74
7.86
6.86
5.27
3.70
2.76
2.83
4.04
6.21
8.88
11.45
13.37
14.34
14.42
13.85
13.03
12.19
11.33
10.23
8.64
6.42
3.71
0.92
-1.48
-3.15
-4.07
-4.51
-4.91
-5.72
-7.19
-9.38
-12.13
-15.14
-17.96
-20.08
-20.97
-20.19
-17.49
-12.96
-7.07
-0.59
5.61
10.77
14.40
16.39
16.96
16.51
15.46
14.19
12.91
11.80
10.99
10.59
10.66
11.10
11.69
12.12
12.05
11.31
9.84
7.80
5.52
3.32
1.46
0.08
-0.94
-1.79
-2.70
-3.77
-4.91
-5.93
-6.69
-7.29
