1553087861.00
64.000000
-0.00
-0.00
-0.00
-0.00
-0.00
-0.00
-0.00
-0.00
-0.00
-0.00
0.00
0.01
0.01
-0.00
-0.03
-0.05
-0.05
0.00
0.13
0.36
0.66
1.01
1.37
1.72
2.06
2.40
2.79
3.24
3.80
4.42
5.06
5.66
6.20
6.68
7.15
7.68
8.31
9.14
10.09
11.04
11.88
12.56
13.14
13.76
14.65
15.96
17.91
20.32
22.90
25.38
27.58
29.57
31.68
34.32
37.81
42.54
48.15
54.10
59.83
64.97
69.58
74.14
79.34
85.71
93.76
103.00
112.62
121.73
129.77
136.75
143.30
150.75
157.77
166.64
177.95
191.79
206.97
220.57
228.25
225.36
208.53
176.87
132.76
80.05
23.07
-34.94
-92.44
-149.16
-205.23
-260.37
-313.74
-363.87
-409.82
-450.88
-486.46
-515.67
-537.14
-549.09
-549.80
-538.16
-513.94
-478.36
-433.50
-382.01
-326.51
-269.27
-211.99
-155.94
-102.16
-51.50
-4.95
36.62
72.56
102.59
126.85
145.85
160.30
170.91
178.30
182.86
184.90
184.63
182.33
178.35
173.10
166.98
160.34
153.44
146.41
139.33
132.24
125.18
118.21
111.41
104.85
98.57
92.62
87.01
81.75
76.85
72.32
68.16
64.38
60.99
58.00
55.40
53.19
51.37
49.91
48.77
47.89
47.18
46.52
45.75
44.70
43.18
41.06
38.19
34.51
30.02
24.76
18.86
12.52
5.97
-0.52
-6.67
-12.26
-17.07
-20.96
-23.84
-25.70
-26.57
-26.57
-25.80
-24.41
-22.55
-20.35
-17.95
-15.41
-12.80
-10.17
-7.56
-5.00
-2.48
0.02
2.51
5.04
7.61
10.30
13.05
15.88
18.77
21.74
24.80
27.97
31.30
34.82
38.60
42.57
46.69
50.93
55.30
59.80
64.46
69.32
74.41
79.82
85.40
91.03
96.66
102.26
107.79
113.27
118.70
124.13
129.63
134.95
139.89
144.25
147.84
150.37
151.48
150.68
147.25
142.50
136.89
130.70
124.12
117.30
110.36
103.43
96.63
90.11
84.04
78.29
72.79
67.52
62.45
57.58
52.90
48.45
44.27
40.43
36.77
33.22
29.74
26.33
23.01
19.83
16.83
14.09
11.69
9.57
7.70
6.04
4.60
3.34
2.29
1.42
0.75
0.30
0.01
-0.16
-0.28
-0.39
-0.56
-0.80
-1.15
-1.58
-2.06
-2.57
-3.11
-3.69
-4.34
-5.07
-5.86
-6.70
-7.53
-8.29
-8.94
-9.49
-10.00
-10.55
-11.25
-12.16
-13.29
-14.55
-15.87
-17.16
-18.44
-19.85
-21.57
-23.76
-26.49
-29.69
-33.08
-36.34
-39.25
-41.78
-44.17
-46.84
-50.27
-54.71
-60.11
-66.13
-72.30
-78.30
-84.10
-90.12
-97.04
-105.47
-115.73
-127.59
-140.43
-153.44
-166.01
-177.97
-189.65
-201.69
-214.94
-230.33
-248.71
-270.53
-295.29
-321.10
-344.62
-361.75
-368.94
-364.49
-349.29
-326.46
-300.04
-273.59
-249.15
-227.21
-207.34
-189.07
-172.33
-157.43
-144.50
-133.30
-123.13
-113.28
-103.48
-94.10
-86.09
-80.34
-77.05
-75.41
-73.69
-69.75
-61.97
-49.81
-34.08
-16.63
0.46
15.42
27.38
36.29
42.65
47.06
49.96
51.58
52.04
51.59
50.74
50.11
50.33
51.73
54.22
57.30
60.34
62.75
64.26
64.89
64.80
64.08
62.71
60.44
57.15
52.92
48.11
43.34
39.16
35.85
33.33
31.16
28.85
26.03
22.65
18.98
15.38
12.21
9.55
7.21
4.74
1.64
-2.51
-7.83
-14.14
-20.84
-27.05
-31.72
-33.79
-32.49
-27.54
-19.34
-8.82
2.63
13.54
22.70
29.36
33.31
34.84
34.54
33.10
31.12
29.07
27.35
26.26
26.08
26.96
28.95
31.82
35.22
38.67
41.74
44.10
45.56
46.00
45.35
43.62
40.89
37.39
33.39
29.29
25.36
21.82
18.69
15.86
13.12
10.26
7.18
3.98
0.91
-1.72
-3.84
-5.59
-7.44
-10.00
-13.83
-19.20
-26.05
-33.82
-41.56
-48.07
-52.07
-52.51
-48.87
-41.31
-30.75
-18.66
-6.73
3.62
11.50
16.77
19.81
21.33
22.01
22.24
22.15
21.76
21.12
20.51
20.40
21.22
23.16
26.10
29.49
32.75
35.28
36.74
37.00
36.15
34.39
31.88
28.73
25.03
20.89
16.58
12.46
8.84
5.81
3.20
0.57
-2.51
-6.20
-10.27
-14.23
-17.60
-20.23
-22.52
-25.26
-29.27
-34.91
-41.77
-48.67
-53.88
-55.78
-53.31
-46.45
-36.09
-23.78
-11.19
0.34
9.96
17.36
22.53
25.59
26.75
26.27
24.66
22.58
20.82
20.02
20.60
22.57
25.59
29.11
32.51
35.37
37.46
38.75
39.37
39.42
38.90
37.70
35.69
32.83
29.29
25.42
21.71
18.59
16.22
14.41
12.68
10.46
7.45
3.67
-0.51
-4.51
-7.88
-10.56
-12.88
-15.49
-19.02
-23.90
-30.16
-37.30
-44.44
-50.41
-53.90
-53.81
-49.46
-40.93
-29.09
-15.44
-1.72
10.46
20.06
26.63
30.28
31.46
30.73
28.70
25.96
23.16
20.89
19.62
19.68
21.08
23.58
26.77
30.16
33.34
36.03
38.05
39.38
39.97
39.77
38.71
36.73
33.87
30.32
26.42
22.50
18.88
15.68
12.83
10.16
7.41
4.37
0.98
-2.71
-6.44
-9.95
-12.98
-15.50
-17.71
-20.09
-23.24
-27.70
-33.60
-40.49
-47.30
-52.52
-54.71
-52.92
-47.02
-37.72
-26.25
-14.05
-2.36
7.91
16.16
22.06
25.51
26.69
26.06
24.36
22.37
20.72
19.81
19.78
20.56
22.00
23.92
26.11
28.38
30.46
32.12
33.13
33.26
32.34
30.27
27.10
23.07
18.59
14.22
10.36
7.29
4.94
3.04
1.26
-0.67
-2.84
-5.18
-7.59
-10.01
-12.36
-14.61
-16.77
-19.05
-21.88
-25.78
-31.09
-37.65
-44.57
-50.35
-53.34
-52.42
-47.32
-38.70
-27.84
-16.14
-4.75
5.52
14.07
20.36
24.01
24.90
23.36
20.28
16.86
14.26
13.26
13.93
15.88
18.49
21.33
24.27
27.44
30.86
34.29
37.00
38.13
37.10
33.96
29.39
24.50
20.26
17.18
15.11
13.46
11.60
9.16
6.10
2.72
-0.68
-3.85
-6.78
-9.56
-12.36
-15.36
-18.77
-22.86
-27.87
-33.86
-40.60
-47.40
-53.09
-56.32
-55.94
-51.33
-42.69
-30.97
-17.69
-4.55
6.97
15.84
21.68
24.67
25.37
24.62
23.23
21.84
20.88
20.56
20.97
22.09
23.89
26.22
28.83
31.40
33.56
35.09
35.94
36.12
35.71
34.66
32.87
30.16
26.53
22.20
17.60
13.28
9.63
6.80
4.56
2.46
0.03
-3.07
-6.85
-11.05
-15.20
-18.94
-22.08
-24.84
-27.74
-31.42
-36.36
-42.61
-49.62
-56.27
-61.11
-62.73
-60.16
-53.24
-42.63
-29.74
-16.28
-3.82
6.52
14.23
19.35
22.18
23.11
22.54
20.88
18.71
16.70
15.56
15.77
17.41
20.16
23.39
26.44
28.86
30.52
31.52
32.00
31.99
31.42
30.10
27.98
25.21
22.10
19.07
16.44
14.33
12.59
10.93
9.05
6.82
4.32
1.75
-0.63
-2.69
-4.49
-6.26
-8.33
-10.98
-14.43
-18.87
-24.43
-31.10
-38.52
-45.84
-51.74
-54.63
-53.25
-47.12
-36.87
-24.05
-10.67
1.49
11.29
18.48
23.37
26.45
28.02
28.13
26.83
24.45
21.69
19.56
19.00
20.38
23.44
27.31
30.99
33.74
35.26
35.77
35.66
35.25
34.58
33.47
31.69
29.16
26.04
22.71
19.65
17.13
15.21
13.59
11.85
9.65
6.84
3.61
0.27
-2.83
-5.56
-8.00
-10.47
-13.27
-16.69
-20.88
-25.90
-31.75
-38.24
-44.89
-50.77
-54.65
-55.31
-51.93
-44.52
-33.99
-21.94
-10.11
0.06
7.80
13.00
15.96
17.15
17.01
15.95
14.42
12.91
11.93
11.91
13.05
15.28
18.31
21.66
24.91
27.71
29.85
31.23
31.81
31.55
30.39
28.25
25.14
21.26
17.01
12.91
9.46
6.88
5.02
3.39
1.42
-1.36
-5.01
-9.22
-13.42
-17.09
-20.02
-22.41
-24.82
-27.90
-32.17
-37.71
-44.11
-50.46
-55.55
-58.14
-57.25
-52.41
-43.87
-32.45
-19.48
-6.47
5.24
14.65
21.23
24.95
26.18
25.53
23.65
21.20
18.75
16.79
15.74
15.92
17.46
20.16
23.49
26.67
28.97
30.01
29.82
28.85
27.57
26.23
24.74
22.76
20.09
16.74
13.08
9.55
6.44
3.70
0.92
-2.31
-6.20
-10.56
-14.88
-18.62
-21.54
-23.93
-26.56
-30.36
-35.84
-42.71
-49.75
-55.08
-56.86
-53.92
-46.32
-35.25
-22.58
-10.14
0.84
9.88
17.01
22.41
26.11
28.00
28.09
26.72
24.58
22.54
21.33
21.29
22.33
23.97
25.73
27.22
28.31
29.09
29.67
30.19
30.55
30.49
29.65
27.75
24.75
20.94
16.83
12.93
9.55
6.60
3.73
0.46
-3.54
-8.29
-13.51
-18.70
-23.37
-27.18
-30.15
-32.62
-35.22
-38.60
-43.16
-48.82
-54.83
-59.96
-62.76
-61.99
-57.05
-48.09
-36.06
-22.38
-8.65
3.73
13.76
20.91
25.15
26.78
26.35
24.56
22.11
19.66
17.70
16.58
16.45
17.32
19.10
21.65
24.79
28.21
31.47
34.00
35.21
34.65
32.21
28.16
23.09
17.65
12.37
7.54
3.17
-0.92
-4.89
-8.79
-12.58
-16.18
-19.51
-22.61
-25.60
-28.70
-32.19
-36.39
-41.54
-47.70
-54.51
-61.06
-66.01
-67.83
-65.43
-58.45
-47.52
-34.11
-19.99
-6.80
4.35
12.97
19.07
22.96
25.07
25.90
25.94
25.67
25.47
25.58
26.09
26.99
28.25
29.79
31.50
33.16
34.38
34.75
33.97
31.99
29.00
25.33
21.28
16.96
12.30
7.20
1.68
-4.08
-9.82
-15.45
-21.01
-26.72
-32.72
-38.98
-45.27
-51.41
-57.62
-64.49
-72.79
-82.88
-94.34
-105.74
-115.09
-120.57
-121.24
-117.43
-110.61
-102.81
-95.97
-91.49
-90.04
-91.61
-95.94
-102.52
-110.79
-120.05
-129.39
-137.63
-143.39
-145.28
-142.26
-133.67
-119.32
-99.43
-74.38
-44.71
-11.32
24.41
60.34
93.93
122.79
145.30
161.09
170.96
176.26
178.16
177.03
172.65
164.74
153.58
140.33
126.66
113.91
102.53
91.64
79.85
66.02
50.09
33.22
17.13
3.40
-7.13
-14.59
-19.44
-22.04
-22.36
-20.18
-15.54
-9.14
-2.18
3.80
7.54
8.43
6.55
2.52
-2.91
-9.05
-15.30
-21.22
-26.35
-30.26
-32.60
-33.27
-32.56
-31.10
-29.62
-28.78
-28.89
-29.89
-31.39
-32.89
-34.01
-34.59
-34.75
-34.81
-35.01
-35.44
-35.90
-35.95
-34.96
-32.42
-28.01
-21.88
-14.68
-7.43
-1.33
2.67
4.26
3.97
3.17
3.60
6.84
13.74
24.26
37.56
52.45
67.79
82.66
96.37
108.36
118.21
125.72
131.02
134.57
137.06
139.15
141.22
143.40
145.50
147.29
148.54
149.15
149.10
148.43
147.14
145.13
142.19
137.95
132.02
124.14
114.25
102.60
89.74
76.36
63.14
50.65
39.22
28.93
19.59
10.89
2.43
-6.22
-15.39
-25.22
-35.49
-45.45
-53.96
-59.63
-61.41
-58.90
-52.62
-43.84
-34.16
-24.96
-17.11
-10.82
-5.91
-2.08
0.82
2.72
3.41
2.83
1.18
-1.08
-3.33
-5.07
-6.04
-6.37
-6.31
-6.21
-6.27
-6.55
-7.05
-7.84
-9.15
-11.30
-14.57
-18.97
-24.19
-29.61
-34.53
-38.44
-41.17
-42.98
-44.41
-46.12
-48.65
-52.29
-57.01
-62.44
-67.82
-72.03
-73.80
-71.98
-65.95
-55.89
-42.83
-28.39
-14.29
-1.99
7.68
14.47
18.63
20.66
21.16
20.68
19.68
18.54
17.53
16.89
16.72
17.11
17.97
19.13
20.31
21.20
21.65
21.66
21.34
20.84
20.20
19.22
17.61
15.09
11.60
7.37
2.95
-1.09
-4.43
-7.16
-9.80
-13.10
-17.71
-23.87
-31.18
-38.62
-44.77
-48.22
-47.96
-43.74
-36.12
-26.31
-15.77
-5.83
2.60
9.17
13.85
16.82
18.28
18.45
17.66
16.34
15.09
14.39
14.51
15.36
16.63
17.84
18.70
19.11
19.17
19.01
18.67
18.00
16.76
14.75
11.97
8.59
4.93
1.24
-2.31
-5.73
-9.06
-12.35
-15.57
-18.77
-22.08
-25.82
-30.30
-35.53
-40.96
-45.45
-47.63
-46.34
-41.22
-32.82
-22.41
-11.49
-1.27
7.56
14.83
20.60
24.92
27.74
28.97
28.68
27.20
25.10
23.07
21.60
20.97
21.09
21.61
22.13
22.37
22.26
21.92
21.40
20.65
19.45
17.50
14.65
11.01
6.89
2.70
-1.25
-4.87
-8.21
-11.40
-14.54
-17.65
-20.83
-24.28
-28.34
-33.26
-38.88
-44.48
-48.76
-50.25
-47.89
-41.46
-31.89
-20.83
-10.11
-1.10
5.69
10.52
13.95
16.46
18.12
18.67
17.92
16.02
13.58
11.55
10.74
11.53
13.65
16.37
18.82
20.40
20.93
20.70
20.12
19.57
19.07
18.34
16.95
14.50
10.90
6.40
1.54
-3.05
-6.89
-9.83
-12.05
-14.03
-16.29
-19.18
-22.87
-27.21
-31.87
-36.34
-39.94
-41.93
-41.58
-38.35
-32.16
-23.47
-13.26
-2.77
6.77
14.47
19.84
22.85
23.77
23.00
21.08
18.54
15.91
13.59
11.88
10.87
10.52
10.67
11.17
11.88
12.70
13.46
14.00
14.18
13.85
12.96
11.49
9.45
6.87
3.75
0.12
-3.80
-7.69
-11.18
-13.95
-15.96
-17.44
-18.92
-21.04
-24.32
-28.85
-34.27
-39.66
-43.85
-45.69
-44.45
-40.00
-32.83
-23.89
-14.29
-5.09
2.92
9.25
13.71
16.36
17.40
17.15
16.00
14.37
12.66
11.21
10.32
10.13
10.65
11.75
13.18
14.65
15.89
16.69
16.93
16.57
15.61
14.15
12.26
10.07
7.64
4.99
2.11
-0.98
-4.14
-7.18
-9.79
-11.84
-13.41
-14.92
-16.93
-20.00
-24.38
-29.87
-35.83
-41.27
-45.14
-46.57
-45.05
-40.59
-33.64
-24.98
-15.50
-6.12
2.43
9.56
14.77
17.79
18.64
17.66
15.50
12.83
10.22
8.05
6.49
5.70
5.85
7.09
9.36
12.18
14.79
16.43
16.66
15.59
13.82
12.07
10.81
9.97
9.07
7.47
4.86
1.38
-2.45
-6.03
-8.96
-11.39
-13.71
-16.36
-19.55
-23.09
-26.61
-29.85
-32.85
-36.00
-39.62
-43.55
-46.94
-48.38
-46.46
-40.48
-30.77
-18.83
-6.66
3.87
11.66
16.58
19.15
20.14
20.15
19.41
17.95
15.79
13.19
10.65
8.75
7.87
8.16
9.37
11.08
12.88
14.43
15.59
16.33
16.70
16.72
16.34
15.48
14.00
11.80
8.91
5.48
1.79
-1.82
-5.11
-7.95
-10.41
-12.69
-15.04
-17.60
-20.47
-23.59
-26.97
-30.69
-34.91
-39.74
-44.96
-49.86
-53.30
-53.95
-50.87
-43.87
-33.69
-21.87
-10.17
-0.06
7.67
12.95
16.16
17.89
18.56
18.46
17.77
16.69
15.57
14.86
14.95
16.10
18.26
21.07
23.99
26.40
27.84
28.16
27.44
25.94
23.94
21.65
19.12
16.36
13.41
10.41
7.54
4.89
2.36
-0.31
-3.34
-6.81
-10.46
-13.87
-16.74
-19.11
-21.43
-24.38
-28.56
-34.06
-40.35
-46.27
-50.41
-51.54
-48.99
-42.87
-33.99
-23.56
-12.84
-2.82
5.86
12.88
18.10
21.47
23.04
23.02
21.85
20.19
18.70
17.93
18.10
19.15
20.81
22.72
24.52
26.01
27.05
27.58
27.55
26.88
25.49
23.31
20.45
17.16
13.83
10.78
8.16
5.87
3.64
1.20
-1.54
-4.40
-7.10
-9.38
-11.18
-12.69
-14.19
-16.05
-18.51
-21.64
-25.32
-29.21
-32.71
-35.08
-35.49
-33.36
-28.50
-21.26
-12.43
-3.09
5.67
12.95
18.19
21.09
21.71
20.37
17.61
14.07
10.42
7.20
4.83
3.54
3.38
4.33
6.19
8.60
11.15
13.32
14.69
15.02
14.27
12.59
10.25
7.52
4.62
1.71
-1.15
-3.95
-6.75
-9.64
-12.71
-16.03
-19.69
-23.76
-28.21
-32.96
-37.74
-42.24
-46.16
-49.46
-52.41
-55.57
-59.54
-64.54
-70.23
-75.55
-79.01
-79.14
-75.06
-66.72
-54.98
-41.27
-27.19
-14.07
-2.81
6.19
12.83
17.21
19.52
20.07
19.30
17.84
16.35
15.34
15.00
15.25
15.77
16.35
16.90
17.56
18.48
19.62
20.70
21.24
20.81
19.27
16.86
14.06
11.41
9.18
7.26
5.28
2.81
-0.33
-3.96
-7.60
-10.70
-12.88
-14.09
-14.60
-14.85
-15.31
-16.34
-18.07
-20.44
-23.03
-25.16
-25.85
-24.13
-19.20
-10.88
0.34
13.35
26.69
38.97
49.14
56.71
61.64
64.21
64.75
63.52
60.76
56.78
52.11
47.41
43.39
40.48
38.65
37.44
36.25
34.65
32.58
30.34
28.33
26.72
25.22
23.23
20.20
15.87
10.52
4.81
-0.52
-5.08
-8.94
-12.47
-16.08
-19.88
-23.74
-27.43
-30.97
-34.75
-39.41
-45.40
-52.45
-59.47
-64.69
-66.36
-63.34
-55.59
-44.19
-30.87
-17.45
-5.28
4.90
12.86
18.63
22.29
23.84
23.34
21.11
17.75
14.16
11.24
9.64
9.59
10.82
12.78
14.82
16.49
17.58
18.11
18.18
17.88
17.15
15.83
13.66
10.52
6.41
1.63
-3.36
-8.00
-11.85
-14.77
-16.96
-18.92
-21.34
-24.83
-29.76
-36.04
-43.08
-49.80
-54.86
-57.00
-55.37
-49.78
-40.79
-29.53
-17.34
-5.52
4.98
13.50
19.74
23.61
25.23
24.87
23.07
20.51
17.93
16.00
15.07
15.21
16.22
17.76
19.49
21.18
22.72
24.04
25.04
25.48
25.07
23.52
20.66
16.58
11.62
6.23
0.88
-4.06
-8.43
-12.24
-15.71
-19.17
-23.02
-27.64
-33.25
-39.71
-46.43
-52.31
-55.93
-55.94
-51.52
-42.56
-29.95
-15.23
-0.26
13.30
24.31
32.35
37.52
40.19
40.79
39.64
37.04
33.44
29.46
25.84
23.23
21.94
21.81
22.39
23.14
23.77
24.19
24.49
24.64
24.39
23.27
20.88
17.06
12.03
6.29
0.43
-5.14
-10.23
-14.86
-19.22
-23.62
-28.43
-34.01
-40.47
-47.49
-54.16
-59.16
-61.04
-58.75
-52.01
-41.42
-28.32
-14.38
-1.18
10.07
18.70
24.45
27.46
28.05
26.72
24.12
20.94
17.91
15.67
14.66
14.96
16.33
18.28
20.32
22.12
23.59
24.81
25.75
26.19
25.56
23.26
18.97
12.94
5.97
-0.88
-6.71
-11.24
-14.89
-18.50
-22.90
-28.49
-35.05
-41.85
-47.85
-52.07
-53.80
-52.63
-48.35
-40.98
-30.74
-18.21
-4.34
9.59
22.15
32.12
38.78
42.07
42.52
40.99
38.40
35.60
33.15
31.47
30.84
31.33
32.85
35.06
37.47
39.57
40.90
41.20
40.42
38.61
35.92
32.43
28.23
23.50
18.43
13.26
8.26
3.65
-0.45
-4.06
-7.36
-10.66
-14.30
-18.65
-23.87
-29.72
-35.50
-40.11
-42.28
-40.93
-35.60
-26.61
-15.03
-2.34
9.94
20.59
28.90
34.63
37.82
38.68
37.44
34.46
30.27
25.66
21.57
18.91
18.22
19.51
22.26
25.53
28.42
30.27
30.89
30.47
29.31
27.66
25.48
22.56
18.70
13.85
8.30
2.61
-2.63
-6.99
-10.35
-12.98
-15.38
-18.13
-21.63
-26.01
-31.05
-36.22
-40.75
-43.74
-44.28
-41.71
-35.69
-26.45
-14.78
-1.93
10.65
21.57
29.83
34.93
36.91
36.25
33.71
30.11
26.26
22.82
20.29
18.94
18.83
19.78
21.41
23.18
24.56
25.10
24.60
23.13
20.94
18.33
15.48
12.44
9.16
5.59
1.84
-1.88
-5.20
-7.83
-9.65
-10.82
-11.79
-13.17
-15.61
-19.60
-25.31
-32.37
-39.92
-46.63
-50.97
-51.63
-47.82
-39.62
-27.87
-14.00
0.40
13.89
25.47
34.55
40.88
44.43
45.41
44.29
41.79
38.82
36.32
34.91
34.90
36.06
37.87
39.71
41.07
41.66
41.36
40.15
38.09
35.26
31.84
28.10
24.31
20.64
17.04
13.22
8.87
3.83
-1.78
-7.56
-13.05
-17.91
-22.15
-26.05
-30.03
-34.48
-39.63
-45.40
-51.45
-57.13
-61.53
-63.65
-62.62
-57.97
-49.80
-38.82
-26.22
-13.39
-1.66
7.90
14.68
18.53
19.72
18.86
16.62
13.72
10.72
8.06
6.16
5.34
5.88
7.84
10.97
14.71
18.23
20.75
21.80
21.31
19.61
17.29
14.86
12.61
10.50
8.29
5.78
2.94
-0.04
-2.79
-5.01
-6.54
-7.50
-8.15
-8.81
-9.74
-11.19
-13.38
-16.46
-20.45
-25.03
-29.41
-32.42
-32.73
-29.37
-22.07
-11.52
0.85
13.24
24.07
32.35
37.74
40.39
40.74
39.22
36.27
32.30
27.85
23.57
20.19
18.35
18.38
20.26
23.51
27.33
30.83
33.25
34.12
33.39
31.25
28.09
24.27
20.14
15.94
11.87
8.02
4.38
0.77
-3.06
-7.30
-11.85
-16.31
-20.04
-22.51
-23.61
-23.96
-24.59
-26.62
-30.64
-36.29
-42.29
-46.94
-48.68
-46.87
-41.83
-34.57
-26.31
-18.00
-10.18
-3.13
2.85
7.28
9.68
9.92
8.57
6.77
6.02
7.41
11.31
17.25
24.19
31.06
37.16
42.28
46.54
50.10
52.91
54.71
55.19
54.21
51.97
49.00
45.95
43.36
41.63
40.94
41.33
42.74
45.08
48.12
51.63
55.30
58.92
62.37
65.58
68.36
70.17
70.13
67.40
61.56
53.08
43.55
35.29
30.65
31.21
37.26
47.87
61.23
75.50
89.21
101.38
111.26
118.07
121.07
119.80
114.41
105.96
96.14
86.84
79.50
74.68
72.05
70.72
69.62
67.90
65.15
61.37
56.86
52.09
47.43
43.21
39.48
36.21
33.22
30.29
27.26
24.05
20.60
16.87
12.63
7.49
0.90
-7.72
-18.93
-33.21
-50.81
-71.52
-94.46
-118.12
-140.71
-160.62
-177.01
-189.81
-199.34
-205.79
-209.00
-208.81
-205.75
-201.36
-197.81
-196.77
-198.28
-200.27
-199.23
-191.67
-175.59
-151.08
-120.04
-85.31
-50.10
-17.83
7.57
21.96
21.99
7.00
-19.67
-50.66
-76.37
-88.07
-80.81
-54.91
-15.35
30.49
75.43
114.18
143.79
162.93
171.21
168.94
157.43
139.35
118.58
99.17
83.96
73.54
66.14
58.52
47.52
31.61
11.56
-9.90
-29.14
-43.02
-50.01
-50.50
-46.52
-40.69
-35.24
-31.38
-29.14
-27.83
-26.72
-25.43
-24.14
-23.12
-22.27
-21.01
-18.40
-13.76
-7.10
0.70
8.12
13.67
16.44
16.38
14.31
11.49
9.15
7.98
7.85
8.04
7.58
5.70
2.18
-2.73
-8.54
-14.86
-21.78
-29.63
-38.60
-48.31
-57.71
-65.35
-69.99
-71.17
-69.68
-67.14
-65.35
-65.51
-67.70
-70.80
-73.25
-73.69
-71.89
-68.68
-65.58
-64.05
-64.93
-68.32
-73.80
-80.80
-88.98
-98.24
-108.57
-119.92
-132.12
-145.00
-158.40
-172.02
-185.59
-198.76
-211.46
-223.95
-236.96
-251.55
-269.01
-290.54
-317.07
-348.66
-383.70
-418.58
-448.01
-466.36
-469.60
-456.80
-430.66
-396.28
-359.25
-323.69
-291.45
-262.52
-236.19
-212.05
-190.23
-171.08
-154.43
-139.52
-125.17
-110.47
-95.14
-79.66
-64.95
-51.84
-40.71
-31.27
-22.80
-14.43
-5.63
3.74
13.36
22.69
31.25
38.80
45.41
51.32
56.79
62.05
67.21
72.37
77.63
83.10
88.84
94.85
100.95
106.91
112.60
118.12
123.91
130.59
138.77
148.73
160.32
173.04
186.18
199.17
211.84
224.39
237.40
251.77
268.61
289.08
313.69
341.62
370.15
394.89
410.86
414.18
403.52
380.57
349.40
314.80
280.82
249.92
223.08
200.42
182.00
167.91
158.06
151.82
147.92
144.77
140.98
135.75
128.99
121.17
112.90
104.56
96.20
87.61
78.59
69.23
59.88
51.16
43.62
37.54
32.81
29.06
25.89
22.96
20.19
17.68
15.61
14.11
13.20
12.72
12.48
12.21
11.78
11.19
10.52
9.82
9.04
7.87
5.91
2.76
-1.77
-7.45
-13.85
-20.41
-26.69
-32.52
-37.95
-43.21
-48.35
-53.24
-57.48
-60.57
-62.12
-61.98
-60.20
-57.02
-52.75
-47.61
-41.84
-35.75
-29.81
-24.61
-20.68
-18.28
-17.22
-16.88
-16.47
-15.33
-13.26
-10.57
-7.85
-5.73
-4.53
-4.10
-3.94
-3.49
-2.41
-0.79
0.99
2.36
2.97
2.72
1.85
0.64
-0.73
-2.31
-4.32
-6.98
-10.29
-14.00
-17.71
-21.07
-23.96
-26.50
-28.91
-31.28
-33.40
-34.84
-35.18
-34.25
-32.29
-29.85
-27.52
-25.59
-23.87
-21.79
-18.67
-14.04
-7.89
-0.56
7.40
15.54
23.66
31.79
39.94
47.90
55.22
61.39
66.12
69.57
72.24
74.68
77.07
78.99
79.72
78.62
75.60
71.14
65.98
60.65
55.17
49.14
42.15
34.13
25.36
16.23
6.92
-2.77
-13.17
-24.28
-35.43
-45.34
-52.43
-55.49
-54.03
-48.33
-39.16
-27.54
-14.43
-0.81
12.32
23.92
33.16
39.68
43.91
47.05
50.63
55.97
63.55
72.75
82.32
90.86
97.76
103.54
109.75
118.16
130.05
145.35
162.38
178.00
188.28
189.39
178.55
154.97
120.33
78.50
34.42
-7.55
-44.66
-76.21
-102.60
-124.05
-139.54
-146.90
-143.82
-129.44
-105.24
-74.76
-42.51
-12.41
13.11
33.15
47.73
57.02
61.29
61.14
57.94
53.73
50.79
50.61
53.45
58.13
62.91
66.21
67.27
66.10
63.07
58.28
51.81
43.90
35.34
27.50
21.72
18.59
17.71
17.71
17.10
14.84
10.65
4.75
-2.55
-11.10
-20.81
-31.47
-42.37
-52.45
-60.66
-66.45
-70.14
-72.91
-76.20
-81.43
-89.06
-98.26
-107.09
-113.07
-114.15
-109.50
-99.57
-86.01
-70.82
-55.61
-41.51
-29.12
-18.69
-10.32
-3.54
2.54
9.14
17.35
27.46
38.70
49.43
57.69
62.11
62.30
59.03
53.94
48.93
45.49
44.28
44.99
46.90
49.34
52.13
55.39
58.92
61.45
60.59
53.52
38.48
15.70
-12.27
-41.39
-67.82
-89.33
-105.77
-118.68
-130.03
-141.24
-152.73
-164.00
-174.28
-182.93
-189.57
-194.05
-196.25
-196.03
-193.39
-188.54
-181.97
-174.27
-165.98
-157.22
-147.78
-137.17
-124.89
-110.81
-95.28
-79.06
-62.91
-47.09
-31.04
-13.62
6.28
28.72
52.10
73.41
89.39
97.94
99.01
94.30
85.97
75.51
63.16
48.37
31.10
12.51
-5.00
-18.76
-26.97
-29.61
-28.20
-24.88
-21.36
-18.07
-14.03
-7.52
3.10
18.43
37.57
58.22
77.34
92.22
101.29
104.64
103.73
100.50
96.73
93.37
90.51
87.84
85.15
82.56
80.33
78.21
75.40
70.61
62.80
51.97
39.45
27.54
18.45
13.15
11.08
10.46
9.35
6.65
2.46
-2.29
-6.55
-9.99
-13.01
-16.27
-20.17
-24.41
-28.07
-30.28
-30.70
-30.12
-29.90
-31.26
-34.55
-38.88
-42.56
-44.08
-42.85
-39.90
-37.02
-35.97
-37.38
-40.48
-43.56
-45.01
-44.07
-41.41
-38.35
-36.09
-34.99
-34.50
-33.55
-31.37
-27.77
-23.51
-19.62
-16.91
-15.54
-15.06
-14.72
-13.99
-12.77
-11.57
-11.02
-11.56
-13.14
-15.28
-17.36
-18.84
-19.53
-19.63
-19.49
-19.48
-19.84
-20.74
-22.36
-24.94
-28.58
-33.22
-38.49
-43.63
-47.82
-50.37
-50.97
-49.77
-47.29
-44.23
-41.33
-39.31
-38.84
-40.50
-44.50
-50.36
-56.73
-61.89
-64.32
-63.69
-61.09
-58.77
-59.07
-63.37
-71.40
-81.60
-92.02
-101.48
-110.21
-119.58
-131.12
-145.50
-161.80
-177.69
-190.41
-197.83
-199.28
-195.39
-187.34
-175.60
-159.46
-137.51
-108.95
-74.78
-38.07
-2.89
27.27
51.03
69.22
84.05
97.50
110.30
121.78
130.66
136.09
138.13
137.77
136.14
133.99
131.43
128.07
123.41
117.11
109.21
100.10
90.46
81.04
72.54
65.39
59.72
55.25
51.45
47.78
43.94
40.03
36.44
33.65
31.76
30.31
28.28
24.71
19.08
11.83
4.27
-1.86
-4.99
-4.39
-0.44
5.53
11.68
16.26
18.14
16.94
13.09
7.54
1.47
-3.86
-7.42
-8.63
-7.55
-4.95
-1.98
0.21
1.01
0.63
-0.22
-0.76
-0.73
-0.53
-0.78
-1.89
-3.60
-5.12
-5.74
-5.37
-4.76
-5.22
-7.80
-12.76
-19.32
-26.00
-31.43
-34.88
-36.52
-37.31
-38.35
-40.62
-44.56
-50.10
-56.80
-63.87
-70.39
-75.34
-77.79
-77.02
-72.83
-65.52
-55.99
-45.50
-35.40
-26.83
-20.37
-16.07
-13.55
-12.24
-11.62
-11.33
-11.07
-10.60
-9.58
-7.60
-4.49
-0.34
4.36
8.89
12.50
14.74
15.55
15.31
14.68
14.38
14.85
16.04
17.44
18.23
17.70
15.48
11.72
6.90
1.61
-3.71
-8.85
-13.68
-18.14
-22.19
-25.89
-29.37
-32.84
-36.38
-39.74
-42.33
-43.29
-41.76
-37.12
-29.24
-18.53
-5.89
7.52
20.50
32.13
41.81
49.28
54.41
57.15
57.40
55.20
50.90
45.26
39.39
34.56
31.83
31.82
34.54
39.42
45.52
51.79
57.28
61.30
63.39
63.41
61.40
57.54
52.19
45.88
39.18
32.59
26.32
20.30
14.35
8.39
2.61
-2.60
-6.91
-10.41
-13.77
-17.95
-23.68
-30.91
-38.56
-44.77
-47.61
-45.82
-39.40
-29.45
-17.72
-5.91
4.88
14.28
22.31
29.09
34.28
37.36
37.85
35.74
31.76
27.15
23.24
20.92
20.28
20.78
21.67
22.49
23.31
24.57
26.67
29.60
32.59
34.61
34.72
32.63
28.81
24.24
19.86
16.20
13.12
10.10
6.68
2.76
-1.32
-5.10
-8.39
-11.47
-15.04
-19.70
-25.51
-31.67
-36.68
-38.83
-36.84
-30.23
-19.60
-6.34
7.82
21.24
32.70
41.53
47.56
50.97
52.09
51.32
49.08
45.90
42.40
39.32
37.33
36.86
37.95
40.23
43.00
45.53
47.28
48.01
47.76
46.74
45.21
43.27
40.87
37.82
33.90
29.10
23.59
17.80
12.23
7.19
2.61
-1.97
-7.26
-13.83
-21.85
-30.94
-40.14
-48.18
-53.80
-56.01
-54.34
-48.82
-40.02
-28.86
-16.45
-3.93
7.69
17.58
25.14
30.12
32.56
32.80
31.45
29.26
26.97
25.22
24.44
24.82
26.33
28.80
31.90
35.25
38.41
40.97
42.57
42.94
41.96
39.66
36.20
31.90
27.10
22.14
17.26
12.61
8.26
4.25
0.67
-2.45
-5.21
-7.97
-11.27
-15.68
-21.44
-28.19
-34.85
-39.89
-41.84
-39.81
-33.79
-24.65
-13.69
-2.21
8.79
18.66
26.93
33.14
36.87
37.89
36.48
33.48
30.09
27.45
26.22
26.42
27.57
29.08
30.57
32.10
33.76
35.60
37.27
38.17
37.77
35.95
33.08
29.77
26.34
22.63
18.18
12.56
5.94
-0.84
-6.64
-10.55
-12.54
-13.45
-14.73
-17.78
-23.25
-30.75
-38.94
-45.91
-50.02
-50.29
-46.69
-39.95
-31.07
-20.89
-10.03
1.11
11.51
19.93
25.11
26.49
24.80
21.89
19.89
20.23
22.71
25.94
28.21
28.57
27.44
26.18
26.20
27.98
30.50
32.09
31.34
28.01
23.27
18.91
16.37
15.83
15.96
14.88
11.29
5.36
-1.29
-6.47
-8.71
-8.04
-6.32
-6.09
-9.27
-16.07
-24.86
-32.92
-37.60
-37.28
-32.00
-22.99
-11.93
-0.23
11.32
22.52
33.37
43.81
53.32
61.24
66.91
70.01
70.74
69.68
67.66
65.53
63.88
62.98
62.81
63.11
63.53
63.83
63.99
64.29
65.09
66.60
68.63
70.56
71.62
71.22
69.24
66.04
62.30
58.54
54.91
51.14
46.80
41.56
35.48
29.00
22.75
17.25
12.68
8.90
5.68
3.02
1.40
1.75
5.02
11.67
21.26
32.40
43.16
51.77
57.24
59.63
59.77
58.79
57.52
56.24
54.72
52.63
49.84
46.55
43.13
39.91
36.90
33.85
30.39
26.29
21.59
16.60
11.58
6.53
1.00
-5.88
-14.96
-26.68
-40.75
-56.04
-71.13
-84.84
-96.81
-107.62
-118.43
-130.28
-143.46
-157.23
-169.98
-179.85
-185.35
-185.78
-181.36
-172.85
-161.23
-147.26
-131.51
-114.55
-97.21
-80.68
-66.22
-54.89
-46.95
-41.83
-38.38
-35.41
-32.13
-28.39
-24.47
-20.76
-17.54
-14.76
-12.31
-10.03
-7.96
-6.21
-4.95
-4.25
-4.04
-4.12
-4.26
-4.33
-4.38
-4.65
-5.42
-6.85
-8.83
-10.96
-12.74
-13.84
-14.30
-14.63
-15.52
-17.61
-21.12
-25.62
-30.12
-33.31
-33.93
-31.19
-24.93
-15.76
-4.80
6.66
17.45
26.74
34.03
39.06
41.71
42.00
40.16
36.70
32.32
27.81
23.78
20.47
17.86
15.73
13.95
12.61
12.02
12.59
14.60
18.03
22.61
27.86
33.27
38.49
43.33
47.77
51.94
55.98
60.06
64.29
68.80
73.61
78.63
83.61
88.27
92.47
96.54
101.27
107.83
117.31
130.07
145.30
161.13
175.09
184.99
189.70
189.59
186.37
182.51
180.35
181.42
185.87
192.48
198.86
202.06
199.45
189.31
171.31
146.47
116.86
84.96
53.23
23.74
-2.01
-23.16
-39.58
-51.94
-61.50
-69.85
-78.39
-87.95
-98.52
-109.50
-120.01
-129.41
-137.46
-144.40
-150.66
-156.55
-162.12
-167.08
-170.96
-173.21
-173.40
-171.31
-166.99
-160.76
-153.22
-145.20
-137.52
-130.89
-125.70
-121.98
-119.53
-117.95
-116.92
-116.14
-115.42
-114.62
-113.67
-112.40
-110.73
-108.59
-106.01
-103.12
-100.00
-96.70
-93.10
-89.05
-84.44
-79.44
-74.58
-70.60
-68.12
-67.31
-67.75
-68.62
-69.16
-69.05
-68.66
-68.79
-70.23
-73.44
-78.23
-83.90
-89.47
-93.77
-95.71
-94.19
-88.25
-77.37
-61.68
-42.23
-20.88
0.11
18.57
33.06
43.16
49.37
52.87
54.88
56.27
57.43
58.27
58.55
58.24
57.57
56.95
56.83
57.38
58.58
60.14
61.77
63.20
64.18
64.53
64.07
62.64
60.28
57.09
53.29
49.12
44.66
39.91
34.86
29.55
24.22
19.22
14.87
11.22
8.01
4.59
0.29
-5.38
-12.31
-19.70
-26.18
-30.14
-30.22
-25.74
-16.86
-4.53
9.79
24.45
37.95
49.10
57.05
61.42
62.31
60.26
56.23
51.29
46.40
42.22
38.95
36.46
34.48
32.85
31.50
30.52
29.94
29.64
29.38
28.82
27.71
25.99
23.77
21.24
18.58
15.84
12.93
9.73
6.18
2.36
-1.54
-5.28
-8.73
-11.92
-14.99
-18.19
-21.73
-25.75
-30.27
-35.15
-40.10
-44.54
-47.65
-48.43
-45.97
-39.79
-30.00
-17.40
-3.24
11.06
24.25
35.41
43.98
49.67
52.47
52.62
50.55
46.99
42.78
38.81
35.82
34.35
34.58
36.35
39.21
42.52
45.60
47.89
49.10
49.18
48.29
46.60
44.19
41.04
37.05
32.18
26.54
20.43
14.32
8.65
3.65
-0.73
-4.92
-9.56
-15.34
-22.69
-31.54
-41.23
-50.53
-57.91
-61.94
-61.58
-56.51
-47.20
-34.77
-20.87
-7.23
4.73
14.10
20.65
24.58
26.32
26.28
24.76
22.04
18.55
14.94
11.96
10.21
9.90
10.73
11.91
12.56
12.01
10.08
7.08
3.62
0.26
-2.75
-5.76
-9.33
-13.98
-19.80
-26.24
-32.38
-37.32
-40.68
-42.92
-45.08
-48.28
-53.23
-59.94
-67.81
-75.93
-83.30
-89.19
-92.86
-93.53
-90.37
-82.69
-70.38
-54.28
-36.12
-18.33
-3.13
8.08
15.13
18.88
20.64
21.47
21.80
21.42
19.95
17.43
14.43
12.00
11.06
12.01
14.48
17.45
19.72
20.42
19.23
16.44
12.68
8.64
4.81
1.34
-1.85
-5.01
-8.36
-12.02
-15.94
-19.92
-23.67
-26.98
-29.76
-32.20
-34.74
-37.94
-42.33
-48.10
-54.91
-61.84
-67.52
-70.47
-69.45
-63.83
-53.73
-40.10
-24.44
-8.46
6.27
18.58
27.83
33.81
36.70
36.89
35.05
32.00
28.68
25.93
24.36
24.14
25.13
26.95
29.25
31.78
34.32
36.67
38.49
39.45
39.32
38.10
36.07
33.59
30.90
28.06
24.93
21.40
17.55
13.65
10.16
7.38
5.35
3.75
2.11
-0.16
-3.47
-8.03
-13.71
-20.07
-26.33
-31.36
-33.90
-32.91
-27.84
-18.89
-7.05
6.20
19.19
30.54
39.36
45.26
48.25
48.52
46.39
42.25
36.65
30.35
24.20
19.08
15.59
13.95
14.00
15.25
17.05
18.77
19.88
20.01
19.00
16.90
14.01
10.69
7.28
3.95
0.65
-2.78
-6.50
-10.52
-14.62
-18.43
-21.60
-23.96
-25.61
-26.86
-28.16
-29.96
-32.56
-35.99
-39.96
-43.86
-46.76
-47.59
-45.43
-39.74
-30.54
-18.55
-4.95
8.76
21.15
31.14
38.09
41.89
42.87
41.65
38.89
35.29
31.37
27.60
24.40
22.21
21.38
22.06
24.03
26.72
29.35
31.19
31.80
31.13
29.47
27.17
24.49
21.41
17.75
13.30
8.07
2.35
-3.33
-8.43
-12.63
-15.94
-18.73
-21.45
-24.53
-28.22
-32.55
-37.43
-42.65
-47.81
-52.22
-54.89
-54.79
-51.12
-43.66
-32.92
-20.10
-6.69
5.89
16.56
24.71
30.16
32.99
33.47
31.97
28.98
25.13
21.17
17.94
16.14
16.23
18.27
21.84
26.24
30.59
34.15
36.42
37.24
36.78
35.28
32.99
30.01
26.30
21.79
16.55
10.82
5.05
-0.29
-4.83
-8.48
-11.50
-14.36
-17.62
-21.63
-26.52
-32.02
-37.59
-42.49
-45.87
-46.94
-45.09
-40.04
-31.95
-21.43
-9.61
2.17
12.50
20.26
24.73
25.72
23.45
18.39
11.20
2.68
-6.19
-14.30
-20.58
-24.25
-25.13
-23.68
-20.93
-18.02
-15.78
-14.53
-14.05
-13.84
-13.58
-13.27
-13.26
-14.11
-16.16
-19.40
-23.41
-27.59
-31.47
-34.81
-37.69
-40.38
-43.06
-45.74
-48.26
-50.31
-51.57
-51.68
-50.18
-46.50
-40.08
-30.61
-18.38
-4.39
9.74
22.22
31.68
37.49
39.86
39.54
37.41
34.11
29.94
25.16
20.17
15.68
12.49
11.21
11.82
13.71
15.89
17.45
17.92
17.41
16.31
15.00
13.53
11.69
9.14
5.76
1.72
-2.49
-6.39
-9.68
-12.43
-15.00
-17.84
-21.42
-25.98
-31.49
-37.51
-43.14
-47.19
-48.37
-45.69
-38.83
-28.32
-15.38
-1.68
11.23
22.15
30.45
35.93
38.72
39.02
37.07
33.23
28.06
22.34
17.05
13.10
11.06
10.96
12.29
14.21
15.95
17.01
17.34
17.13
16.58
15.67
14.13
11.57
7.79
2.94
-2.49
-7.83
-12.54
-16.41
-19.67
-22.87
-26.63
-31.37
-37.01
-42.87
-47.86
-50.67
-50.25
-46.10
-38.37
-27.81
-15.55
-2.86
9.09
19.31
27.09
31.96
33.78
32.76
29.48
24.74
19.50
14.63
10.79
8.32
7.27
7.43
8.49
10.15
12.07
13.97
15.52
16.35
16.18
14.77
12.13
8.50
4.21
-0.31
-4.75
-8.94
-12.83
-16.50
-20.09
-23.86
-28.04
-32.84
-38.20
-43.67
-48.33
-50.96
-50.33
-45.70
-37.12
-25.48
-12.31
0.70
12.16
21.21
27.62
31.48
32.99
32.39
29.98
26.23
21.96
18.15
15.71
15.21
16.58
19.19
22.12
24.53
25.92
26.28
25.95
25.19
24.18
22.70
20.38
16.89
12.26
6.93
1.63
-3.02
-6.78
-9.89
-12.90
-16.41
-20.71
-25.71
-30.98
-35.92
-39.84
-41.95
-41.47
-37.63
-30.10
-19.16
-5.93
7.76
19.95
29.09
34.46
36.32
35.54
33.15
30.01
26.41
22.49
18.45
14.82
12.45
12.08
13.85
17.16
20.60
22.74
22.67
20.47
17.08
13.78
11.44
10.15
9.20
7.60
4.72
0.64
-3.89
-7.94
-10.84
-12.57
-13.81
-15.48
-18.45
-23.13
-29.28
-36.14
-42.56
-47.24
-49.04
-47.18
-41.42
-32.23
-20.68
-8.18
3.87
14.37
22.62
28.30
31.37
31.96
30.35
27.01
22.68
18.29
14.82
13.04
13.28
15.37
18.72
22.52
26.01
28.69
30.33
31.00
30.87
30.12
28.85
27.12
24.96
22.45
19.69
16.76
13.79
10.87
8.19
5.89
4.06
2.66
1.52
0.36
-1.10
-3.12
-5.78
-8.96
-12.25
-14.88
-15.87
-14.28
-9.48
-1.49
8.98
20.77
32.57
43.38
52.60
59.93
65.11
67.70
67.14
62.98
55.33
44.95
33.26
21.88
12.17
4.85
-0.07
-3.11
-4.98
-6.27
-7.27
-8.03
-8.52
-8.77
-8.96
-9.34
-10.20
-11.67
-13.72
-16.19
-18.86
-21.57
-24.28
-27.03
-29.91
-32.90
-35.86
-38.62
-41.11
-43.47
-46.07
-49.32
-53.32
-57.63
-61.27
-62.93
-61.44
-56.22
-47.47
-36.14
-23.62
-11.37
-0.63
7.74
13.35
16.20
16.57
14.93
11.91
8.20
4.56
1.68
0.08
-0.08
1.11
3.21
5.67
8.03
10.02
11.48
12.32
12.40
11.58
9.86
7.43
4.74
2.26
0.25
-1.38
-3.02
-5.08
-7.79
-10.98
-14.19
-16.95
-19.07
-20.84
-22.85
-25.75
-29.95
-35.41
-41.58
-47.58
-52.33
-54.84
-54.35
-50.48
-43.33
-33.44
-21.83
-9.75
1.51
10.82
17.52
21.39
22.72
22.10
20.29
18.00
15.76
13.95
12.81
12.55
13.29
15.00
17.47
20.29
22.94
24.99
26.17
26.44
25.91
24.72
23.04
20.96
18.60
16.14
13.77
11.65
9.82
8.16
6.51
4.75
2.84
0.83
-1.25
-3.38
-5.64
-8.08
-10.78
-13.84
-17.41
-21.63
-26.62
-32.15
-37.56
-41.73
-43.34
-41.38
-35.56
-26.49
-15.55
-4.44
5.32
12.82
17.85
20.69
21.82
21.62
20.34
18.17
15.46
12.79
10.93
10.50
11.67
14.09
16.99
19.48
20.99
21.42
21.09
20.43
19.71
18.83
17.41
15.09
11.76
7.71
3.48
-0.33
-3.27
-5.20
-6.22
-6.59
-6.62
-6.62
-6.88
-7.62
-9.00
-11.02
-13.51
-16.16
-18.66
-20.84
-22.81
-24.91
-27.50
-30.80
-34.65
-38.40
-41.06
-41.59
-39.31
-34.12
-26.53
-17.49
-8.04
0.95
8.86
15.30
19.90
22.32
22.43
20.48
17.20
13.74
11.18
10.20
10.79
12.38
14.21
15.75
16.89
17.88
19.03
20.39
21.65
22.30
21.85
20.11
17.24
13.66
9.88
6.38
3.46
1.25
-0.28
-1.35
-2.27
-3.35
-4.78
-6.53
-8.43
-10.22
-11.72
-12.95
-14.04
-15.22
-16.74
-18.83
-21.66
-25.35
-29.86
-34.87
-39.68
-43.25
-44.48
-42.53
-37.08
-28.57
-18.07
-7.02
3.20
11.54
17.46
20.93
22.29
22.06
20.72
18.67
16.22
13.72
11.54
10.06
9.56
10.09
11.38
12.94
14.20
14.83
14.73
14.06
13.07
11.89
10.49
8.71
6.36
3.41
0.06
-3.32
-6.23
-8.32
-9.46
-9.94
-10.27
-11.01
-12.52
-14.77
-17.44
-20.04
-22.27
-24.14
-25.97
-28.18
-31.10
-34.88
-39.38
-44.23
-48.91
-52.74
-54.86
-54.45
-50.89
-43.99
-34.19
-22.51
-10.28
1.19
10.88
18.17
22.85
25.02
25.03
23.40
20.77
17.86
15.30
13.61
13.07
13.74
15.45
17.84
20.46
22.81
24.51
25.36
25.40
24.85
23.94
22.82
21.45
19.72
17.53
14.94
12.15
9.51
7.27
5.55
4.20
2.89
1.27
-0.83
-3.39
-6.13
-8.74
-11.01
-12.96
-14.80
-16.81
-19.25
-22.28
-25.98
-30.28
-34.98
-39.61
-43.35
-45.16
-44.07
-39.45
-31.32
-20.50
-8.35
3.54
13.72
21.24
25.79
27.59
27.35
25.72
23.31
20.56
17.80
15.38
13.79
13.47
14.60
16.89
19.65
22.00
23.33
23.50
22.87
21.96
21.11
20.17
18.65
16.05
12.25
7.76
3.44
0.12
-1.79
-2.66
-3.31
-4.62
-6.97
-10.09
-13.15
-15.31
-16.15
-16.03
-15.83
-16.47
-18.46
-21.67
-25.60
-29.73
-33.76
-37.69
-41.40
-44.34
-45.40
-43.31
-37.22
-27.21
-14.43
-0.76
11.84
21.99
29.09
33.27
34.98
34.73
32.96
30.00
26.21
22.08
18.16
14.98
12.91
12.12
12.55
13.99
16.04
18.26
20.17
21.33
21.43
20.44
18.58
16.26
13.87
11.61
9.44
7.11
4.37
1.15
-2.35
-5.76
-8.76
-11.21
-13.24
-15.13
-17.19
-19.66
-22.70
-26.43
-30.93
-36.15
-41.68
-46.68
-49.91
-50.11
-46.36
-38.54
-27.44
-14.56
-1.65
9.75
18.67
24.73
28.09
29.12
28.24
25.87
22.42
18.43
14.57
11.54
9.92
10.00
11.70
14.57
17.91
21.04
23.40
24.67
24.77
23.78
21.84
19.04
15.49
11.42
7.14
3.10
-0.30
-2.91
-4.88
-6.61
-8.61
-11.22
-14.42
-17.94
-21.36
-24.33
-26.82
-29.08
-31.64
-35.01
-39.46
-44.77
-50.10
-54.13
-55.39
-52.78
-45.98
-35.50
-22.60
-8.88
4.18
15.46
24.26
30.28
33.47
34.06
32.50
29.57
26.19
23.32
21.71
21.69
23.12
25.47
28.01
30.10
31.36
31.78
31.54
30.90
29.89
28.37
26.13
23.07
19.40
15.58
12.11
9.29
7.04
5.06
2.91
0.36
-2.56
-5.55
-8.29
-10.61
-12.57
-14.49
-16.77
-19.85
-24.01
-29.33
-35.50
-41.90
-47.53
-51.19
-51.75
-48.43
-41.10
-30.34
-17.39
-3.84
8.69
18.92
26.17
30.35
31.89
31.50
29.93
27.79
25.56
23.58
22.14
21.51
21.85
23.10
25.03
27.21
29.15
30.48
30.95
30.52
29.30
27.40
24.92
21.93
18.51
14.81
11.05
7.54
4.54
2.16
0.27
-1.43
-3.33
-5.70
-8.57
-11.70
-14.74
-17.42
-19.74
-22.00
-24.74
-28.46
-33.42
-39.34
-45.28
-49.87
-51.60
-49.36
-42.82
-32.52
-19.81
-6.38
6.24
16.92
25.10
30.63
33.61
34.24
32.83
29.81
25.81
21.67
18.26
16.27
16.05
17.51
20.16
23.28
26.08
27.92
28.38
27.34
24.94
21.53
17.53
13.34
9.31
5.62
2.32
-0.68
-3.52
-6.36
-9.21
-11.94
-14.36
-16.25
-17.59
-18.62
-19.85
-21.88
-25.22
-30.05
-36.14
-42.74
-48.68
-52.56
-53.00
-49.08
-40.70
-28.68
-14.69
-0.78
11.24
20.26
26.04
29.02
29.88
29.27
27.61
25.21
22.49
19.99
18.42
18.26
19.65
22.24
25.25
27.81
29.31
29.52
28.65
27.20
25.59
23.99
22.24
20.00
17.07
13.54
9.85
6.61
4.22
2.73
1.76
0.76
-0.68
-2.64
-4.94
-7.32
-9.77
-12.62
-16.40
-21.61
-28.25
-35.73
-42.81
-47.93
-49.62
-46.90
-39.61
-28.47
-14.88
-0.64
12.60
23.61
31.82
37.27
40.32
41.46
41.17
39.87
38.09
36.51
35.87
36.74
39.28
43.08
47.28
50.90
53.11
53.54
52.17
49.28
45.22
40.31
34.77
28.86
22.84
17.10
12.01
7.90
4.91
3.00
1.96
1.52
1.46
1.68
2.10
2.46
2.26
0.71
-2.98
-9.35
-18.41
-29.55
-41.73
-53.56
-63.56
-70.30
-72.56
-69.60
-61.38
-48.68
-33.01
-16.21
-0.01
14.34
26.19
35.23
41.21
43.78
42.58
37.54
29.20
18.78
7.97
-1.55
-8.64
-12.94
-14.79
-14.96
-14.20
-13.01
-11.69
-10.42
-9.53
-9.47
-10.56
-12.85
-15.94
-19.09
-21.54
-22.84
-23.11
-22.94
-23.09
-24.13
-26.21
-29.00
-31.94
-34.51
-36.42
-37.71
-38.71
-39.83
-41.53
-44.15
-47.82
-52.30
-56.94
-60.70
-62.26
-60.44
-54.56
-44.80
-32.22
-18.55
-5.64
5.00
12.54
16.94
18.64
18.28
16.42
13.48
9.83
5.99
2.66
0.60
0.27
1.69
4.34
7.42
10.25
12.44
13.99
15.04
15.53
15.22
13.70
10.79
6.69
2.00
-2.57
-6.49
-9.68
-12.36
-14.80
-17.16
-19.34
-21.12
-22.38
-23.17
-23.98
-25.38
-27.92
-31.77
-36.52
-41.16
-44.31
-44.56
-41.10
-33.93
-23.80
-11.98
0.26
11.90
22.28
30.93
37.28
40.77
41.09
38.49
33.91
28.75
24.40
21.76
20.90
21.35
22.41
23.58
24.75
25.93
27.08
27.91
27.90
26.61
23.96
20.29
16.22
12.36
9.02
6.16
3.49
0.70
-2.38
-5.70
-9.06
-12.28
-15.24
-17.95
-20.56
-23.33
-26.58
-30.62
-35.51
-41.00
-46.33
-50.25
-51.43
-48.77
-41.89
-31.36
-18.53
-5.14
7.19
17.36
24.92
29.89
32.51
33.08
31.86
29.21
25.71
22.11
19.24
17.75
17.91
19.49
21.93
24.51
26.62
27.99
28.62
28.63
28.13
27.08
25.40
23.02
20.04
16.71
13.33
10.09
6.98
3.86
0.57
-2.88
-6.29
-9.37
-11.88
-13.83
-15.52
-17.54
-20.45
-24.64
-30.02
-35.98
-41.41
-44.95
-45.35
-41.86
-34.49
-24.03
-11.85
0.49
11.57
20.44
26.58
29.86
30.49
28.84
25.48
21.14
16.62
12.70
9.98
8.79
9.14
10.81
13.41
16.46
19.44
21.88
23.36
23.62
22.60
20.44
17.45
14.03
10.49
7.04
3.69
0.32
-3.22
-7.00
-10.90
-14.63
-17.84
-20.34
-22.15
-23.59
-25.19
-27.50
-30.89
-35.41
-40.69
-45.97
-50.22
-52.35
-51.47
-47.15
-39.55
-29.41
-17.88
-6.25
4.31
12.91
19.04
22.48
23.31
21.83
18.63
14.39
9.98
6.23
3.87
3.35
4.76
7.79
11.76
15.86
19.33
21.70
22.84
22.93
22.23
20.98
19.26
17.01
14.18
10.78
7.06
3.34
-0.03
-2.85
-5.11
-7.05
-9.06
-11.61
-15.07
-19.66
-25.29
-31.49
-37.36
-41.75
-43.44
-41.55
-35.74
-26.40
-14.59
-1.72
10.71
21.44
29.61
34.81
37.09
36.79
34.52
31.05
27.20
23.68
21.04
19.55
19.26
19.99
21.42
23.27
25.18
26.82
27.84
27.90
26.75
24.35
20.91
16.86
12.71
8.80
5.23
1.87
-1.47
-4.84
-8.14
-11.11
-13.62
-15.73
-17.76
-20.19
-23.47
-27.84
-33.27
-39.42
-45.65
-51.03
-54.46
-54.88
-51.52
-44.23
-33.58
-20.78
-7.40
5.01
15.24
22.61
26.94
28.44
27.58
24.99
21.36
17.54
14.35
12.53
12.57
14.52
17.96
22.12
26.10
29.21
31.06
31.60
30.98
29.36
26.93
23.85
20.36
16.75
13.29
10.11
7.20
4.44
1.68
-1.10
-3.85
-6.44
-8.79
-10.92
-12.93
-15.01
-17.39
-20.41
-24.44
-29.65
-35.89
-42.42
-47.94
-50.94
-50.07
-44.77
-35.37
-23.08
-9.49
3.78
15.53
24.97
31.64
35.33
36.07
34.24
30.59
26.23
22.29
19.64
18.67
19.18
20.68
22.65
24.74
26.84
28.97
31.05
32.83
33.84
33.60
31.91
28.95
25.27
21.58
18.44
16.10
14.42
13.03
11.49
9.53
7.12
4.44
1.75
-0.70
-2.77
-4.48
-6.11
-8.17
-11.38
-16.55
-24.22
-34.39
-46.19
-57.94
-67.47
-72.68
-72.24
-65.95
-54.83
-40.75
-25.79
-11.75
0.14
9.25
15.32
18.40
18.74
16.89
13.68
10.15
7.34
5.95
6.26
8.09
10.96
14.34
17.79
20.98
23.65
25.54
26.36
25.91
24.15
21.22
17.50
13.45
9.48
5.87
2.67
-0.22
-2.91
-5.44
-7.74
-9.68
-11.20
-12.40
-13.56
-15.08
-17.36
-20.66
-25.02
-30.17
-35.51
-40.13
-42.91
-42.80
-39.13
-31.83
-21.56
-9.57
2.62
13.59
22.30
28.15
31.02
31.09
28.82
24.93
20.24
15.67
12.09
10.08
9.94
11.56
14.50
18.13
21.69
24.49
26.04
26.09
24.69
22.18
18.99
15.53
12.04
8.51
4.86
0.99
-3.05
-7.01
-10.57
-13.49
-15.77
-17.69
-19.66
-22.01
-24.89
-28.27
-32.08
-36.33
-41.13
-46.39
-51.64
-55.83
-57.48
-55.21
-48.28
-37.06
-22.97
-8.16
5.27
15.81
22.91
26.83
28.23
27.88
26.28
23.76
20.64
17.40
14.77
13.47
13.89
15.89
18.81
21.79
24.16
25.68
26.49
26.87
26.78
25.90
23.79
20.26
15.66
10.79
6.58
3.57
1.61
0.02
-1.95
-4.68
-7.93
-10.98
-13.15
-14.17
-14.60
-15.44
-17.77
-22.11
-28.23
-35.12
-41.40
-45.75
-47.37
-45.92
-41.47
-34.31
-24.80
-13.54
-1.39
10.51
20.80
28.35
32.52
33.42
31.76
28.66
25.17
22.11
19.89
18.64
18.33
18.91
20.33
22.45
25.00
27.64
29.88
31.34
31.71
30.89
28.93
26.01
22.39
18.38
14.23
10.15
6.28
2.61
-0.94
-4.44
-7.91
-11.22
-14.17
-16.60
-18.54
-20.22
-22.04
-24.43
-27.73
-32.04
-37.18
-42.62
-47.51
-50.81
-51.44
-48.58
-41.98
-32.10
-20.05
-7.40
4.34
13.94
20.75
24.67
26.00
25.26
23.04
19.87
16.31
12.96
10.42
9.22
9.66
11.65
14.68
18.00
20.77
22.38
22.59
21.49
19.51
17.14
14.75
12.52
10.36
8.04
5.33
2.20
-1.17
-4.41
-7.15
-9.24
-10.88
-12.54
-14.74
-17.86
-21.95
-26.77
-31.91
-36.88
-41.12
-43.96
-44.66
-42.52
-37.13
-28.62
-17.75
-5.84
5.56
15.08
21.79
25.38
26.08
24.49
21.31
17.27
13.05
9.25
6.45
5.08
5.39
7.32
10.40
13.89
16.98
18.99
19.56
18.70
16.70
13.97
10.88
7.64
4.31
0.88
-2.65
-6.18
-9.60
-12.73
-15.46
-17.78
-19.79
-21.74
-23.91
-26.68
-30.30
-34.80
-39.85
-44.70
-48.30
-49.50
-47.40
-41.67
-32.66
-21.34
-9.04
2.88
13.32
21.55
27.24
30.29
30.79
29.08
25.72
21.56
17.59
14.70
13.47
13.95
15.71
18.09
20.41
22.20
23.25
23.47
22.88
21.49
19.38
16.68
13.62
10.43
7.24
4.04
0.77
-2.65
-6.15
-9.46
-12.28
-14.44
-16.03
-17.52
-19.52
-22.59
-26.94
-32.30
-37.87
-42.50
-44.97
-44.28
-39.96
-32.17
-21.70
-9.77
2.25
13.11
21.91
28.09
31.49
32.23
30.76
27.75
24.01
20.37
17.47
15.68
15.12
15.66
17.05
19.01
21.11
22.88
23.88
23.80
22.60
20.52
17.97
15.33
12.78
10.26
7.61
4.71
1.59
-1.56
-4.52
-7.07
-9.20
-10.98
-12.58
-14.24
-16.23
-18.81
-22.28
-26.70
-31.88
-37.20
-41.69
-44.16
-43.58
-39.39
-31.71
-21.38
-9.77
1.63
11.48
18.91
23.56
25.48
25.01
22.57
18.66
13.85
8.89
4.68
2.09
1.70
3.58
7.11
11.26
14.90
17.18
17.86
17.19
15.72
13.98
12.16
10.14
7.68
4.56
0.87
-3.04
-6.70
-9.69
-11.95
-13.67
-15.19
-16.81
-18.65
-20.71
-23.01
-25.74
-29.22
-33.61
-38.47
-42.72
-44.81
-43.25
-37.41
-27.71
-15.67
-3.35
7.51
15.87
21.63
25.26
27.25
27.84
26.90
24.32
20.31
15.67
11.64
9.39
9.59
12.06
15.85
19.68
22.47
23.65
23.31
21.87
19.77
17.31
14.48
11.17
7.35
3.14
-1.19
-5.26
-8.80
-11.64
-13.69
-15.04
-15.88
-16.58
-17.62
-19.53
-22.71
-27.16
-32.38
-37.35
-40.80
-41.58
-38.98
-32.88
-23.86
-12.97
-1.42
9.62
19.19
26.66
31.66
34.10
34.09
31.97
28.33
23.93
19.62
16.18
14.17
13.85
15.10
17.46
20.30
22.94
24.80
25.47
24.79
22.88
20.01
16.60
13.00
9.46
6.05
2.70
-0.76
-4.37
-8.04
-11.52
-14.53
-16.88
-18.63
-20.09
-21.70
-23.91
-26.97
-30.89
-35.35
-39.75
-43.24
-44.84
-43.69
-39.29
-31.70
-21.55
-9.97
1.76
12.37
20.89
26.70
29.61
29.79
27.79
24.45
20.67
17.29
14.88
13.70
13.73
14.80
16.66
19.04
21.63
24.02
25.80
26.58
26.14
24.51
21.95
18.89
15.75
12.77
9.93
7.06
3.95
0.57
-2.90
-6.09
-8.66
-10.46
-11.66
-12.64
-13.89
-15.87
-18.81
-22.82
-27.74
-33.22
-38.57
-42.82
-44.82
-43.57
-38.64
-30.46
-20.26
-9.70
-0.37
6.74
11.42
14.02
15.11
15.13
14.29
12.73
10.69
8.73
7.58
7.86
9.85
13.26
17.29
21.01
23.63
24.78
24.64
23.65
22.34
20.82
18.84
15.86
11.55
6.06
0.10
-5.30
-9.34
-11.86
-13.43
-14.91
-17.05
-20.04
-23.56
-27.13
-30.44
-33.59
-36.78
-39.87
-42.08
-42.16
-38.84
-31.67
-21.26
-9.34
2.01
11.10
17.19
20.53
21.90
22.05
21.28
19.45
16.38
12.35
8.22
5.26
4.56
6.52
10.64
15.66
20.23
23.41
24.95
25.22
24.80
24.06
23.01
21.30
18.57
14.68
9.83
4.50
-0.70
-5.31
-9.07
-12.05
-14.52
-16.98
-19.91
-23.74
-28.58
-34.15
-39.65
-43.98
-45.98
-44.74
-39.95
-31.99
-21.78
-10.58
0.43
10.27
18.23
23.87
26.93
27.39
25.45
21.75
17.23
13.00
10.05
9.01
9.94
12.37
15.53
18.60
20.99
22.45
23.00
22.83
22.06
20.71
18.66
15.83
12.22
8.02
3.52
-0.96
-5.13
-8.87
-12.15
-15.07
-17.78
-20.45
-23.30
-26.53
-30.27
-34.43
-38.58
-41.94
-43.45
-42.14
-37.45
-29.47
-19.04
-7.49
3.70
13.30
20.59
25.26
27.39
27.22
25.12
21.58
17.28
13.04
9.73
8.03
8.23
10.14
13.11
16.25
18.75
20.11
20.25
19.45
18.10
16.44
14.48
12.05
8.91
5.04
0.65
-3.79
-7.78
-10.94
-13.20
-14.73
-15.97
-17.38
-19.30
-21.94
-25.28
-29.04
-32.75
-35.71
-37.12
-36.19
-32.33
-25.41
-15.89
-4.80
6.45
16.40
23.92
28.41
29.91
28.90
26.13
22.37
18.33
14.65
11.89
10.50
10.71
12.38
15.00
17.77
19.88
20.76
20.27
18.66
16.36
13.79
11.11
8.25
5.10
1.66
-1.92
-5.30
-8.20
-10.53
-12.38
-14.08
-16.06
-18.69
-22.24
-26.73
-31.80
-36.62
-40.06
-40.88
-38.25
-31.96
-22.72
-11.80
-0.70
9.33
17.48
23.35
26.87
28.07
27.16
24.49
20.72
16.71
13.41
11.57
11.54
13.22
16.13
19.57
22.83
25.35
26.81
27.13
26.39
24.74
22.39
19.50
16.21
12.62
8.81
4.81
0.65
-3.60
-7.76
-11.53
-14.60
-16.87
-18.55
-20.20
-22.60
-26.38
-31.63
-37.76
-43.42
-47.01
-47.13
-43.04
-34.97
-23.98
-11.62
0.51
11.11
19.38
24.98
27.95
28.56
27.22
24.52
21.19
18.05
15.81
14.91
15.44
17.15
19.54
22.08
24.32
26.01
26.98
27.15
26.41
24.76
22.29
19.22
15.88
12.56
9.46
6.59
3.85
1.12
-1.64
-4.36
-6.93
-9.36
-11.76
-14.33
-17.34
-20.90
-25.02
-29.57
-34.33
-38.96
-42.95
-45.58
-45.96
-43.29
-37.12
-27.68
-16.01
-3.70
7.53
16.36
22.16
25.04
25.57
24.44
22.21
19.22
15.77
12.26
9.30
7.59
7.65
9.52
12.74
16.38
19.40
21.09
21.20
20.04
18.17
16.11
14.13
12.11
9.80
6.99
3.71
0.28
-2.93
-5.66
-7.83
-9.59
-11.22
-13.02
-15.25
-18.08
-21.60
-25.74
-30.20
-34.43
-37.64
-38.91
-37.45
-32.86
-25.27
-15.43
-4.46
6.37
15.92
23.40
28.37
30.70
30.51
28.12
24.10
19.35
14.93
11.81
10.61
11.34
13.53
16.33
18.92
20.75
21.64
21.70
21.10
19.90
18.04
15.43
12.11
8.25
4.19
0.27
-3.31
-6.50
-9.36
-12.01
-14.49
-16.82
-19.00
-21.13
-23.50
-26.45
-30.17
-34.46
-38.66
-41.66
-42.30
-39.74
-33.79
-25.02
-14.58
-3.82
6.11
14.38
20.54
24.43
26.07
25.61
23.37
19.94
16.07
12.60
10.27
9.49
10.27
12.20
14.64
16.97
18.74
19.74
19.99
19.61
18.66
17.19
15.26
12.94
10.38
7.76
5.17
2.66
0.19
-2.25
-4.62
-6.82
-8.77
-10.44
-12.04
-13.93
-16.60
-20.40
-25.42
-31.26
-36.98
-41.34
-43.12
-41.44
-36.16
-27.89
-17.81
-7.30
2.40
10.48
16.50
20.39
22.19
22.06
20.31
17.41
14.09
11.13
9.22
8.73
9.57
11.36
13.56
15.69
17.45
18.61
19.04
18.69
17.56
15.82
13.72
11.51
9.33
7.02
4.30
0.92
-3.10
-7.40
-11.35
-14.43
-16.43
-17.67
-18.80
-20.64
-23.74
-28.11
-33.19
-37.95
-41.14
-41.87
-39.72
-34.84
-27.79
-19.29
-9.98
-0.49
8.54
16.19
21.52
23.78
22.81
19.29
14.51
9.95
6.73
5.16
4.83
5.02
5.13
5.09
5.21
5.85
7.16
8.75
9.97
10.19
9.17
7.16
4.69
2.13
-0.46
-3.50
-7.49
-12.65
-18.74
-25.09
-31.00
-36.04
-40.24
-44.08
-47.95
-51.85
-55.11
-56.61
-55.18
-50.17
-41.71
-30.76
-18.75
-7.06
3.17
11.39
17.44
21.41
23.45
23.75
22.52
20.09
17.00
13.89
11.45
10.23
10.44
11.89
14.00
16.03
17.29
17.46
16.52
14.77
12.56
10.13
7.53
4.65
1.36
-2.30
-6.10
-9.66
-12.60
-14.69
-16.06
-17.10
-18.47
-20.74
-24.30
-29.04
-34.29
-38.99
-41.86
-41.84
-38.42
-31.78
-22.73
-12.48
-2.23
7.12
15.00
21.20
25.62
28.21
28.93
27.95
25.74
23.02
20.62
19.19
19.00
19.91
21.53
23.35
24.97
26.15
26.80
26.87
26.31
25.05
23.06
20.38
17.17
13.65
10.01
6.39
2.83
-0.66
-4.08
-7.33
-10.25
-12.72
-14.80
-16.84
-19.37
-22.94
-27.74
-33.38
-38.85
-42.82
-44.02
-41.71
-35.89
-27.28
-17.00
-6.32
3.66
12.08
18.38
22.23
23.52
22.41
19.40
15.27
11.03
7.69
6.01
6.23
8.06
10.74
13.39
15.35
16.40
16.73
16.68
16.45
15.97
14.98
13.18
10.53
7.29
3.85
0.62
-2.23
-4.72
-6.94
-8.95
-10.77
-12.43
-14.20
-16.55
-20.00
-24.73
-30.36
-35.81
-39.60
-40.35
-37.29
-30.52
-21.02
-10.23
0.40
9.75
17.15
22.34
25.27
25.96
24.57
21.46
17.34
13.11
9.74
7.98
8.09
9.78
12.37
15.02
17.05
18.04
17.90
16.76
14.83
12.27
9.17
5.58
1.51
-2.90
-7.42
-11.69
-15.31
-17.98
-19.66
-20.64
-21.51
-22.95
-25.52
-29.39
-34.24
-39.29
-43.45
-45.61
-44.79
-40.52
-32.84
-22.43
-10.43
1.73
12.71
21.42
27.31
30.33
30.85
29.48
26.94
23.91
20.97
18.60
17.12
16.77
17.58
19.41
21.87
24.41
26.41
27.39
27.14
25.80
23.78
21.53
19.34
17.18
14.83
11.97
8.47
4.46
0.36
-3.37
-6.37
-8.61
-10.38
-12.14
-14.40
-17.52
-21.61
-26.50
-31.73
-36.55
-39.97
-40.98
-38.77
-33.02
-24.11
-13.08
-1.40
9.37
17.99
23.81
26.78
27.24
25.82
23.11
19.70
16.15
13.06
11.01
10.45
11.52
13.97
17.07
19.90
21.69
22.03
21.03
19.22
17.19
15.33
13.51
11.28
8.10
3.74
-1.43
-6.59
-10.81
-13.55
-14.99
-15.90
-17.19
-19.54
-23.00
-27.23
-31.69
-35.91
-39.61
-42.45
-43.84
-42.96
-39.02
-31.68
-21.45
-9.58
2.23
12.37
19.78
24.14
25.75
25.24
23.33
20.66
17.76
15.03
12.86
11.59
11.45
12.40
14.20
16.41
18.49
20.01
20.71
20.51
19.50
17.78
15.40
12.41
8.85
4.85
0.69
-3.30
-6.84
-9.73
-12.06
-14.12
-16.34
-19.15
-22.87
-27.48
-32.61
-37.46
-40.94
-41.95
-39.60
-33.62
-24.45
-13.18
-1.28
9.84
19.14
26.10
30.66
33.01
33.45
32.27
29.75
26.32
22.52
19.05
16.58
15.60
16.22
18.08
20.43
22.41
23.30
22.82
21.24
19.10
16.95
15.06
13.22
11.01
8.03
4.21
-0.11
-4.34
-8.00
-10.88
-13.18
-15.29
-17.63
-20.37
-23.50
-26.89
-30.48
-34.27
-38.15
-41.68
-44.02
-44.07
-40.90
-34.15
-24.30
-12.56
-0.48
10.53
19.54
26.16
30.40
32.42
32.42
30.64
27.50
23.67
19.95
17.14
15.75
15.90
17.25
19.15
20.91
21.98
22.18
21.60
20.53
19.25
17.82
16.11
13.90
11.07
7.70
4.14
0.82
-1.93
-4.01
-5.60
-7.01
-8.57
-10.57
-13.17
-16.41
-20.24
-24.44
-28.56
-31.93
-33.82
-33.56
-30.81
-25.66
-18.62
-10.50
-2.24
5.42
12.03
17.40
21.54
24.39
25.86
25.93
24.75
22.81
20.80
19.38
18.86
19.00
19.17
18.78
17.53
15.72
13.94
12.75
12.27
12.05
11.32
9.41
6.16
2.00
-2.24
-5.75
-8.09
-9.60
-11.02
-13.18
-16.61
-21.27
-26.59
-31.82
-36.23
-39.40
-41.07
-40.98
-38.77
-34.09
-26.83
-17.43
-6.90
3.31
11.72
17.33
19.85
19.69
17.73
14.89
11.95
9.36
7.40
6.19
5.87
6.46
7.83
9.68
11.65
13.33
14.49
15.02
14.91
14.08
12.43
9.83
6.32
2.12
-2.37
-6.73
-10.61
-13.89
-16.64
-19.06
-21.41
-23.92
-26.84
-30.39
-34.66
-39.42
-44.00
-47.30
-48.03
-45.15
-38.30
-28.03
-15.73
-3.15
8.10
16.97
23.15
26.86
28.57
28.66
27.39
24.99
21.83
18.51
15.76
14.25
14.33
15.87
18.36
21.03
23.18
24.35
24.50
23.85
22.78
21.53
20.10
18.23
15.58
12.02
7.75
3.29
-0.74
-3.92
-6.22
-8.00
-9.77
-11.99
-14.79
-18.10
-21.75
-25.60
-29.49
-33.13
-35.93
-36.93
-35.18
-30.05
-21.64
-10.91
0.58
11.14
19.47
24.97
27.75
28.36
27.44
25.49
22.84
19.77
16.62
13.86
11.99
11.32
11.80
13.07
14.53
15.57
15.83
15.25
14.06
12.60
11.13
9.72
8.22
6.41
4.09
1.30
-1.67
-4.43
-6.67
-8.32
-9.62
-10.98
-12.79
-15.25
-18.32
-21.80
-25.56
-29.44
-33.29
-36.73
-39.02
-39.25
-36.54
-30.52
-21.52
-10.63
0.64
10.81
18.80
24.17
27.03
27.76
26.74
24.31
20.74
16.44
12.06
8.41
6.29
6.17
8.00
11.22
14.94
18.30
20.65
21.79
21.80
21.00
19.68
18.01
16.00
13.62
10.84
7.71
4.40
1.12
-1.90
-4.53
-6.78
-8.73
-10.58
-12.54
-14.79
-17.47
-20.62
-24.19
-27.99
-31.63
-34.52
-35.87
-34.89
-31.00
-24.06
-14.58
-3.64
7.36
17.04
24.45
29.25
31.57
31.85
30.53
27.93
24.36
20.25
16.24
13.07
11.36
11.30
12.57
14.45
16.09
16.95
16.93
16.32
15.57
14.98
14.51
13.82
12.46
10.14
6.90
3.17
-0.49
-3.59
-5.92
-7.58
-8.86
-10.03
-11.30
-12.76
-14.53
-16.78
-19.67
-23.26
-27.22
-30.80
-33.02
-32.88
-29.82
-23.97
-16.13
-7.52
0.62
7.38
12.44
15.88
18.03
19.10
19.08
17.81
15.28
11.76
7.92
4.56
2.36
1.54
1.89
2.91
4.14
5.32
6.37
7.23
7.70
7.51
6.44
4.46
1.88
-0.84
-3.26
-5.24
-6.88
-8.50
-10.31
-12.33
-14.39
-16.27
-17.89
-19.44
-21.28
-23.77
-27.05
-30.85
-34.57
-37.44
-38.62
-37.62
-34.33
-28.97
-22.01
-13.99
-5.37
3.38
11.70
18.82
23.84
26.03
25.19
21.79
16.90
11.83
7.69
5.03
3.88
3.96
4.91
6.49
8.50
10.75
12.96
14.83
16.09
16.63
16.37
15.34
13.60
11.24
8.51
5.76
3.33
1.39
-0.10
-1.37
-2.75
-4.53
-6.81
-9.59
-12.78
-16.26
-19.83
-23.12
-25.49
-26.19
-24.56
-20.32
-13.70
-5.52
3.02
10.77
16.88
21.05
23.41
24.33
24.15
23.02
20.93
17.94
14.39
10.87
8.10
6.62
6.59
7.70
9.31
10.78
11.65
11.74
11.10
9.86
8.12
5.94
3.36
0.41
-2.77
-5.99
-9.02
-11.63
-13.76
-15.47
-17.07
-18.96
-21.52
-24.91
-28.99
-33.19
-36.80
-39.01
-39.25
-37.23
-33.01
-26.87
-19.27
-10.81
-2.14
5.91
12.55
17.10
19.25
19.11
17.17
14.15
10.74
7.48
4.76
2.86
2.02
2.34
3.77
6.01
8.53
10.80
12.41
13.16
13.12
12.42
11.15
9.27
6.75
3.57
-0.18
-4.23
-8.23
-11.87
-14.91
-17.34
-19.34
-21.25
-23.47
-26.30
-29.74
-33.45
-36.65
-38.42
-37.96
-34.80
-29.06
-21.33
-12.50
-3.52
4.82
11.92
17.36
20.84
22.16
21.29
18.52
14.48
10.13
6.45
4.21
3.78
4.96
7.17
9.66
11.82
13.33
14.14
14.35
14.09
13.40
12.20
10.47
8.18
5.42
2.33
-0.95
-4.26
-7.48
-10.46
-13.10
-15.38
-17.43
-19.65
-22.48
-26.25
-30.90
-35.83
-39.97
-42.16
-41.50
-37.79
-31.51
-23.59
-14.98
-6.44
1.59
8.78
14.79
19.03
20.97
20.45
17.86
14.16
10.64
8.36
7.88
8.97
10.95
13.01
14.61
15.68
16.46
17.27
18.28
19.20
19.58
18.90
16.92
13.81
10.02
6.13
2.63
-0.25
-2.57
-4.54
-6.40
-8.33
-10.42
-12.76
-15.40
-18.51
-22.16
-26.23
-30.24
-33.40
-34.77
-33.49
-29.21
-22.24
-13.50
-4.27
4.17
10.94
15.62
18.25
19.11
18.52
16.78
14.20
11.16
8.17
5.81
4.55
4.65
6.10
8.53
11.42
14.16
16.22
17.29
17.24
16.23
14.49
12.26
9.70
6.86
3.75
0.42
-2.92
-5.99
-8.54
-10.47
-11.93
-13.29
-15.00
-17.46
-20.82
-24.95
-29.51
-33.92
-37.58
-39.81
-40.01
-37.73
-32.75
-25.28
-15.96
-5.79
4.03
12.42
18.58
22.15
23.21
22.18
19.69
16.47
13.21
10.56
9.02
8.88
10.17
12.59
15.65
18.62
20.86
21.89
21.51
19.80
16.99
13.40
9.26
4.75
-0.02
-4.91
-9.77
-14.35
-18.43
-21.79
-24.30
-26.07
-27.38
-28.77
-30.79
-33.89
-38.14
-43.03
-47.58
-50.51
-50.71
-47.49
-40.90
-31.59
-20.64
-9.27
1.46
10.76
18.08
23.14
25.83
26.21
24.58
21.52
17.80
14.25
11.62
10.36
10.58
12.01
14.16
16.47
18.49
19.94
20.70
20.71
19.99
18.46
16.08
12.93
9.20
5.19
1.19
-2.56
-5.89
-8.81
-11.30
-13.43
-15.33
-17.23
-19.49
-22.55
-26.68
-31.79
-37.34
-42.27
-45.29
-45.30
-41.69
-34.58
-24.82
-13.71
-2.64
7.25
15.22
20.98
24.49
25.80
25.08
22.58
18.80
14.53
10.77
8.41
8.02
9.56
12.48
15.92
19.04
21.30
22.54
22.87
22.49
21.53
19.94
17.65
14.65
11.08
7.22
3.37
-0.21
-3.43
-6.22
-8.60
-10.63
-12.41
-14.18
-16.28
-19.15
-23.06
-27.92
-33.15
-37.60
-39.84
-38.66
-33.47
-24.57
-13.11
-0.70
11.08
21.10
28.77
34.01
36.93
37.73
36.63
34.02
30.50
26.85
23.89
22.24
22.13
23.41
25.58
28.03
30.23
31.80
32.63
32.76
32.27
31.19
29.46
27.00
23.79
19.93
15.66
11.23
6.90
2.78
-1.03
-4.49
-7.54
-10.18
-12.53
-14.89
-17.75
-21.58
-26.70
-32.91
-39.50
-45.29
-48.93
-49.30
-45.81
-38.55
-28.31
-16.30
-3.92
7.52
16.89
23.46
26.86
27.22
25.08
21.35
17.03
13.07
10.10
8.42
8.11
9.10
11.23
14.27
17.86
21.44
24.32
25.84
25.69
23.92
21.05
17.81
14.80
12.29
10.00
7.44
4.15
0.09
-4.27
-8.24
-11.20
-12.97
-13.95
-14.80
-16.19
-18.52
-21.87
-26.11
-30.96
-35.90
-40.16
-42.61
-42.09
-37.76
-29.51
-18.15
-5.16
7.76
19.17
28.13
34.25
37.51
38.06
36.24
32.52
27.66
22.62
18.34
15.55
14.52
15.07
16.74
18.94
21.20
23.23
24.84
25.90
26.26
25.78
24.37
22.10
19.14
15.79
12.34
9.01
5.88
2.87
-0.16
-3.38
-6.85
-10.45
-13.92
-16.99
-19.50
-21.59
-23.57
-25.89
-28.92
-32.82
-37.47
-42.44
-46.98
-50.16
-50.89
-48.27
-41.81
-31.71
-18.86
-4.77
8.81
20.35
28.86
34.05
36.25
36.18
34.67
32.42
29.95
27.59
25.60
24.19
23.58
23.82
24.87
26.47
28.26
29.86
30.97
31.34
30.80
29.29
26.75
23.27
19.08
14.50
10.01
5.97
2.64
-0.03
-2.36
-4.78
-7.63
-10.99
-14.65
-18.21
-21.28
-23.68
-25.53
-27.25
-29.39
-32.45
-36.61
-41.61
-46.60
-50.37
-51.54
-49.04
-42.50
-32.42
-20.04
-6.97
5.30
15.69
23.62
28.94
31.72
32.16
30.59
27.56
23.86
20.39
17.97
17.08
17.72
19.46
21.67
23.79
25.54
26.84
27.79
28.41
28.65
28.37
27.42
25.88
23.94
21.85
19.87
18.13
16.64
15.30
14.09
12.92
11.83
10.78
9.77
8.73
7.61
6.33
4.87
3.17
1.10
-1.72
-5.69
-11.10
-17.69
-24.58
-30.33
-33.35
-32.53
-27.73
-19.81
-10.34
-0.93
7.26
13.71
18.31
21.12
21.92
20.41
16.51
10.71
4.12
-1.74
-5.54
-6.68
-5.49
-2.99
-0.33
1.77
3.22
4.38
5.67
7.14
8.39
8.78
7.83
5.56
2.53
-0.45
-2.68
-3.83
-4.16
-4.21
-4.60
-5.72
-7.59
-9.91
-12.28
-14.33
-16.00
-17.51
-19.34
-21.95
-25.61
-30.31
-35.64
-40.83
-45.01
-47.26
-46.84
-43.38
-36.88
-27.85
-17.22
-6.14
4.20
12.78
18.98
22.60
23.75
22.85
20.45
17.27
14.00
11.33
9.77
9.60
10.74
12.85
15.38
17.82
19.78
21.06
21.65
21.57
20.89
19.66
17.96
15.98
13.96
12.10
10.58
9.40
8.49
7.73
6.99
6.20
5.26
4.04
2.36
0.13
-2.73
-6.20
-10.21
-14.65
-19.40
-24.27
-28.88
-32.63
-34.70
-34.26
-30.75
-24.05
-14.63
-3.54
7.83
18.08
26.08
31.19
33.30
32.78
30.25
26.45
22.06
17.63
13.65
10.52
8.56
8.03
8.93
10.97
13.59
16.06
17.70
18.12
17.30
15.49
13.07
10.31
7.32
4.04
0.37
-3.70
-8.01
-12.23
-16.09
-19.34
-21.89
-23.81
-25.26
-26.52
-27.86
-29.57
-31.87
-34.91
-38.59
-42.63
-46.34
-48.86
-49.26
-46.81
-41.25
-32.93
-22.86
-12.30
-2.62
5.22
10.74
13.99
15.35
15.30
14.20
12.30
9.91
7.41
5.37
4.42
4.94
6.90
9.83
12.96
15.59
17.38
18.38
18.95
19.43
19.88
20.04
19.41
17.65
14.69
10.90
6.90
3.26
0.30
-2.01
-3.99
-6.08
-8.66
-11.97
-16.09
-20.87
-25.96
-30.70
-34.22
-35.55
-33.95
-29.20
-21.64
-12.17
-2.01
7.67
15.85
21.90
25.49
26.59
25.44
22.54
18.63
14.56
11.18
9.08
8.58
9.58
11.75
14.57
17.48
20.02
21.82
22.66
22.45
21.23
19.07
16.08
12.35
8.04
3.34
-1.46
-6.01
-10.01
-13.24
-15.77
-17.84
-19.93
-22.54
-26.01
-30.31
-34.88
-38.71
-40.64
-39.71
-35.52
-28.33
-19.04
-8.80
1.27
10.24
17.51
22.61
25.28
25.42
23.23
19.28
14.49
9.88
6.39
4.62
4.67
6.24
8.72
11.46
13.91
15.76
16.87
17.30
17.09
16.26
14.74
12.48
9.48
5.90
1.99
-1.96
-5.76
-9.31
-12.66
-15.92
-19.25
-22.85
-26.88
-31.31
-35.82
-39.71
-41.95
-41.54
-37.80
-30.81
-21.35
-10.76
-0.40
8.67
15.91
21.17
24.43
25.59
24.51
21.25
16.26
10.50
5.26
1.65
0.28
0.96
2.91
5.17
7.03
8.26
9.02
9.58
10.01
10.01
9.08
6.81
3.16
-1.44
-6.20
-10.36
-13.44
-15.46
-16.82
-18.04
-19.58
-21.72
-24.50
-27.94
-31.87
-35.92
-39.45
-41.48
-41.01
-37.37
-30.44
-20.89
-9.95
0.96
10.56
18.01
22.90
25.16
24.95
22.63
18.74
14.08
9.56
6.03
4.06
3.79
4.96
6.99
9.30
11.42
13.08
14.08
14.34
13.69
12.07
9.50
6.12
2.24
-1.80
-5.65
-9.09
-12.01
-14.42
-16.56
-18.73
-21.32
-24.65
-28.85
-33.68
-38.56
-42.59
-44.77
-44.24
-40.43
-33.34
-23.55
-12.17
-0.65
9.61
17.54
22.63
25.00
25.15
23.73
21.28
18.25
15.03
12.08
9.96
9.18
9.94
12.04
14.83
17.51
19.44
20.30
20.22
19.47
18.32
16.74
14.55
11.45
7.32
2.38
-2.83
-7.63
-11.50
-14.27
-16.33
-18.34
-21.11
-25.13
-30.31
-35.91
-40.75
-43.50
-43.15
-39.26
-32.11
-22.55
-11.72
-0.81
9.17
17.49
23.68
27.51
28.92
28.12
25.55
21.95
18.19
15.08
13.18
12.67
13.45
15.15
17.46
20.08
22.72
25.08
26.67
27.05
25.90
23.21
19.35
14.93
10.52
6.49
2.90
-0.33
-3.27
-5.89
-8.04
-9.80
-11.45
-13.54
-16.63
-20.80
-25.50
-29.56
-31.64
-30.88
-27.22
-21.44
-14.78
-8.32
-2.62
2.23
6.34
9.54
11.35
11.19
8.86
4.88
0.47
-2.93
-4.26
-3.32
-0.69
2.63
5.84
8.58
11.00
13.39
15.85
17.90
18.80
17.92
15.08
10.77
5.88
1.32
-2.34
-5.16
-7.56
-9.96
-12.60
-15.42
-18.23
-21.03
-24.05
-27.75
-32.46
-37.98
-43.41
-47.28
-48.08
-44.76
-37.19
-26.29
-13.69
-1.24
9.52
17.72
23.08
25.78
26.23
24.80
21.89
17.95
13.60
9.64
6.87
5.91
6.94
9.65
13.28
16.87
19.67
21.24
21.55
20.88
19.53
17.65
15.19
12.06
8.18
3.74
-0.88
-5.15
-8.63
-11.14
-12.88
-14.36
-16.24
-19.09
-23.12
-28.05
-33.07
-36.99
-38.59
-36.98
-31.87
-23.67
-13.36
-2.24
8.47
17.81
25.14
30.06
32.41
32.15
29.55
25.17
19.99
15.09
11.46
9.72
9.91
11.55
13.88
16.15
17.87
18.92
19.40
19.42
18.93
17.75
15.57
12.30
8.10
3.43
-1.11
-5.03
-8.19
-10.79
-13.29
-16.20
-19.91
-24.54
-29.98
-35.82
-41.43
-45.92
-48.27
-47.56
-43.17
-35.09
-24.00
-11.22
1.67
13.16
22.20
28.33
31.60
32.38
31.18
28.53
24.98
21.22
17.98
16.02
15.80
17.32
20.00
22.95
25.26
26.34
26.13
24.92
23.18
21.19
18.96
16.26
12.83
8.63
3.87
-0.95
-5.27
-8.68
-11.13
-12.93
-14.70
-17.04
-20.50
-25.26
-31.08
-37.29
-42.90
-46.73
-47.69
-45.04
-38.62
-29.00
-17.30
-4.96
6.60
16.29
23.48
28.01
30.00
29.79
27.85
24.81
21.40
18.45
16.63
16.43
17.86
20.51
23.66
26.56
28.62
29.57
29.42
28.38
26.64
24.35
21.57
18.36
14.82
11.10
7.40
3.89
0.70
-2.09
-4.49
-6.55
-8.42
-10.34
-12.64
-15.74
-19.91
-25.19
-31.19
-37.07
-41.70
-43.86
-42.68
-37.87
-29.85
-19.62
-8.46
2.36
11.87
19.39
24.54
27.13
27.15
24.85
20.86
16.06
11.57
8.36
7.02
7.59
9.69
12.61
15.68
18.34
20.24
21.18
21.12
20.11
18.28
15.82
12.93
9.76
6.40
2.90
-0.63
-4.09
-7.30
-10.09
-12.43
-14.49
-16.64
-19.33
-22.96
-27.63
-33.03
-38.41
-42.65
-44.63
-43.41
-38.63
-30.62
-20.30
-8.97
2.07
11.75
19.43
24.80
27.80
28.48
27.09
24.09
20.24
16.42
13.44
11.85
11.79
13.10
15.43
18.36
21.47
24.24
26.15
26.75
25.85
23.62
20.56
17.24
14.07
11.12
8.20
5.06
1.60
-1.99
-5.40
-8.38
-10.89
-13.32
-16.21
-20.04
-25.04
-30.90
-36.85
-41.81
-44.59
-44.32
-40.59
-33.52
-23.74
-12.22
-0.08
11.48
21.38
28.74
33.01
34.11
32.45
28.93
24.67
20.80
18.12
16.97
17.24
18.51
20.31
22.21
23.91
25.18
25.84
25.68
24.57
22.53
19.74
16.49
13.07
9.62
6.20
2.80
-0.56
-3.79
-6.73
-9.26
-11.33
-13.06
-14.69
-16.51
-18.90
-22.15
-26.43
-31.62
-37.11
-41.88
-44.63
-44.07
-39.47
-30.89
-19.26
-6.18
6.63
17.65
26.04
31.59
34.64
35.74
35.41
34.04
31.99
29.66
27.60
26.42
26.59
28.20
30.97
34.29
37.53
40.13
41.67
41.85
40.33
36.88
31.40
24.06
15.42
6.25
-2.61
-10.45
-16.80
-21.46
-24.44
-25.97
-26.39
-26.22
-25.96
-26.01
-26.62
-27.89
-29.87
-32.60
-36.01
-39.77
-43.22
-45.38
-45.26
-42.24
-36.40
-28.52
-19.79
-11.39
-4.15
1.62
5.94
8.80
10.12
9.73
7.65
4.31
0.56
-2.53
-4.06
-3.64
-1.52
1.59
4.86
7.67
9.78
11.28
12.36
13.03
13.10
12.21
10.08
6.75
2.62
-1.64
-5.37
-8.13
-9.86
-10.91
-11.83
-13.24
-15.58
-19.11
-23.70
-28.91
-33.94
-37.76
-39.32
-37.77
-32.77
-24.70
-14.56
-3.71
6.50
15.10
21.66
26.12
28.66
29.45
28.59
26.30
22.97
19.34
16.24
14.40
14.14
15.26
17.13
19.00
20.25
20.56
19.97
18.69
17.03
15.11
12.90
10.26
7.07
3.40
-0.48
-4.13
-7.18
-9.52
-11.38
-13.20
-15.49
-18.51
-22.20
-26.19
-29.92
-32.84
-34.37
-33.98
-31.20
-25.70
-17.53
-7.36
3.60
13.77
21.69
26.55
28.34
27.75
25.83
23.39
20.89
18.31
15.57
12.78
10.49
9.39
10.03
12.36
15.76
19.13
21.45
22.17
21.30
19.35
16.87
14.20
11.39
8.21
4.50
0.28
-4.16
-8.39
-12.02
-14.85
-16.94
-18.65
-20.53
-23.18
-26.99
-31.92
-37.38
-42.29
-45.34
-45.45
-42.08
-35.41
-26.34
-16.08
-5.91
3.17
10.58
16.06
19.57
21.15
20.94
19.12
16.12
12.57
9.23
6.81
5.75
6.09
7.42
9.19
10.82
11.96
12.58
12.80
12.75
12.40
11.52
9.80
7.11
3.51
-0.58
-4.64
-8.20
-11.04
-13.22
-15.04
-16.89
-19.16
-22.11
-25.81
-30.08
-34.37
-37.86
-39.54
-38.56
-34.43
-27.26
-17.76
-7.03
3.63
13.04
20.35
25.11
27.26
27.08
25.03
21.70
17.70
13.64
10.11
7.58
6.38
6.58
8.01
10.22
12.70
14.88
16.30
16.63
15.67
13.42
10.01
5.78
1.12
-3.53
-7.81
-11.50
-14.56
-17.03
-19.18
-21.35
-23.95
-27.31
-31.38
-35.62
-39.02
-40.31
-38.51
-33.25
-24.99
-14.86
-4.26
5.52
13.62
19.67
23.68
25.73
25.99
24.61
21.91
18.41
14.87
12.06
10.58
10.60
11.86
13.76
15.64
16.97
17.46
17.12
16.02
14.26
11.86
8.82
5.20
1.18
-2.97
-6.90
-10.39
-13.33
-15.83
-18.21
-20.89
-24.27
-28.50
-33.33
-38.02
-41.50
-42.62
-40.65
-35.41
-27.49
-17.99
-8.15
0.95
8.65
14.62
18.71
20.87
21.06
19.41
16.33
12.52
8.85
6.08
4.65
4.58
5.50
6.93
8.53
10.12
11.66
13.03
13.94
13.98
12.80
10.33
6.90
3.07
-0.55
-3.56
-5.97
-8.03
-10.18
-12.80
-16.10
-20.05
-24.43
-28.75
-32.36
-34.44
-34.27
-31.36
-25.63
-17.55
-7.99
1.86
10.80
17.84
22.39
24.33
23.94
21.78
18.49
14.69
10.93
7.67
5.29
4.07
4.15
5.40
7.44
9.66
11.41
12.23
11.95
10.69
8.74
6.35
3.66
0.67
-2.67
-6.28
-10.00
-13.68
-17.22
-20.76
-24.49
-28.54
-32.63
-36.12
-38.09
-37.64
-34.27
-28.07
-19.76
-10.43
-1.27
6.81
13.35
18.34
21.96
24.50
26.05
26.59
26.05
24.60
22.61
20.67
19.26
18.60
18.58
18.88
19.18
19.32
19.25
18.91
18.12
16.61
14.19
10.90
7.03
3.07
-0.60
-3.84
-6.88
-10.15
-14.08
-18.87
-24.29
-29.75
-34.36
-37.19
-37.60
-35.31
-30.53
-23.84
-16.00
-7.78
0.08
6.93
12.18
15.32
16.10
14.65
11.51
7.59
3.83
0.99
-0.58
-0.89
-0.23
1.03
2.59
4.17
5.49
6.27
6.20
5.06
2.82
-0.47
-4.52
-8.97
-13.43
-17.57
-21.27
-24.66
-28.11
-32.06
-36.75
-41.84
-46.45
-49.25
-48.95
-44.76
-36.73
-25.76
-13.30
-0.92
10.06
18.86
25.20
29.17
31.08
31.31
30.26
28.44
26.34
24.49
23.34
23.16
23.93
25.34
26.87
27.94
28.12
27.27
25.49
23.04
20.19
17.07
13.64
9.82
5.63
1.18
-3.28
-7.56
-11.65
-15.82
-20.42
-25.62
-31.14
-36.14
-39.43
-39.84
-36.62
-29.84
-20.37
-9.53
1.23
10.76
18.30
23.53
26.35
26.91
25.54
22.82
19.48
16.36
14.14
13.27
13.84
15.62
18.19
21.07
23.82
26.08
27.58
28.17
27.79
26.46
24.24
21.29
17.83
14.16
10.58
7.31
4.42
1.75
-1.01
-4.27
-8.30
-13.07
-18.09
-22.52
-25.34
-25.69
-23.21
-18.13
-11.25
-3.61
3.74
10.03
14.80
17.86
19.19
18.84
17.06
14.31
11.21
8.52
6.81
6.34
6.98
8.35
10.02
11.77
13.54
15.40
17.30
18.97
19.92
19.68
18.03
15.16
11.50
7.61
3.84
0.35
-2.92
-6.02
-9.02
-11.95
-15.00
-18.44
-22.47
-26.93
-31.11
-33.80
-33.76
-30.15
-23.02
-13.30
-2.47
7.87
16.53
22.91
26.93
28.84
28.75
26.78
23.04
17.95
12.36
7.44
4.27
3.50
4.82
7.30
9.73
11.21
11.58
11.30
10.99
10.95
10.81
9.78
7.20
2.99
-2.13
-6.96
-10.42
-12.11
-12.59
-12.99
-14.52
-17.79
-22.56
-27.91
-32.63
-35.66
-36.44
-34.80
-30.81
-24.62
-16.45
-6.72
3.79
14.02
22.81
29.17
32.63
33.21
31.36
27.75
23.06
18.00
13.19
9.22
6.55
5.41
5.68
6.98
8.74
10.46
11.74
12.38
12.23
11.15
9.06
5.97
2.08
-2.22
-6.47
-10.26
-13.41
-16.00
-18.28
-20.60
-23.32
-26.67
-30.63
-34.89
-38.78
-41.43
-41.90
-39.53
-34.14
-26.13
-16.40
-6.11
3.57
11.71
17.76
21.46
22.87
22.23
19.95
16.54
12.58
8.65
5.29
2.89
1.69
1.74
2.90
4.94
7.43
9.91
11.85
12.83
12.55
10.97
8.27
4.81
1.03
-2.62
-5.84
-8.50
-10.65
-12.57
-14.64
-17.29
-20.84
-25.27
-30.19
-34.75
-37.83
-38.29
-35.36
-28.90
-19.54
-8.44
2.93
13.23
21.49
27.26
30.37
30.93
29.15
25.38
20.21
14.49
9.20
5.24
3.14
2.93
4.14
6.03
7.88
9.20
9.82
9.83
9.40
8.60
7.32
5.32
2.40
-1.45
-5.90
-10.40
-14.38
-17.47
-19.71
-21.56
-23.63
-26.51
-30.40
-35.01
-39.55
-42.99
-44.26
-42.64
-37.87
-30.25
-20.57
-9.88
0.69
10.12
17.66
22.85
25.55
25.82
24.00
20.68
16.63
12.70
9.65
7.94
7.65
8.48
9.94
11.59
13.15
14.49
15.57
16.24
16.29
15.43
13.48
10.49
6.74
2.66
-1.31
-4.90
-8.00
-10.74
-13.35
-16.12
-19.29
-22.98
-27.14
-31.48
-35.45
-38.23
-38.90
-36.66
-31.14
-22.62
-12.06
-0.82
9.73
18.57
25.19
29.57
31.90
32.42
31.35
28.96
25.76
22.53
20.11
19.22
20.07
22.31
25.25
28.08
30.30
31.77
32.69
33.38
33.98
34.43
34.44
33.68
31.93
29.09
25.21
20.49
15.09
9.23
3.06
-3.38
-10.11
-17.14
-24.37
-31.39
-37.44
-41.54
-42.67
-40.15
-33.87
-24.46
-13.24
-1.90
7.88
14.82
18.22
18.12
15.05
9.87
3.52
-3.07
-9.04
-13.53
-15.74
-15.08
-11.38
-5.06
2.82
10.72
17.07
20.64
20.89
18.06
12.94
6.56
-0.13
-6.50
-12.18
-17.06
-21.08
-24.13
-26.12
-27.01
-26.93
-26.26
-25.47
-25.03
-25.19
-25.84
-26.54
-26.72
-25.87
-23.84
-20.79
-17.11
-13.23
-9.44
-5.90
-2.76
-0.25
1.23
1.26
-0.33
-3.35
-7.16
-10.89
-13.69
-15.00
-14.79
-13.37
-11.22
-8.77
-6.22
-3.62
-1.02
1.36
3.01
3.37
2.12
-0.66
-4.34
-8.09
-11.18
-13.22
-14.33
-15.02
-15.80
-17.08
-19.01
-21.52
-24.45
-27.48
-30.16
-31.87
-31.92
-29.73
-25.01
-17.92
-9.08
0.57
9.95
18.06
24.13
27.69
28.64
27.23
23.96
19.60
15.02
11.05
8.36
7.35
7.97
9.84
12.26
14.55
16.24
17.16
17.38
17.02
16.14
14.67
12.52
9.67
6.27
2.58
-1.11
-4.59
-7.81
-10.74
-13.48
-16.18
-19.05
-22.36
-26.27
-30.71
-35.19
-38.84
-40.58
-39.44
-34.92
-27.14
-16.91
-5.51
5.62
15.23
22.48
27.01
28.91
28.52
26.39
23.11
19.29
15.56
12.54
10.72
10.36
11.41
13.44
15.79
17.77
18.87
18.92
18.05
16.54
14.64
12.43
9.83
6.76
3.28
-0.32
-3.59
-6.15
-7.84
-8.91
-9.87
-11.36
-13.91
-17.75
-22.63
-27.90
-32.57
-35.55
-35.89
-33.09
-27.24
-19.03
-9.46
0.34
9.45
17.17
23.04
26.75
28.13
27.24
24.49
20.61
16.57
13.31
11.48
11.27
12.52
14.77
17.47
20.15
22.46
24.15
25.10
25.24
24.52
22.98
20.72
17.89
14.71
11.46
8.36
5.63
3.37
1.61
0.27
-0.86
-2.10
-3.89
-6.67
-10.62
-15.47
-20.37
-24.10
-25.44
-23.62
-18.60
-11.14
-2.43
6.28
13.96
19.96
23.82
25.25
24.17
20.81
15.91
10.64
6.38
4.18
4.41
6.71
10.23
14.09
17.67
20.77
23.49
25.96
28.04
29.45
29.89
29.25
27.78
25.93
24.09
22.33
20.23
17.08
12.20
5.25
-3.65
-14.05
-25.39
-37.28
-49.53
-61.92
-73.87
-84.31
-91.85
-95.24
-93.95
-88.42
-80.10
-70.99
-63.00
-57.49
-55.07
-55.75
-59.22
-65.04
-72.85
-82.26
-92.77
-103.62
-113.90
-122.63
-128.99
-132.42
-132.76
-130.04
-124.39
-115.82
-104.16
-89.15
-70.57
-48.55
-23.80
2.43
28.48
52.64
73.53
90.35
102.80
111.07
115.44
116.21
113.65
108.04
99.78
89.49
77.99
66.33
55.69
47.20
41.82
40.02
41.66
46.02
51.94
58.15
63.54
67.35
69.12
68.70
66.10
61.53
55.48
48.65
41.97
36.37
32.50
30.59
30.37
31.21
32.31
32.95
32.70
31.42
29.24
26.39
23.11
19.63
16.03
12.38
8.72
5.12
1.71
-1.36
-3.96
-6.07
-7.83
-9.48
-11.34
-13.67
-16.62
-20.27
-24.60
-29.51
-34.64
-39.33
-42.59
-43.27
-40.48
-33.96
-24.26
-12.60
-0.58
10.39
19.34
25.81
29.74
31.31
30.80
28.57
25.16
21.34
17.97
15.85
15.45
16.77
19.31
22.29
24.87
26.48
26.93
26.33
24.94
23.02
20.71
18.03
15.04
11.80
8.48
5.18
1.98
-1.17
-4.31
-7.44
-10.44
-13.09
-15.19
-16.72
-17.92
-19.32
-21.50
-24.84
-29.23
-33.93
-37.70
-39.19
-37.39
-32.00
-23.55
-13.16
-2.22
8.03
16.71
23.30
27.57
29.46
29.08
26.78
23.14
19.03
15.40
13.07
12.49
13.61
15.98
18.92
21.77
24.04
25.43
25.84
25.20
23.49
20.79
17.33
13.49
9.72
6.37
3.52
0.99
-1.52
-4.26
-7.27
-10.32
-13.07
-15.26
-16.92
-18.40
-20.23
-22.93
-26.75
-31.52
-36.62
-41.09
-43.88
-44.08
-41.19
-35.17
-26.52
-16.15
-5.16
5.35
14.41
21.34
25.78
27.66
27.19
24.84
21.32
17.48
14.19
12.13
11.66
12.72
14.97
17.82
20.68
23.09
24.71
25.39
25.13
24.01
22.19
19.84
17.17
14.25
11.10
7.69
3.98
0.06
-3.82
-7.40
-10.40
-12.74
-14.53
-16.15
-18.11
-20.91
-24.89
-30.02
-35.85
-41.54
-45.99
-48.15
-47.21
-42.87
-35.37
-25.49
-14.41
-3.37
6.43
14.15
19.43
22.34
23.31
22.92
21.68
20.00
18.18
16.49
15.25
14.82
15.43
17.09
19.45
21.98
24.09
25.35
25.56
24.77
23.16
20.93
18.27
15.35
12.33
9.35
6.54
3.96
1.54
-0.78
-3.18
-5.78
-8.61
-11.55
-14.39
-16.91
-19.07
-21.15
-23.74
-27.50
-32.71
-38.99
-45.20
-49.65
-50.76
-47.60
-40.27
-29.86
-18.03
-6.41
3.82
12.09
18.32
22.58
24.93
25.44
24.32
22.01
19.29
17.01
15.82
16.03
17.46
19.67
22.15
24.48
26.41
27.79
28.53
28.55
27.75
26.16
23.84
21.00
17.84
14.65
11.63
8.96
6.71
4.81
3.10
1.29
-0.84
-3.40
-6.30
-9.28
-12.04
-14.49
-16.81
-19.48
-23.08
-27.90
-33.75
-39.74
-44.54
-46.71
-45.25
-39.92
-31.32
-20.72
-9.65
0.52
8.86
14.96
18.78
20.54
20.51
19.10
16.78
14.14
11.84
10.46
10.35
11.47
13.49
15.90
18.23
20.21
21.68
22.62
22.88
22.29
20.67
18.03
14.67
11.08
7.80
5.14
3.13
1.50
-0.10
-1.95
-4.09
-6.42
-8.72
-10.78
-12.59
-14.23
-15.99
-18.20
-21.18
-25.07
-29.73
-34.64
-38.97
-41.69
-41.86
-38.89
-32.73
-23.95
-13.57
-2.83
7.13
15.41
21.53
25.28
26.75
26.22
24.15
21.12
17.72
14.57
12.10
10.64
10.29
11.04
12.69
14.91
17.26
19.20
20.24
20.06
18.59
16.05
12.84
9.42
6.13
3.16
0.52
-1.83
-3.99
-5.99
-7.88
-9.73
-11.64
-13.70
-15.91
-18.22
-20.55
-22.90
-25.45
-28.47
-32.20
-36.56
-41.01
-44.46
-45.60
-43.22
-36.80
-26.78
-14.47
-1.78
9.54
18.26
23.98
27.02
27.90
27.11
24.99
21.84
18.12
14.60
12.16
11.45
12.54
14.90
17.68
20.04
21.56
22.26
22.42
22.25
21.63
20.27
17.88
14.52
10.68
7.11
4.45
2.92
2.08
1.13
-0.68
-3.62
-7.29
-10.87
-13.59
-15.17
-16.08
-17.22
-19.52
-23.42
-28.73
-34.68
-40.26
-44.47
-46.55
-46.01
-42.58
-36.24
-27.32
-16.59
-5.18
5.66
14.74
21.28
24.96
25.94
24.73
22.04
18.68
15.48
13.16
12.20
12.77
14.69
17.50
20.63
23.55
25.98
27.75
28.78
28.95
28.10
26.14
23.13
19.39
15.37
11.53
8.15
5.27
2.74
0.31
-2.19
-4.80
-7.45
-9.99
-12.29
-14.36
-16.28
-18.26
-20.63
-23.69
-27.59
-32.27
-37.39
-42.27
-46.02
-47.65
-46.35
-41.72
-33.89
-23.58
-11.95
-0.37
9.94
18.08
23.53
26.17
26.23
24.20
20.72
16.56
12.46
9.05
6.71
5.64
5.80
7.00
8.90
11.03
12.83
13.76
13.45
11.84
9.18
5.93
2.51
-0.84
-4.11
-7.48
-11.10
-14.94
-18.73
-22.05
-24.59
-26.32
-27.57
-28.82
-30.56
-33.10
-36.50
-40.65
-45.33
-50.24
-54.87
-58.47
-60.02
-58.50
-53.14
-43.91
-31.58
-17.63
-3.82
8.27
17.59
23.80
27.12
28.09
27.35
25.40
22.71
19.68
16.82
14.67
13.76
14.34
16.24
18.88
21.43
23.11
23.50
22.64
21.03
19.22
17.60
16.16
14.56
12.40
9.41
5.71
1.76
-1.87
-4.79
-6.95
-8.68
-10.49
-12.86
-16.03
-19.87
-24.01
-27.86
-30.78
-32.15
-31.45
-28.35
-22.81
-15.16
-6.11
3.37
12.21
19.47
24.60
27.45
28.30
27.64
26.00
23.83
21.40
18.83
16.28
13.96
12.16
11.20
11.22
12.07
13.31
14.39
14.85
14.49
13.43
11.97
10.43
8.95
7.42
5.62
3.35
0.58
-2.54
-5.69
-8.63
-11.27
-13.74
-16.35
-19.51
-23.52
-28.48
-34.09
-39.74
-44.54
-47.51
-47.83
-45.00
-38.94
-30.06
-19.12
-7.16
4.73
15.51
24.39
30.85
34.73
36.22
35.75
33.98
31.59
29.14
27.06
25.61
24.88
24.87
25.44
26.40
27.47
28.36
28.91
29.07
28.95
28.64
28.13
27.18
25.45
22.62
18.64
13.76
8.51
3.56
-0.58
-3.71
-6.02
-8.14
-10.84
-14.82
-20.32
-26.96
-33.78
-39.49
-42.88
-43.15
-40.12
-34.17
-26.09
-16.82
-7.35
1.30
8.26
12.88
14.88
14.47
12.23
8.95
5.32
1.82
-1.29
-3.82
-5.50
-6.00
-5.14
-3.06
-0.34
2.21
3.85
4.23
3.45
1.89
-0.09
-2.35
-5.04
-8.27
-11.98
-15.77
-19.06
-21.43
-22.89
-23.97
-25.53
-28.35
-32.72
-38.14
-43.43
-46.98
-47.36
-43.71
-36.07
-25.26
-12.63
0.36
12.49
22.88
31.05
36.76
39.97
40.85
39.82
37.52
34.76
32.36
30.87
30.55
31.28
32.66
34.19
35.40
36.01
35.94
35.20
33.89
32.05
29.57
26.30
22.09
16.98
11.27
5.45
0.10
-4.36
-7.75
-10.35
-12.80
-15.92
-20.43
-26.60
-34.01
-41.51
-47.52
-50.50
-49.51
-44.49
-36.22
-26.06
-15.34
-5.10
4.04
11.77
17.83
21.97
23.99
23.95
22.28
19.76
17.27
15.48
14.68
14.73
15.26
15.94
16.57
17.14
17.69
18.16
18.33
17.87
16.54
14.26
11.13
7.41
3.29
-1.03
-5.44
-9.77
-13.78
-17.23
-19.94
-21.96
-23.63
-25.51
-28.20
-32.07
-37.00
-42.32
-46.81
-49.11
-48.05
-43.11
-34.58
-23.46
-11.19
0.81
11.38
19.83
25.90
29.60
31.14
30.91
29.40
27.23
24.99
23.20
22.16
22.00
22.63
23.82
25.26
26.64
27.64
28.12
28.03
27.46
26.52
25.23
23.53
21.26
18.35
14.85
11.03
7.21
3.70
0.64
-2.00
-4.34
-6.51
-8.69
-11.06
-13.88
-17.49
-22.08
-27.55
-33.33
-38.47
-41.82
-42.36
-39.53
-33.30
-24.24
-13.25
-1.49
9.86
19.69
27.15
31.73
33.36
32.45
29.75
26.21
22.68
19.81
17.93
17.14
17.38
18.45
20.04
21.76
23.22
23.85
23.30
21.42
18.36
14.63
10.87
7.55
4.81
2.27
-0.64
-4.39
-8.96
-13.80
-18.07
-21.12
-22.82
-23.83
-25.19
-27.92
-32.48
-38.55
-45.14
-51.00
-54.93
-56.19
-54.42
-49.60
-41.91
-31.76
-19.86
-7.32
4.49
14.12
20.54
23.40
23.15
20.84
17.64
14.53
12.08
10.42
9.45
9.07
9.24
9.94
11.14
12.62
14.11
15.20
15.54
14.92
13.29
10.83
7.82
4.55
1.32
-1.68
-4.35
-6.63
-8.51
-10.01
-11.12
-11.89
-12.37
-12.69
-13.04
-13.70
-15.02
-17.31
-20.77
-25.27
-30.22
-34.58
-37.04
-36.40
-31.99
-23.86
-12.82
-0.17
12.65
24.38
34.08
41.19
45.50
47.04
46.19
43.58
40.02
36.36
33.27
31.14
30.08
29.95
30.49
31.40
32.41
33.34
34.00
34.15
33.56
32.00
29.39
25.89
21.87
17.81
14.05
10.69
7.53
4.22
0.54
-3.49
-7.57
-11.30
-14.39
-16.89
-19.09
-21.46
-24.45
-28.32
-33.02
-38.22
-43.30
-47.38
-49.52
-48.81
-44.78
-37.48
-27.58
-16.25
-4.82
5.49
13.83
19.75
23.21
24.38
23.66
21.50
18.47
15.18
12.18
9.99
8.94
9.23
10.81
13.46
16.73
20.11
23.01
24.96
25.64
24.95
23.05
20.32
17.14
13.83
10.47
7.02
3.33
-0.61
-4.55
-8.12
-10.97
-13.05
-14.70
-16.48
-19.01
-22.67
-27.43
-32.90
-38.46
-43.35
-46.79
-48.00
-46.35
-41.49
-33.52
-23.06
-11.22
0.64
11.19
19.51
25.13
28.07
28.69
27.50
25.03
21.77
18.20
14.81
12.11
10.51
10.20
11.11
12.90
15.01
16.86
17.99
18.21
17.54
16.22
14.50
12.61
10.59
8.39
5.89
3.02
-0.19
-3.62
-7.09
-10.43
-13.54
-16.36
-18.91
-21.30
-23.71
-26.41
-29.67
-33.74
-38.68
-44.19
-49.46
-53.31
-54.42
-51.76
-44.99
-34.70
-22.25
-9.35
2.40
11.94
18.83
23.12
25.14
25.30
23.97
21.57
18.60
15.69
13.40
12.13
12.04
12.93
14.40
15.97
17.22
17.88
17.81
17.03
15.63
13.73
11.46
8.93
6.18
3.27
0.25
-2.77
-5.64
-8.25
-10.54
-12.60
-14.63
-16.78
-19.08
-21.43
-23.72
-25.91
-28.21
-30.82
-33.85
-36.93
-39.25
-39.68
-37.23
-31.43
-22.50
-11.42
0.52
11.98
21.95
29.86
35.49
38.79
39.82
38.69
35.67
31.31
26.44
21.97
18.67
16.96
16.75
17.63
19.03
20.46
21.67
22.46
22.75
22.41
21.33
19.53
17.18
14.55
11.92
9.28
6.52
3.41
-0.16
-4.04
-7.85
-11.15
-13.67
-15.52
-17.18
-19.28
-22.37
-26.63
-31.76
-37.07
-41.64
-44.59
-45.21
-43.11
-38.24
-30.87
-21.59
-11.29
-1.00
8.17
15.29
19.76
21.46
20.76
18.33
14.95
11.39
8.17
5.70
4.21
3.86
4.64
6.42
8.86
11.48
13.78
15.36
16.01
15.72
14.60
12.79
10.34
7.29
3.64
-0.48
-4.79
-8.94
-12.60
-15.55
-17.84
-19.76
-21.70
-24.08
-27.22
-31.19
-35.66
-39.95
-43.06
-43.93
-41.72
-36.15
-27.67
-17.34
-6.50
3.54
11.86
18.00
21.88
23.61
23.35
21.33
17.86
13.55
9.16
5.57
3.53
3.40
5.08
7.96
11.17
13.87
15.54
16.06
15.72
14.89
13.81
12.41
10.39
7.41
3.41
-1.28
-6.10
-10.40
-13.80
-16.34
-18.38
-20.46
-23.07
-26.48
-30.76
-35.74
-40.98
-45.85
-49.48
-50.93
-49.39
-44.47
-36.34
-25.79
-14.05
-2.54
7.52
15.31
20.53
23.34
24.19
23.61
22.08
19.98
17.66
15.49
13.92
13.38
14.03
15.71
17.90
19.92
21.21
21.54
21.02
19.93
18.48
16.65
14.24
10.99
6.90
2.25
-2.48
-6.71
-10.12
-12.67
-14.60
-16.26
-18.08
-20.38
-23.37
-27.14
-31.56
-36.18
-40.28
-42.84
-42.88
-39.71
-33.21
-23.89
-12.88
-1.55
8.73
16.87
22.29
24.91
25.10
23.53
20.89
17.84
14.89
12.39
10.66
9.99
10.52
12.20
14.60
17.08
18.92
19.68
19.38
18.42
17.31
16.37
15.36
13.79
11.11
7.13
2.19
-2.97
-7.57
-11.07
-13.55
-15.44
-17.37
-19.78
-22.83
-26.43
-30.43
-34.70
-39.17
-43.57
-47.28
-49.29
-48.48
-44.05
-35.91
-24.86
-12.57
-0.89
8.60
15.15
18.83
20.36
20.59
20.17
19.34
18.09
16.44
14.73
13.58
13.64
15.24
18.15
21.60
24.60
26.32
26.40
25.01
22.67
19.98
17.38
14.95
12.54
9.90
6.90
3.61
0.34
-2.57
-4.80
-6.32
-7.37
-8.46
-10.16
-12.95
-17.05
-22.38
-28.58
-34.99
-40.83
-45.16
-47.06
-45.82
-41.11
-33.17
-22.85
-11.45
-0.40
9.07
16.18
20.67
22.69
22.68
21.22
18.94
16.50
14.47
13.28
13.12
13.94
15.49
17.45
19.51
21.34
22.73
23.41
23.21
22.04
19.97
17.23
14.12
10.96
7.93
5.01
2.09
-1.03
-4.41
-7.99
-11.53
-14.75
-17.44
-19.59
-21.42
-23.31
-25.63
-28.62
-32.37
-36.67
-41.11
-45.03
-47.59
-47.89
-45.24
-39.30
-30.34
-19.30
-7.55
3.42
12.44
18.89
22.75
24.49
24.78
24.20
23.18
22.08
21.16
20.70
21.03
22.34
24.65
27.67
30.86
33.63
35.44
36.06
35.59
34.38
32.81
31.16
29.49
27.69
25.63
23.22
20.56
17.86
15.33
13.05
10.95
8.84
6.52
3.88
0.89
-2.34
-5.69
-9.18
-13.00
-17.43
-22.61
-28.38
-34.05
-38.46
-40.36
-38.71
-33.17
-24.18
-12.92
-0.90
10.44
20.09
27.56
32.73
35.73
36.70
35.85
33.50
30.19
26.70
23.85
22.26
22.15
23.23
24.89
26.43
27.34
27.44
26.79
25.53
23.74
21.37
18.33
14.66
10.58
6.46
2.65
-0.73
-3.80
-6.89
-10.25
-13.97
-17.83
-21.49
-24.64
-27.18
-29.33
-31.52
-34.17
-37.57
-41.66
-45.95
-49.67
-51.83
-51.59
-48.41
-42.25
-33.55
-23.17
-12.13
-1.41
8.20
16.15
22.08
25.74
27.07
26.23
23.70
20.25
16.86
14.34
13.19
13.44
14.72
16.45
18.13
19.44
20.29
20.68
20.54
19.74
18.05
15.31
11.56
7.01
2.03
-3.00
-7.77
-12.10
-15.93
-19.28
-22.28
-25.19
-28.37
-32.23
-37.06
-42.68
-48.43
-53.13
-55.46
-54.37
-49.47
-41.20
-30.65
-19.21
-8.15
1.59
9.45
15.15
18.65
20.07
19.79
18.42
16.71
15.32
14.64
14.66
15.18
15.91
16.71
17.55
18.50
19.57
20.62
21.45
21.80
21.50
20.42
18.53
15.84
12.43
8.44
4.15
-0.12
-4.05
-7.36
-9.96
-12.00
-13.87
-16.27
-19.80
-24.74
-30.71
-36.59
-40.80
-41.87
-38.98
-32.34
-23.12
-12.90
-3.16
5.15
11.66
16.37
19.37
20.66
20.29
18.47
15.80
13.13
11.38
11.17
12.61
15.21
18.19
20.80
22.56
23.43
23.69
23.67
23.61
23.44
22.92
21.70
19.57
16.57
13.06
9.46
6.25
3.68
1.72
0.10
-1.59
-3.82
-6.92
-10.98
-15.71
-20.42
-24.11
-25.65
-24.20
-19.50
-12.00
-2.78
6.82
15.62
22.83
28.09
31.29
32.41
31.53
28.88
24.96
20.64
16.91
14.60
14.06
15.02
16.84
18.73
20.12
20.87
21.14
21.13
20.89
20.12
18.41
15.44
11.23
6.22
1.09
-3.52
-7.27
-10.22
-12.69
-15.11
-17.82
-21.01
-24.72
-28.84
-33.06
-36.84
-39.37
-39.73
-37.18
-31.52
-23.20
-13.32
-3.30
5.59
12.49
17.14
19.70
20.54
19.97
18.29
15.72
12.64
9.59
7.19
5.98
6.15
7.51
9.48
11.36
12.64
13.09
12.86
12.24
11.46
10.51
9.18
7.16
4.27
0.61
-3.41
-7.25
-10.40
-12.62
-14.00
-14.98
-16.19
-18.21
-21.42
-25.71
-30.49
-34.79
-37.47
-37.62
-34.72
-28.89
-20.79
-11.41
-1.85
6.91
14.15
19.41
22.51
23.53
22.73
20.57
17.52
14.13
10.90
8.26
6.62
6.19
7.01
8.86
11.30
13.75
15.72
16.81
16.92
16.14
14.69
12.83
10.67
8.22
5.39
2.07
-1.72
-5.78
-9.74
-13.20
-15.99
-18.21
-20.24
-22.53
-25.43
-28.98
-32.92
-36.69
-39.76
-41.55
-41.55
-39.34
-34.64
-27.42
-18.13
-7.68
2.60
11.38
17.65
21.02
21.79
20.66
18.46
15.81
12.96
10.04
7.20
4.84
3.51
3.71
5.49
8.45
11.62
14.02
14.99
14.44
12.88
10.99
9.28
7.86
6.33
4.18
1.09
-2.81
-6.99
-10.79
-13.73
-15.73
-17.20
-18.76
-21.02
-24.28
-28.40
-32.74
-36.35
-38.20
-37.50
-33.90
-27.56
-19.20
-9.74
-0.22
8.53
15.90
21.53
25.23
26.96
26.76
24.85
21.63
17.70
13.82
10.67
8.79
8.34
9.07
10.48
11.92
12.91
13.24
12.97
12.36
11.55
10.56
9.14
7.00
3.95
0.12
-4.13
-8.32
-12.01
-15.11
-17.78
-20.45
-23.53
-27.30
-31.79
-36.77
-41.76
-46.10
-48.97
-49.54
-47.14
-41.42
-32.60
-21.47
-9.29
2.49
12.55
19.99
24.43
26.03
25.25
22.71
19.03
14.83
10.70
7.28
5.12
4.57
5.65
7.95
10.80
13.45
15.34
16.21
16.16
15.47
14.40
13.06
11.35
9.07
6.09
2.40
-1.75
-5.97
-9.89
-13.26
-16.01
-18.30
-20.41
-22.69
-25.47
-28.92
-33.01
-37.42
-41.56
-44.57
-45.52
-43.65
-38.59
-30.51
-20.14
-8.67
2.66
12.64
20.47
25.77
28.53
29.07
27.88
25.51
22.60
19.79
17.65
16.57
16.72
17.96
19.93
22.16
24.13
25.35
25.58
24.75
22.99
20.54
17.68
14.58
11.31
7.83
4.09
0.15
-3.83
-7.58
-10.86
-13.60
-15.87
-18.00
-20.36
-23.32
-27.11
-31.63
-36.46
-40.80
-43.67
-44.15
-41.56
-35.76
-27.13
-16.53
-5.12
5.89
15.46
22.78
27.42
29.31
28.79
26.50
23.24
19.79
16.78
14.56
13.30
13.03
13.71
15.17
17.16
19.29
21.13
22.31
22.67
22.29
21.35
20.08
18.56
16.77
14.61
12.01
9.06
6.03
3.28
1.15
-0.26
-1.18
-2.16
-3.85
-6.76
-10.96
-15.96
-20.83
-24.43
-25.75
-24.16
-19.62
-12.53
-3.70
5.85
15.13
23.25
29.55
33.59
35.26
34.63
32.08
28.19
23.68
19.33
15.78
13.48
12.55
12.89
14.15
15.90
17.65
18.98
19.54
19.12
17.72
15.50
12.71
9.59
6.33
2.95
-0.57
-4.28
-8.20
-12.22
-16.18
-19.87
-23.21
-26.22
-29.09
-32.16
-35.78
-40.13
-45.03
-49.92
-53.91
-55.95
-55.19
-51.19
-44.07
-34.49
-23.54
-12.43
-2.39
5.70
11.27
14.19
14.71
13.33
10.74
7.73
5.00
3.18
2.67
3.64
5.92
9.06
12.51
15.66
17.99
19.21
19.25
18.25
16.46
14.09
11.30
8.19
4.76
1.09
-2.63
-6.12
-9.09
-11.43
-13.34
-15.33
-18.11
-22.21
-27.72
-34.03
-39.91
-43.85
-44.57
-41.44
-34.70
-25.35
-14.80
-4.44
4.70
11.97
17.09
20.03
20.87
19.82
17.25
13.71
9.85
6.43
4.05
3.09
3.60
5.27
7.52
9.72
11.30
12.05
12.01
11.48
10.76
9.89
8.66
6.63
3.53
-0.63
-5.42
-10.14
-14.14
-17.13
-19.27
-21.10
-23.33
-26.48
-30.77
-35.99
-41.49
-46.35
-49.52
-50.05
-47.34
-41.28
-32.28
-21.18
-9.07
2.89
13.66
22.43
28.71
32.35
33.54
32.74
30.57
27.74
24.92
22.69
21.49
21.51
22.62
24.44
26.44
28.13
29.20
29.63
29.53
29.12
28.45
27.46
25.99
23.92
21.25
18.09
14.63
11.09
7.66
4.45
1.53
-1.20
-3.97
-7.20
-11.31
-16.59
-22.98
-29.90
-36.28
-40.79
-42.23
-39.91
-33.83
-24.73
-13.79
-2.42
8.13
16.89
23.29
27.10
28.41
27.57
25.08
21.62
17.88
14.49
11.93
10.44
9.98
10.34
11.20
12.26
13.26
14.05
14.46
14.31
13.43
11.66
9.01
5.64
1.83
-2.06
-5.74
-9.02
-11.85
-14.20
-16.10
-17.55
-18.71
-19.84
-21.38
-23.79
-27.34
-31.88
-36.74
-40.84
-42.97
-42.20
-38.11
-30.97
-21.58
-11.03
-0.42
9.30
17.42
23.45
27.10
28.31
27.27
24.45
20.63
16.77
13.71
12.08
12.13
13.67
16.24
19.25
22.13
24.42
25.73
25.82
24.61
22.25
19.15
15.87
12.92
10.60
8.78
7.08
5.11
2.75
0.28
-1.81
-3.12
-3.73
-4.33
-5.90
-9.31
-14.72
-21.44
-28.08
-33.06
-35.13
-33.75
-29.07
-21.73
-12.57
-2.43
7.81
17.28
25.15
30.68
33.46
33.52
31.36
27.78
23.68
19.81
16.77
14.85
14.21
14.78
16.34
18.45
20.57
22.19
22.97
22.80
21.81
20.29
18.53
16.71
14.86
12.90
10.70
8.16
5.28
2.14
-1.08
-4.21
-7.17
-9.97
-12.73
-15.58
-18.64
-22.02
-25.86
-30.24
-35.11
-40.09
-44.32
-46.67
-46.01
-41.69
-33.86
-23.47
-11.98
-0.89
8.70
16.26
21.67
25.04
26.47
26.02
23.90
20.52
16.61
13.06
10.64
9.76
10.31
11.77
13.39
14.48
14.68
13.93
12.44
10.48
8.21
5.64
2.63
-0.94
-5.01
-9.33
-13.55
-17.34
-20.55
-23.26
-25.70
-28.15
-30.80
-33.73
-36.94
-40.38
-43.90
-47.15
-49.56
-50.27
-48.43
-43.42
-35.15
-24.22
-11.81
0.63
11.73
20.55
26.71
30.28
31.63
31.24
29.51
26.85
23.77
20.84
18.70
17.87
18.49
20.28
22.63
24.83
26.32
26.92
26.79
26.18
25.27
24.02
22.19
19.49
15.82
11.35
6.54
1.92
-2.10
-5.36
-8.05
-10.53
-13.26
-16.58
-20.65
-25.47
-30.82
-36.31
-41.28
-44.87
-46.09
-44.13
-38.56
-29.67
-18.40
-6.16
5.55
15.57
23.24
28.48
31.54
32.84
32.77
31.67
29.89
27.82
25.90
24.53
24.06
24.59
25.99
27.87
29.62
30.72
30.68
29.40
27.06
24.11
21.02
18.10
15.40
12.76
9.99
7.03
4.04
1.33
-0.87
-2.57
-4.00
-5.55
-7.59
-10.35
-13.90
-18.21
-23.19
-28.71
-34.39
-39.49
-42.93
-43.57
-40.57
-33.83
-24.13
-12.93
-1.95
7.41
14.34
18.72
20.86
21.20
20.12
17.93
14.98
11.74
8.86
6.94
6.39
7.23
9.11
11.51
13.82
15.59
16.55
16.63
15.93
14.68
13.13
11.44
9.63
7.56
5.07
2.08
-1.24
-4.54
-7.45
-9.76
-11.54
-13.10
-14.75
-16.72
-19.03
-21.57
-24.36
-27.52
-31.23
-35.38
-39.50
-42.60
-43.53
-41.40
-35.94
-27.67
-17.70
-7.32
2.32
10.49
16.80
21.08
23.25
23.30
21.40
18.05
14.02
10.27
7.70
6.86
7.83
10.16
13.11
15.82
17.71
18.52
18.27
17.21
15.56
13.50
11.13
8.54
5.80
3.00
0.17
-2.69
-5.56
-8.36
-10.92
-13.08
-14.80
-16.30
-18.14
-20.94
-25.10
-30.56
-36.60
-42.02
-45.44
-45.76
-42.52
-36.00
-27.02
-16.72
-6.16
3.79
12.45
19.39
24.22
26.79
27.16
25.73
23.13
20.16
17.51
15.71
15.00
15.35
16.60
18.45
20.56
22.55
24.01
24.65
24.27
22.89
20.65
17.78
14.47
10.81
6.91
2.89
-1.04
-4.66
-7.79
-10.39
-12.58
-14.53
-16.43
-18.40
-20.50
-22.88
-25.76
-29.42
-33.96
-39.09
-44.02
-47.52
-48.20
-45.05
-37.78
-27.07
-14.39
-1.56
9.77
18.55
24.48
27.78
28.98
28.57
26.93
24.46
21.59
18.90
16.98
16.25
16.77
18.24
20.12
21.88
23.19
23.94
24.20
24.07
23.51
22.36
20.45
17.75
14.49
11.04
7.90
5.32
3.27
1.44
-0.60
-3.14
-6.21
-9.53
-12.70
-15.39
-17.57
-19.52
-21.78
-24.90
-29.17
-34.46
-40.15
-45.25
-48.54
-48.90
-45.65
-38.75
-28.89
-17.31
-5.47
5.27
13.96
20.15
23.79
25.13
24.59
22.63
19.74
16.45
13.30
10.78
9.31
9.11
10.15
12.17
14.75
17.39
19.64
21.15
21.73
21.31
19.92
17.71
14.93
11.88
8.79
5.82
2.95
0.11
-2.73
-5.49
-8.02
-10.17
-11.96
-13.56
-15.28
-17.50
-20.48
-24.31
-28.85
-33.66
-38.05
-41.13
-42.00
-39.92
-34.62
-26.36
-16.07
-5.02
5.44
14.24
20.76
24.92
26.93
27.08
25.65
22.91
19.27
15.35
11.95
9.78
9.25
10.31
12.44
14.93
17.14
18.62
19.30
19.30
18.79
17.88
16.46
14.38
11.51
8.00
4.29
0.91
-1.68
-3.39
-4.63
-6.05
-8.20
-11.26
-14.86
-18.33
-21.07
-22.97
-24.57
-26.84
-30.64
-36.23
-42.91
-49.17
-53.22
-53.61
-49.82
-42.35
-32.39
-21.35
-10.38
-0.21
8.71
16.07
21.46
24.55
25.21
23.74
20.85
17.41
14.28
12.08
11.07
11.25
12.43
14.34
16.69
19.16
21.41
23.18
24.23
24.42
23.72
22.10
19.66
16.54
13.00
9.37
5.99
3.05
0.55
-1.75
-4.17
-6.94
-10.10
-13.39
-16.47
-19.02
-21.01
-22.69
-24.54
-27.12
-30.76
-35.45
-40.79
-45.98
-50.00
-51.84
-50.64
-45.98
-38.01
-27.40
-15.32
-3.17
7.70
16.28
22.09
25.15
25.92
25.00
23.00
20.42
17.66
15.08
13.05
11.89
11.82
12.89
14.90
17.51
20.24
22.61
24.30
25.09
24.93
23.88
22.10
19.80
17.17
14.37
11.54
8.80
6.18
3.71
1.37
-0.90
-3.16
-5.43
-7.70
-9.96
-12.14
-14.19
-16.11
-18.04
-20.27
-23.19
-27.08
-31.93
-37.23
-41.94
-44.82
-44.73
-41.04
-33.91
-24.16
-13.06
-1.97
7.99
16.05
21.82
25.15
26.10
24.92
22.03
18.09
13.91
10.37
8.19
7.76
9.03
11.60
14.78
17.90
20.47
22.24
23.23
23.56
23.27
22.39
20.87
18.69
16.04
13.16
10.32
7.68
5.13
2.45
-0.62
-4.20
-8.16
-12.23
-16.05
-19.45
-22.53
-25.64
-29.28
-33.79
-39.19
-45.02
-50.34
-53.99
-54.91
-52.35
-46.18
-36.90
-25.48
-13.22
-1.44
8.74
16.49
21.46
23.66
23.46
21.46
18.42
15.12
12.27
10.39
9.75
10.38
12.06
14.52
17.38
20.30
22.93
24.97
26.15
26.27
25.26
23.23
20.39
17.06
13.51
9.94
6.48
3.19
0.15
-2.58
-5.01
-7.20
-9.29
-11.43
-13.66
-15.98
-18.33
-20.75
-23.46
-26.86
-31.32
-36.93
-43.30
-49.43
-53.93
-55.39
-52.80
-45.96
-35.46
-22.68
-9.27
3.17
13.50
21.14
26.04
28.48
28.92
27.85
25.77
23.21
20.75
18.95
18.21
18.69
20.27
22.57
25.14
27.53
29.52
30.97
31.87
32.12
31.54
29.94
27.16
23.24
18.56
13.67
9.18
5.45
2.51
0.02
-2.47
-5.32
-8.57
-11.99
-15.22
-17.98
-20.25
-22.25
-24.38
-27.05
-30.62
-35.18
-40.51
-45.98
-50.54
-52.97
-52.16
-47.50
-39.13
-27.97
-15.40
-2.91
8.19
17.07
23.28
26.74
27.63
26.28
23.25
19.27
15.19
11.93
10.21
10.42
12.49
15.80
19.47
22.65
24.73
25.62
25.57
25.00
24.16
22.99
21.19
18.49
14.94
10.96
7.23
4.29
2.35
1.11
-0.02
-1.62
-3.98
-6.97
-10.18
-13.22
-15.81
-18.02
-20.14
-22.56
-25.65
-29.61
-34.39
-39.55
-44.28
-47.50
-48.13
-45.37
-39.02
-29.63
-18.26
-6.31
4.95
14.52
21.90
26.86
29.44
29.84
28.38
25.55
22.04
18.64
16.12
15.02
15.54
17.51
20.54
24.03
27.45
30.33
32.30
33.17
32.82
31.27
28.70
25.40
21.72
18.02
14.53
11.28
8.15
4.86
1.26
-2.60
-6.45
-9.91
-12.68
-14.79
-16.63
-18.88
-22.16
-26.83
-32.71
-39.05
-44.68
-48.20
-48.42
-44.62
-36.82
-25.78
-12.84
0.49
12.74
22.83
30.13
34.46
36.02
35.39
33.33
30.69
28.20
26.37
25.39
25.25
25.80
26.92
28.51
30.42
32.46
34.32
35.63
36.09
35.53
33.95
31.53
28.66
25.85
23.66
22.46
22.27
22.60
22.48
20.72
16.36
9.05
-0.83
-12.24
-23.91
-34.76
-44.18
-52.09
-58.74
-64.45
-69.27
-72.96
-74.92
-74.40
-70.68
-63.37
-52.57
-38.97
-23.74
-8.34
5.87
17.80
26.77
32.42
34.60
33.30
28.80
21.78
13.34
4.95
-1.97
-6.38
-7.94
-6.90
-4.01
-0.12
4.05
8.06
11.68
14.85
17.43
19.29
20.24
20.17
19.16
17.45
15.45
13.53
11.76
9.97
7.85
5.16
1.95
-1.37
-4.33
-6.60
-8.31
-9.97
-12.22
-15.55
-20.04
-25.35
-30.93
-36.12
-40.40
-43.21
-43.95
-42.05
-37.11
-29.19
-19.01
-7.83
2.75
11.29
17.00
19.86
20.44
19.62
18.10
16.29
14.19
11.78
9.34
7.52
7.17
8.91
12.71
17.77
22.71
26.17
27.34
26.28
23.75
20.75
17.99
15.73
13.64
11.27
8.31
4.78
1.01
-2.52
-5.51
-7.84
-9.64
-11.12
-12.50
-13.94
-15.57
-17.58
-20.19
-23.50
-27.34
-31.10
-33.71
-33.95
-30.89
-24.22
-14.47
-2.77
9.43
20.82
30.42
37.69
42.39
44.53
44.31
42.17
38.76
34.93
31.59
29.46
28.98
30.16
32.67
35.97
39.55
42.97
46.00
48.41
49.91
50.10
48.53
44.90
39.28
32.11
24.07
15.85
7.99
0.78
-5.58
-10.92
-15.04
-17.86
-19.53
-20.48
-21.27
-22.37
-23.91
-25.49
-26.39
-25.86
-23.48
-19.38
-14.21
-8.85
-4.11
-0.39
2.34
4.36
5.94
7.09
7.60
7.18
5.75
3.68
1.72
0.76
1.60
4.74
10.29
17.88
26.65
35.21
41.80
44.60
42.31
34.52
21.94
6.14
-10.96
-27.64
-42.67
-55.43
-65.60
-73.07
-77.77
-79.80
-79.52
-77.49
-74.49
-71.26
-68.43
-66.56
-65.95
-66.75
-68.78
-71.45
-73.83
-74.78
-73.30
-68.72
-60.94
-50.40
-37.93
-24.61
-11.55
0.25
9.95
16.93
20.96
22.16
21.04
18.41
15.26
12.55
11.03
11.03
12.53
15.16
18.39
21.74
24.81
27.38
29.35
30.62
31.15
30.87
29.79
27.97
25.50
22.56
19.27
15.77
12.22
8.77
5.53
2.50
-0.44
-3.51
-6.99
-11.15
-16.07
-21.58
-27.13
-31.81
-34.55
-34.39
-30.85
-24.12
-15.07
-4.93
5.10
14.15
21.75
27.66
31.69
33.63
33.34
31.04
27.39
23.44
20.26
18.57
18.52
19.68
21.37
22.92
23.95
24.40
24.41
24.17
23.77
23.15
22.12
20.38
17.71
13.99
9.42
4.40
-0.53
-4.89
-8.46
-11.30
-13.72
-16.08
-18.73
-21.91
-25.74
-30.20
-34.98
-39.44
-42.62
-43.44
-41.07
-35.22
-26.36
-15.64
-4.47
5.80
14.24
20.39
24.20
25.79
25.36
23.17
19.66
15.49
11.58
8.87
8.02
9.11
11.68
14.81
17.65
19.63
20.71
21.21
21.51
21.74
21.68
20.85
18.82
15.53
11.30
6.74
2.45
-1.26
-4.37
-7.06
-9.50
-11.81
-14.09
-16.62
-19.81
-24.02
-29.21
-34.73
-39.36
-41.76
-40.93
-36.67
-29.54
-20.55
-10.78
-1.03
8.18
16.47
23.54
28.97
32.46
33.90
33.57
32.02
30.01
28.25
27.17
26.83
26.97
27.16
27.09
26.66
26.07
25.54
25.15
24.60
23.33
20.85
16.98
12.12
7.01
2.50
-0.87
-3.05
-4.46
-5.68
-7.21
-9.37
-12.18
-15.55
-19.21
-22.80
-25.76
-27.46
-27.35
-25.10
-20.78
-14.79
-7.76
-0.37
6.81
13.25
18.47
22.01
23.52
22.92
20.53
17.05
13.39
10.41
8.62
8.10
8.62
9.69
10.85
11.79
12.35
12.49
12.15
11.27
9.72
7.42
4.41
0.90
-2.78
-6.32
-9.57
-12.57
-15.49
-18.56
-21.89
-25.50
-29.33
-33.38
-37.73
-42.30
-46.72
-50.22
-51.75
-50.33
-45.41
-37.22
-26.64
-15.08
-3.88
5.84
13.44
18.68
21.53
22.12
20.72
17.80
14.04
10.30
7.40
5.89
5.93
7.29
9.46
11.92
14.27
16.24
17.74
18.73
19.07
18.62
17.21
14.74
11.26
7.07
2.60
-1.63
-5.16
-7.84
-9.74
-11.29
-13.04
-15.56
-19.16
-23.76
-28.87
-33.59
-36.88
-37.78
-35.64
-30.35
-22.32
-12.44
-1.88
8.10
16.48
22.54
26.08
27.27
26.62
24.75
22.25
19.63
17.26
15.44
14.31
13.91
14.13
14.77
15.59
16.41
17.09
17.50
17.53
16.93
15.50
13.03
9.55
5.22
0.48
-4.10
-8.00
-10.86
-12.71
-14.01
-15.54
-18.16
-22.36
-28.02
-34.27
-39.74
-42.95
-42.83
-39.03
-31.99
-22.75
-12.59
-2.71
6.02
13.13
18.31
21.46
22.62
21.95
19.96
17.37
15.04
13.73
13.69
14.75
16.39
18.09
19.66
21.24
23.12
25.35
27.48
28.68
28.08
25.24
20.44
14.51
8.47
3.08
-1.51
-5.63
-9.83
-14.57
-19.93
-25.71
-31.55
-37.01
-41.74
-45.27
-46.96
-46.06
-41.90
-34.19
-23.35
-10.56
2.45
13.89
22.45
27.66
29.93
30.16
29.27
27.94
26.40
24.70
22.90
21.26
20.15
19.87
20.48
21.78
23.40
24.97
26.19
26.80
26.53
25.08
22.23
18.04
12.84
7.26
1.92
-2.67
-6.36
-9.29
-11.86
-14.52
-17.66
-21.48
-25.87
-30.36
-34.06
-35.89
-34.86
-30.39
-22.62
-12.46
-1.31
9.31
18.16
24.50
28.13
29.26
28.25
25.51
21.48
16.69
11.84
7.77
5.21
4.57
5.75
8.10
10.74
12.82
13.90
13.99
13.38
12.37
11.07
9.31
6.84
3.51
-0.56
-4.97
-9.20
-12.77
-15.52
-17.53
-19.22
-21.12
-23.74
-27.29
-31.63
-36.09
-39.68
-41.30
-40.04
-35.53
-28.04
-18.38
-7.69
2.88
12.35
20.01
25.37
28.20
28.44
26.32
22.33
17.30
12.17
7.88
5.10
4.15
4.94
6.98
9.63
12.22
14.26
15.47
15.87
15.59
14.81
13.58
11.93
9.80
7.19
4.12
0.71
-2.86
-6.34
-9.52
-12.22
-14.45
-16.37
-18.33
-20.71
-23.84
-27.79
-32.27
-36.57
-39.69
-40.58
-38.42
-32.92
-24.44
-13.86
-2.43
8.60
18.27
25.94
31.28
34.18
34.67
32.94
29.40
24.72
19.75
15.40
12.37
11.00
11.29
12.90
15.27
17.82
20.06
21.69
22.59
22.78
22.33
21.29
19.63
17.28
14.18
10.39
6.06
1.46
-3.18
-7.66
-11.85
-15.66
-19.01
-21.87
-24.34
-26.71
-29.42
-32.87
-37.14
-41.83
-46.01
-48.48
-48.11
-44.28
-37.10
-27.34
-16.23
-5.10
4.96
13.19
19.24
22.96
24.30
23.32
20.25
15.60
10.29
5.47
2.19
1.06
2.00
4.38
7.29
9.94
11.89
13.08
13.62
13.59
13.02
11.79
9.88
7.32
4.26
0.91
-2.55
-5.94
-9.17
-12.15
-14.90
-17.51
-20.14
-22.97
-26.19
-29.88
-33.92
-37.93
-41.25
-42.98
-42.26
-38.50
-31.58
-22.05
-10.98
0.30
10.57
18.93
24.93
28.51
29.82
29.05
26.45
22.39
17.45
12.49
8.46
6.12
5.82
7.28
9.75
12.35
14.34
15.42
15.68
15.48
15.12
14.66
13.93
12.59
10.41
7.33
3.54
-0.62
-4.76
-8.62
-12.02
-14.93
-17.38
-19.49
-21.56
-23.95
-27.09
-31.22
-36.21
-41.38
-45.64
-47.82
-47.02
-42.96
-35.98
-26.88
-16.70
-6.37
3.25
11.46
17.57
21.08
21.76
19.90
16.23
11.84
7.77
4.81
3.24
3.00
3.81
5.41
7.64
10.38
13.38
16.23
18.37
19.34
18.89
17.17
14.64
11.88
9.27
6.92
4.68
2.27
-0.49
-3.56
-6.73
-9.73
-12.37
-14.57
-16.43
-18.17
-20.15
-22.75
-26.32
-30.88
-36.06
-40.93
-44.20
-44.65
-41.52
-34.84
-25.44
-14.62
-3.74
6.09
14.18
20.25
24.23
26.20
26.36
25.08
22.81
20.09
17.47
15.39
14.20
14.03
14.84
16.40
18.33
20.22
21.74
22.71
23.03
22.68
21.59
19.68
17.00
13.72
10.12
6.52
3.11
-0.09
-3.18
-6.29
-9.41
-12.49
-15.38
-18.02
-20.43
-22.79
-25.37
-28.44
-32.18
-36.53
-41.12
-45.21
-47.85
-48.12
-45.39
-39.58
-31.19
-21.11
-10.48
-0.31
8.56
15.59
20.45
23.02
23.39
21.92
19.15
15.79
12.56
10.03
8.53
8.17
8.91
10.57
12.87
15.47
17.88
19.65
20.39
19.94
18.43
16.15
13.48
10.74
8.08
5.50
2.91
0.19
-2.69
-5.67
-8.62
-11.38
-13.83
-15.90
-17.69
-19.39
-21.28
-23.69
-26.86
-30.86
-35.44
-40.00
-43.60
-45.17
-43.78
-38.95
-30.86
-20.39
-8.91
2.10
11.40
18.26
22.51
24.40
24.31
22.67
19.85
16.30
12.68
9.77
8.31
8.74
10.91
14.14
17.48
20.06
21.49
21.90
21.67
21.19
20.52
19.43
17.61
14.93
11.60
8.11
4.94
2.38
0.27
-1.73
-3.95
-6.54
-9.23
-11.65
-13.48
-14.73
-15.98
-17.99
-21.42
-26.42
-32.35
-37.96
-41.76
-42.50
-39.66
-33.48
-24.75
-14.52
-3.74
6.82
16.48
24.59
30.48
33.64
33.93
31.75
28.01
23.83
20.22
17.84
16.84
16.99
17.91
19.31
21.01
22.93
24.93
26.77
28.03
28.35
27.50
25.54
22.76
19.57
16.35
13.34
10.55
7.82
4.98
1.85
-1.58
-5.15
-8.58
-11.57
-13.96
-15.86
-17.72
-20.14
-23.69
-28.56
-34.33
-40.02
-44.29
-45.91
-44.12
-38.91
-30.95
-21.27
-11.03
-1.20
7.46
14.38
19.16
21.52
21.41
19.10
15.23
10.69
6.49
3.45
2.05
2.35
4.02
6.56
9.40
12.13
14.42
16.08
16.95
16.92
15.91
13.95
11.22
8.02
4.68
1.41
-1.71
-4.73
-7.81
-11.01
-14.29
-17.48
-20.37
-22.91
-25.25
-27.76
-30.83
-34.73
-39.29
-43.86
-47.38
-48.63
-46.62
-40.95
-31.92
-20.50
-8.05
4.04
14.69
23.21
29.32
32.97
34.25
33.36
30.72
26.95
22.92
19.52
17.47
17.10
18.31
20.61
23.33
25.85
27.71
28.71
28.88
28.26
26.96
25.00
22.38
19.13
15.34
11.20
6.92
2.69
-1.34
-5.09
-8.50
-11.52
-14.16
-16.54
-18.95
-21.79
-25.46
-30.10
-35.38
-40.50
-44.32
-45.69
-43.83
-38.55
-30.27
-19.93
-8.69
2.33
12.14
20.04
25.56
28.49
28.88
27.07
23.66
19.49
15.49
12.44
10.89
10.99
12.53
15.04
17.93
20.65
22.74
23.97
24.22
23.45
21.73
19.17
15.95
12.33
8.60
4.99
1.61
-1.57
-4.65
-7.73
-10.84
-13.88
-16.76
-19.44
-22.03
-24.82
-28.19
-32.34
-37.13
-41.95
-45.78
-47.46
-46.01
-40.99
-32.68
-22.02
-10.33
1.07
11.12
19.18
24.95
28.41
29.63
28.80
26.29
22.75
19.03
16.02
14.42
14.48
16.08
18.71
21.78
24.76
27.33
29.25
30.35
30.43
29.36
27.21
24.25
20.89
17.52
14.31
11.16
7.84
4.19
0.25
-3.69
-7.21
-10.05
-12.19
-13.95
-15.81
-18.25
-21.61
-25.92
-30.94
-36.18
-40.95
-44.43
-45.75
-44.15
-39.25
-31.16
-20.60
-8.81
2.75
12.77
20.35
25.16
27.37
27.47
25.97
23.40
20.18
16.79
13.77
11.69
11.00
11.85
13.97
16.82
19.68
21.94
23.22
23.52
23.03
22.03
20.68
18.99
16.82
14.06
10.71
7.02
3.35
0.08
-2.65
-4.95
-7.12
-9.46
-12.12
-15.04
-18.14
-21.37
-24.98
-29.20
-34.03
-38.92
-42.70
-43.92
-41.43
-34.87
-25.03
-13.53
-2.25
7.33
14.51
19.39
22.45
24.12
24.46
23.31
20.60
16.74
12.67
9.59
8.48
9.75
13.00
17.33
21.70
25.32
27.82
29.18
29.52
29.02
27.77
25.85
23.32
20.30
16.88
13.18
9.31
5.46
1.85
-1.23
-3.64
-5.43
-6.91
-8.51
-10.65
-13.51
-17.04
-21.02
-25.12
-29.00
-32.18
-33.99
-33.59
-30.15
-23.18
-12.93
-0.35
13.09
25.89
36.93
45.64
51.79
55.16
55.37
51.95
44.65
33.84
20.70
6.97
-5.49
-15.27
-21.71
-25.00
-25.85
-25.20
-23.78
-22.08
-20.37
-18.76
-17.38
-16.39
-15.93
-16.04
-16.56
-17.24
-17.80
-18.09
-18.16
-18.21
-18.43
-18.92
-19.59
-20.26
-20.76
-21.15
-21.71
-22.92
-25.27
-28.95
-33.67
-38.54
-42.24
-43.36
-40.90
-34.57
-24.96
-13.38
-1.41
9.50
18.33
24.61
28.31
29.68
29.11
27.11
24.27
21.22
18.63
17.03
16.73
17.78
19.92
22.73
25.67
28.29
30.26
31.40
31.68
31.15
29.85
27.83
25.22
22.17
18.87
15.54
12.29
9.12
5.93
2.59
-0.98
-4.67
-8.28
-11.56
-14.38
-16.84
-19.26
-22.12
-25.83
-30.55
-36.01
-41.47
-45.84
-47.95
-46.90
-42.34
-34.64
-24.75
-13.93
-3.43
5.78
13.11
18.27
21.20
22.03
21.09
18.92
16.14
13.37
11.15
9.82
9.66
10.78
13.15
16.46
20.11
23.30
25.30
25.69
24.59
22.52
20.15
17.96
15.90
13.63
10.71
6.96
2.66
-1.54
-5.01
-7.35
-8.82
-10.02
-11.64
-14.12
-17.41
-21.12
-24.85
-28.42
-31.94
-35.51
-38.80
-40.94
-40.68
-36.96
-29.48
-18.98
-7.15
4.10
13.22
19.50
23.09
24.58
24.65
23.80
22.28
20.32
18.29
16.68
16.02
16.60
18.34
20.87
23.55
25.79
27.12
27.32
26.36
24.44
21.84
18.94
16.06
13.35
10.81
8.27
5.56
2.62
-0.47
-3.47
-6.22
-8.64
-10.86
-13.14
-15.68
-18.64
-22.06
-25.95
-30.29
-34.99
-39.75
-44.00
-46.86
-47.33
-44.59
-38.27
-28.69
-16.83
-4.15
7.81
17.81
25.10
29.55
31.43
31.30
29.77
27.43
24.80
22.35
20.48
19.45
19.37
20.17
21.62
23.38
25.11
26.49
27.23
27.12
26.09
24.20
21.63
18.63
15.45
12.26
9.17
6.23
3.46
0.93
-1.32
-3.29
-5.06
-6.77
-8.59
-10.61
-12.84
-15.29
-18.05
-21.35
-25.48
-30.55
-36.31
-41.93
-46.20
-47.82
-45.88
-40.18
-31.38
-20.75
-9.76
0.24
8.42
14.35
18.03
19.62
19.45
17.91
15.56
13.03
11.00
9.98
10.19
11.52
13.55
15.77
17.76
19.28
20.30
20.90
21.11
20.89
20.10
18.66
16.60
14.04
11.26
8.48
5.87
3.45
1.17
-1.00
-3.05
-4.90
-6.43
-7.58
-8.43
-9.19
-10.21
-11.83
-14.33
-17.83
-22.17
-26.96
-31.53
-35.11
-36.88
-36.17
-32.69
-26.61
-18.53
-9.41
-0.32
7.75
14.08
18.31
20.33
20.31
18.59
15.60
11.84
7.86
4.20
1.38
-0.16
-0.24
1.10
3.52
6.45
9.25
11.34
12.39
12.34
11.39
9.88
8.12
6.26
4.27
1.98
-0.75
-3.89
-7.27
-10.54
-13.45
-15.84
-17.79
-19.54
-21.39
-23.64
-26.52
-30.10
-34.22
-38.42
-41.95
-43.79
-43.05
-39.19
-32.28
-22.98
-12.40
-1.77
7.93
16.03
22.23
26.44
28.73
29.21
28.15
25.96
23.21
20.59
18.68
17.90
18.37
19.93
22.17
24.57
26.67
28.15
28.89
28.93
28.37
27.34
25.90
24.05
21.73
18.87
15.47
11.61
7.46
3.24
-0.83
-4.61
-8.10
-11.43
-14.86
-18.63
-22.90
-27.69
-32.86
-38.04
-42.72
-46.17
-47.55
-46.11
-41.44
-33.71
-23.74
-12.81
-2.32
6.61
13.35
17.84
20.32
21.12
20.50
18.69
16.00
12.95
10.24
8.58
8.40
9.68
11.94
14.46
16.53
17.75
18.13
17.88
17.27
16.35
15.03
13.15
10.68
7.82
4.97
2.48
0.54
-1.02
-2.55
-4.30
-6.34
-8.43
-10.19
-11.46
-12.41
-13.68
-16.07
-20.10
-25.73
-32.12
-37.95
-41.69
-42.16
-38.89
-32.21
-23.09
-12.80
-2.63
6.47
13.85
19.26
22.62
24.04
23.70
21.97
19.33
16.39
13.74
11.92
11.33
12.11
14.09
16.86
19.77
22.19
23.57
23.73
22.85
21.25
19.24
16.94
14.20
10.87
6.83
2.27
-2.39
-6.70
-10.37
-13.41
-16.11
-18.80
-21.78
-25.10
-28.62
-32.17
-35.63
-39.03
-42.41
-45.53
-47.86
-48.48
-46.43
-41.14
-32.81
-22.38
-11.37
-1.23
7.00
12.91
16.67
18.64
19.12
18.25
16.08
12.87
9.11
5.60
3.14
2.24
2.96
4.76
6.83
8.39
8.98
8.63
7.73
6.70
5.79
4.87
3.52
1.34
-1.82
-5.71
-9.73
-13.24
-15.84
-17.59
-18.89
-20.39
-22.64
-25.95
-30.29
-35.37
-40.73
-45.73
-49.59
-51.45
-50.49
-46.17
-38.46
-27.95
-15.82
-3.44
7.85
17.15
24.02
28.48
30.75
31.19
30.14
27.93
24.98
21.85
19.15
17.47
17.23
18.46
20.86
23.80
26.55
28.43
29.06
28.41
26.76
24.49
21.94
19.21
16.18
12.70
8.70
4.41
0.15
-3.70
-7.01
-9.93
-12.76
-15.73
-18.89
-22.11
-25.31
-28.67
-32.48
-36.96
-41.84
-46.21
-48.69
-47.94
-43.21
-34.69
-23.43
-11.01
0.99
11.42
19.70
25.76
29.77
31.92
32.44
31.47
29.35
26.61
23.94
22.07
21.35
21.78
22.92
24.23
25.29
26.01
26.51
26.96
27.27
27.10
26.06
23.92
20.79
17.12
13.43
10.04
6.92
3.80
0.41
-3.18
-6.53
-9.04
-10.31
-10.53
-10.55
-11.58
-14.60
-19.86
-26.58
-33.22
-38.01
-39.54
-37.32
-31.71
-23.64
-14.25
-4.55
4.71
12.96
19.78
24.79
27.72
28.48
27.21
24.34
20.50
16.49
13.10
10.92
10.22
10.90
12.47
14.35
16.00
17.17
17.86
18.25
18.43
18.32
17.66
16.13
13.56
10.06
5.99
1.84
-2.03
-5.43
-8.45
-11.31
-14.30
-17.61
-21.42
-25.80
-30.75
-36.03
-41.12
-45.13
-47.04
-45.92
-41.29
-33.39
-23.13
-11.90
-1.15
8.00
14.88
19.38
21.73
22.36
21.65
20.01
17.78
15.27
12.90
11.03
10.01
10.00
10.89
12.35
13.90
15.10
15.70
15.72
15.27
14.43
13.13
11.09
8.00
3.77
-1.37
-6.89
-12.05
-16.30
-19.40
-21.57
-23.30
-25.25
-27.91
-31.52
-36.01
-40.99
-45.85
-49.74
-51.75
-51.03
-47.07
-39.85
-29.95
-18.43
-6.60
4.31
13.38
20.13
24.49
26.63
26.99
26.06
24.39
22.52
20.86
19.72
19.26
19.49
20.35
21.67
23.23
24.72
25.86
26.39
26.14
25.11
23.44
21.34
19.02
16.57
13.99
11.25
8.32
5.27
2.30
-0.40
-2.75
-4.87
-7.06
-9.70
-13.05
-17.22
-22.10
-27.38
-32.60
-37.13
-40.25
-41.16
-39.20
-34.03
-25.84
-15.35
-3.77
7.54
17.33
24.78
29.60
31.96
32.40
31.55
29.96
28.05
26.04
24.13
22.55
21.57
21.41
22.14
23.56
25.25
26.65
27.29
26.91
25.59
23.60
21.28
18.87
16.44
13.91
11.16
8.18
5.10
2.15
-0.44
-2.60
-4.44
-6.22
-8.21
-10.54
-13.27
-16.34
-19.77
-23.66
-28.11
-33.01
-37.83
-41.63
-43.27
-41.78
-36.75
-28.58
-18.34
-7.48
2.68
11.17
17.58
21.87
24.20
24.75
23.74
21.43
18.26
14.83
11.83
9.85
9.17
9.82
11.48
13.69
15.95
17.84
19.08
19.53
19.16
18.04
16.22
13.79
10.77
7.21
3.23
-0.97
-5.12
-8.89
-12.06
-14.58
-16.57
-18.29
-20.05
-22.16
-24.85
-28.24
-32.25
-36.53
-40.38
-42.82
-42.78
-39.52
-32.91
-23.53
-12.60
-1.49
8.61
16.98
23.46
28.12
31.15
32.59
32.36
30.47
27.28
23.54
20.27
18.38
18.36
20.05
22.78
25.73
28.24
30.01
31.06
31.52
31.44
30.80
29.56
27.75
25.49
22.77
19.40
14.96
9.04
1.55
-7.14
-16.20
-24.68
-31.90
-37.71
-42.59
-47.31
-52.56
-58.51
-64.66
-69.92
-72.98
-72.75
-68.76
-61.21
-50.94
-39.06
-26.67
-14.66
-3.77
5.45
12.51
17.13
19.24
19.17
17.46
14.89
12.15
9.89
8.49
8.21
9.05
10.78
13.01
15.30
17.21
18.51
19.13
19.12
18.63
17.72
16.35
14.49
12.07
9.19
6.06
2.98
0.21
-2.23
-4.49
-6.83
-9.49
-12.50
-15.69
-18.87
-22.05
-25.44
-29.36
-33.79
-38.28
-41.78
-42.99
-40.87
-35.08
-26.14
-15.28
-4.00
6.36
14.89
21.29
25.57
28.01
28.82
28.16
26.22
23.36
20.15
17.37
15.71
15.60
16.96
19.20
21.63
23.61
24.81
25.30
25.33
25.04
24.42
23.26
21.39
18.81
15.75
12.60
9.71
7.26
5.19
3.34
1.56
-0.21
-1.95
-3.61
-5.30
-7.29
-9.89
-13.37
-17.65
-22.20
-26.07
-28.09
-27.29
-23.18
-16.05
-6.84
3.06
12.30
19.92
25.51
29.11
30.92
31.16
29.93
27.32
23.64
19.49
15.69
13.02
11.96
12.45
13.98
15.82
17.27
18.01
18.02
17.51
16.64
15.41
13.57
10.83
7.07
2.50
-2.36
-6.88
-10.57
-13.31
-15.29
-17.03
-19.00
-21.47
-24.55
-28.14
-32.17
-36.56
-41.14
-45.42
-48.59
-49.61
-47.67
-42.55
-34.70
-25.15
-15.05
-5.34
3.40
10.88
16.78
20.75
22.41
21.67
18.95
15.19
11.59
9.12
8.23
8.73
10.05
11.53
12.81
13.83
14.71
15.58
16.25
16.30
15.32
13.05
9.63
5.50
1.17
-2.95
-6.79
-10.51
-14.30
-18.22
-22.19
-26.09
-29.90
-33.72
-37.76
-41.97
-45.81
-48.30
-48.20
-44.57
-37.20
-26.82
-14.99
-3.54
6.00
12.83
16.96
18.92
19.37
18.85
17.56
15.60
13.19
10.79
9.07
8.56
9.44
11.40
13.73
15.66
16.65
16.58
15.70
14.36
12.81
11.12
9.11
6.61
3.52
-0.06
-3.85
-7.53
-10.74
-13.26
-15.09
-16.47
-17.89
-19.94
-23.15
-27.71
-33.31
-39.06
-43.70
-45.89
-44.66
-39.76
-31.69
-21.59
-10.84
-0.65
8.17
15.25
20.49
23.92
25.60
25.63
24.31
22.15
19.82
17.99
17.13
17.36
18.50
20.12
21.78
23.11
23.92
24.17
23.86
23.00
21.54
19.42
16.61
13.19
9.36
5.41
1.67
-1.62
-4.29
-6.38
-8.12
-9.84
-11.92
-14.69
-18.32
-22.75
-27.69
-32.55
-36.57
-38.86
-38.62
-35.34
-29.07
-20.40
-10.41
-0.41
8.39
15.22
19.70
21.95
22.28
21.03
18.57
15.27
11.68
8.47
6.33
5.69
6.60
8.58
10.83
12.58
13.30
12.98
11.93
10.51
8.95
7.20
5.01
2.17
-1.31
-5.12
-8.85
-12.08
-14.62
-16.54
-18.09
-19.68
-21.64
-24.18
-27.40
-31.21
-35.34
-39.32
-42.41
-43.74
-42.51
-38.21
-30.88
-21.21
-10.40
0.16
9.28
16.15
20.56
22.69
22.94
21.72
19.45
16.61
13.75
11.48
10.34
10.61
12.16
14.55
17.09
19.16
20.35
20.55
19.89
18.61
16.94
14.95
12.65
9.93
6.78
3.32
-0.20
-3.40
-6.02
-8.01
-9.61
-11.30
-13.62
-16.98
-21.48
-26.82
-32.36
-37.20
-40.30
-40.76
-38.00
-31.93
-23.08
-12.43
-1.27
9.15
17.90
24.47
28.80
31.12
31.79
31.24
29.92
28.29
26.88
26.15
26.42
27.73
29.84
32.29
34.50
36.01
36.51
35.88
34.20
31.66
28.52
25.06
21.48
17.88
14.22
10.35
6.14
1.59
-3.12
-7.63
-11.57
-14.74
-17.30
-19.71
-22.56
-26.33
-31.15
-36.69
-42.24
-46.85
-49.61
-49.79
-46.98
-41.15
-32.63
-22.11
-10.56
0.89
11.17
19.46
25.31
28.70
29.87
29.25
27.33
24.66
21.82
19.46
18.17
18.33
19.94
22.56
25.51
28.03
29.68
30.31
30.08
29.23
27.91
26.14
23.89
21.17
18.11
14.90
11.71
8.57
5.42
2.16
-1.20
-4.51
-7.58
-10.27
-12.61
-14.81
-17.23
-20.34
-24.49
-29.76
-35.84
-41.96
-46.94
-49.55
-48.74
-44.21
-36.35
-26.26
-15.30
-4.74
4.54
12.07
17.65
21.17
22.55
21.88
19.54
16.25
12.94
10.48
9.41
9.76
11.16
13.06
14.94
16.46
17.49
17.96
17.87
17.16
15.80
13.79
11.23
8.24
5.00
1.72
-1.35
-3.97
-6.00
-7.44
-8.54
-9.60
-10.97
-12.89
-15.44
-18.59
-22.31
-26.57
-31.18
-35.71
-39.36
-41.10
-39.93
-35.33
-27.42
-17.12
-5.84
4.86
13.79
20.22
24.08
25.70
25.56
24.10
21.66
18.54
15.15
12.05
9.92
9.28
10.34
12.76
15.82
18.61
20.39
20.81
20.01
18.39
16.41
14.38
12.29
9.93
7.08
3.68
-0.09
-3.86
-7.32
-10.27
-12.80
-15.11
-17.40
-19.74
-22.14
-24.67
-27.59
-31.25
-35.83
-41.09
-46.18
-49.79
-50.53
-47.46
-40.44
-30.22
-18.23
-6.07
4.88
13.74
20.18
24.32
26.48
27.06
26.41
24.91
22.99
21.13
19.80
19.35
19.88
21.24
23.09
24.97
26.48
27.32
27.43
26.92
25.98
24.83
23.55
22.11
20.31
17.97
14.98
11.47
7.67
3.88
0.29
-3.03
-6.13
-9.04
-11.74
-14.26
-16.71
-19.42
-22.83
-27.30
-32.87
-38.96
-44.48
-48.04
-48.46
-45.11
-38.21
-28.63
-17.69
-6.68
3.38
11.87
18.52
23.16
25.73
26.22
24.80
21.92
18.36
15.02
12.70
11.82
12.36
13.89
15.84
17.74
19.34
20.46
20.98
20.68
19.38
17.05
13.95
10.50
7.15
4.00
0.88
-2.48
-6.18
-9.92
-13.12
-15.22
-16.06
-16.15
-16.36
-17.61
-20.34
-24.39
-29.03
-33.34
-36.42
-37.71
-36.91
-33.90
-28.66
-21.32
-12.24
-2.16
7.92
16.72
23.18
26.66
27.21
25.40
22.23
18.64
15.41
12.87
11.09
10.03
9.66
10.06
11.23
13.02
15.08
16.81
17.66
17.27
15.66
13.15
10.21
7.18
4.19
1.11
-2.25
-5.98
-9.93
-13.77
-17.11
-19.69
-21.52
-23.00
-24.76
-27.49
-31.60
-36.94
-42.67
-47.47
-49.83
-48.66
-43.59
-35.10
-24.34
-12.70
-1.50
8.28
16.07
21.62
24.87
25.91
25.02
22.63
19.41
16.07
13.37
11.86
11.84
13.20
15.51
18.10
20.28
21.58
21.90
21.44
20.61
19.67
18.58
17.05
14.66
11.16
6.71
1.84
-2.78
-6.59
-9.42
-11.45
-13.14
-15.02
-17.45
-20.62
-24.57
-29.14
-34.05
-38.77
-42.57
-44.54
-43.79
-39.78
-32.55
-22.86
-11.99
-1.42
7.64
14.50
19.08
21.67
22.69
22.45
21.13
18.88
16.00
13.04
10.68
9.54
9.94
11.69
14.20
16.72
18.61
19.49
19.42
18.60
17.26
15.52
13.34
10.67
7.51
4.05
0.58
-2.56
-5.18
-7.27
-9.03
-10.72
-12.61
-14.86
-17.45
-20.38
-23.66
-27.42
-31.76
-36.50
-41.05
-44.43
-45.48
-43.32
-37.77
-29.40
-19.42
-9.19
0.17
8.02
14.15
18.55
21.22
22.11
21.23
18.87
15.68
12.52
10.30
9.59
10.52
12.68
15.33
17.73
19.38
20.10
20.01
19.36
18.34
16.92
14.95
12.26
8.85
4.95
1.03
-2.41
-5.02
-6.78
-8.02
-9.29
-11.17
-14.05
-17.98
-22.74
-27.82
-32.59
-36.40
-38.59
-38.63
-36.09
-30.88
-23.28
-13.97
-3.96
5.64
13.81
19.83
23.35
24.40
23.34
20.70
17.12
13.28
9.81
7.18
5.74
5.62
6.64
8.41
10.39
12.00
12.86
12.84
12.11
10.95
9.56
7.96
5.95
3.28
-0.17
-4.28
-8.61
-12.62
-15.88
-18.30
-20.17
-22.06
-24.62
-28.30
-33.12
-38.63
-43.93
-47.91
-49.50
-47.99
-43.13
-35.23
-25.08
-13.75
-2.37
8.01
16.56
22.71
26.19
27.04
25.65
22.69
19.01
15.49
12.85
11.51
11.59
12.83
14.88
17.29
19.67
21.70
23.06
23.56
23.08
21.64
19.41
16.56
13.32
9.76
5.91
1.79
-2.47
-6.58
-10.28
-13.43
-16.11
-18.63
-21.41
-24.80
-28.93
-33.65
-38.48
-42.66
-45.18
-45.06
-41.61
-34.68
-24.84
-13.29
-1.46
9.27
17.97
24.26
28.13
29.84
29.71
28.13
25.63
22.75
20.11
18.19
17.31
17.54
18.73
20.52
22.46
23.99
24.70
24.40
23.22
21.57
19.89
18.39
16.93
15.08
12.37
8.65
4.21
-0.32
-4.25
-7.17
-9.08
-10.46
-12.02
-14.43
-18.09
-23.00
-28.70
-34.35
-38.90
-41.27
-40.65
-36.64
-29.46
-19.88
-9.02
1.80
11.49
19.21
24.55
27.43
28.03
26.73
24.01
20.48
16.89
14.01
12.44
12.47
13.96
16.34
18.87
20.84
21.90
22.03
21.46
20.43
18.98
16.90
13.94
9.94
5.08
-0.15
-5.13
-9.32
-12.53
-14.93
-16.91
-19.02
-21.68
-25.14
-29.39
-34.18
-38.90
-42.70
-44.52
-43.46
-39.00
-31.23
-20.91
-9.30
2.24
12.50
20.72
26.50
29.86
30.95
30.06
27.65
24.28
20.69
17.63
15.74
15.35
16.46
18.67
21.35
23.81
25.46
25.94
25.18
23.36
20.81
17.93
15.00
12.13
9.23
6.14
2.75
-0.87
-4.48
-7.73
-10.43
-12.60
-14.57
-16.83
-19.93
-24.14
-29.41
-35.27
-40.86
-45.14
-47.03
-45.71
-40.83
-32.65
-21.99
-10.06
1.78
12.35
20.79
26.66
29.90
30.84
29.98
27.95
25.40
22.87
20.81
19.54
19.27
20.05
21.75
24.07
26.50
28.50
29.64
29.71
28.78
27.10
24.95
22.48
19.71
16.55
13.00
9.17
5.36
1.93
-0.90
-3.14
-5.03
-6.97
-9.32
-12.24
-15.74
-19.70
-24.08
-28.86
-33.91
-38.80
-42.65
-44.26
-42.57
-37.04
-28.18
-17.31
-6.12
3.89
11.91
17.79
21.75
24.00
24.46
22.98
19.68
15.18
10.66
7.39
6.35
7.74
10.92
14.73
18.01
19.99
20.57
20.14
19.27
18.38
17.37
15.88
13.47
9.99
5.80
1.59
-1.89
-4.25
-5.66
-6.72
-8.08
-10.12
-12.75
-15.63
-18.46
-21.23
-24.34
-28.19
-32.73
-37.23
-40.35
-40.64
-37.16
-29.84
-19.65
-8.13
3.09
12.75
20.14
25.12
27.79
28.45
27.36
24.76
21.03
16.71
12.50
9.19
7.44
7.58
9.47
12.52
15.80
18.40
19.62
19.22
17.43
14.82
11.98
9.34
6.99
4.71
2.22
-0.67
-3.87
-7.07
-9.95
-12.32
-14.28
-16.16
-18.33
-21.17
-24.88
-29.50
-34.82
-40.29
-45.06
-48.03
-48.15
-44.74
-37.74
-27.84
-16.19
-4.21
6.84
16.05
22.96
27.45
29.62
29.81
28.40
25.93
23.00
20.21
18.17
17.31
17.80
19.51
22.00
24.65
26.85
28.13
28.29
27.37
25.56
23.11
20.24
17.11
13.85
10.52
7.17
3.86
0.62
-2.49
-5.38
-7.99
-10.29
-12.38
-14.45
-16.78
-19.68
-23.36
-27.86
-33.00
-38.26
-42.83
-45.67
-45.73
-42.25
-35.03
-24.65
-12.37
0.18
11.41
20.20
26.04
29.07
29.82
28.87
26.77
23.91
20.66
17.45
14.79
13.22
13.12
14.59
17.27
20.45
23.29
25.07
25.45
24.52
22.70
20.46
18.11
15.67
12.95
9.79
6.25
2.59
-0.81
-3.68
-6.05
-8.16
-10.31
-12.68
-15.21
-17.75
-20.20
-22.71
-25.68
-29.55
-34.39
-39.72
-44.51
-47.46
-47.42
-43.82
-36.87
-27.47
-16.89
-6.41
2.92
10.48
15.95
19.28
20.57
20.02
17.92
14.75
11.18
8.00
5.98
5.68
7.19
10.10
13.62
16.85
19.10
20.07
19.91
19.00
17.72
16.24
14.41
11.99
8.81
4.96
0.79
-3.23
-6.65
-9.30
-11.32
-13.09
-15.04
-17.55
-20.78
-24.69
-29.13
-33.74
-38.00
-41.14
-42.20
-40.33
-35.06
-26.61
-15.91
-4.39
6.46
15.50
22.15
26.39
28.52
28.87
27.75
25.42
22.26
18.75
15.60
13.47
12.83
13.74
15.85
18.45
20.73
22.11
22.36
21.66
20.33
18.69
16.79
14.48
11.50
7.76
3.48
-0.86
-4.71
-7.71
-9.84
-11.45
-13.04
-15.07
-17.82
-21.25
-25.22
-29.47
-33.74
-37.70
-40.85
-42.42
-41.56
-37.59
-30.41
-20.66
-9.61
1.21
10.60
18.00
23.46
27.33
29.86
30.92
30.19
27.48
23.08
17.85
12.93
9.37
7.62
7.49
8.38
9.58
10.64
11.40
11.88
12.13
12.03
11.47
10.38
8.89
7.32
6.01
5.12
4.53
3.81
2.48
0.24
-2.86
-6.40
-9.83
-12.79
-15.28
-17.76
-20.89
-25.21
-30.74
-36.85
-42.33
-45.85
-46.27
-43.16
-36.76
-27.96
-17.89
-7.68
1.80
9.92
16.30
20.66
22.81
22.76
20.74
17.26
13.11
9.15
6.19
4.75
4.97
6.57
8.99
11.58
13.89
15.65
16.88
17.72
18.27
18.51
18.29
17.38
15.62
12.96
9.58
5.82
2.11
-1.19
-3.91
-6.16
-8.26
-10.64
-13.63
-17.42
-21.94
-26.86
-31.66
-35.63
-37.95
-37.88
-34.99
-29.25
-21.25
-11.93
-2.45
6.15
13.12
18.06
20.78
21.32
19.86
16.81
12.86
8.85
5.67
3.97
4.00
5.55
8.11
11.06
13.85
16.12
17.70
18.46
18.37
17.35
15.36
12.48
8.89
4.89
0.80
-3.05
-6.46
-9.35
-11.83
-14.19
-16.82
-20.11
-24.28
-29.20
-34.26
-38.49
-40.71
-39.95
-35.81
-28.56
-19.09
-8.66
1.49
10.41
17.55
22.68
25.75
26.82
26.03
23.70
20.39
16.80
13.70
11.62
10.77
10.98
11.89
13.09
14.28
15.31
16.10
16.49
16.23
14.97
12.44
8.62
3.82
-1.44
-6.51
-10.90
-14.45
-17.32
-19.91
-22.65
-25.92
-29.89
-34.58
-39.78
-44.99
-49.45
-52.17
-52.20
-48.98
-42.59
-33.81
-23.93
-14.24
-5.77
0.98
5.96
9.32
11.18
11.57
10.54
8.33
5.44
2.59
0.55
-0.14
0.70
2.82
5.68
8.63
11.12
12.81
13.61
13.57
12.67
10.87
8.16
4.66
0.72
-3.15
-6.50
-9.15
-11.39
-13.76
-16.83
-20.84
-25.57
-30.47
-35.01
-38.96
-42.55
-46.26
-50.52
-55.44
-60.71
-65.80
-70.26
-73.93
-77.17
-80.62
-84.91
-90.29
-96.48
-102.74
-108.14
-111.81
-113.25
-112.17
-108.36
-101.46
-90.91
-76.13
-56.95
-33.83
-8.07
18.48
43.84
66.38
85.06
99.47
109.61
115.75
118.17
117.21
113.31
107.05
99.06
90.01
80.46
70.94
61.96
54.02
47.67
43.31
41.12
40.96
42.42
44.87
47.62
50.05
51.69
52.26
51.62
49.76
46.77
42.90
38.52
34.07
30.00
26.62
24.09
22.37
21.29
20.64
20.18
19.66
18.83
17.41
15.19
12.15
8.45
4.49
0.67
-2.73
-5.69
-8.42
-11.30
-14.68
-18.74
-23.32
-27.91
-31.71
-33.85
-33.62
-30.62
-24.90
-16.96
-7.57
2.32
11.84
20.20
26.79
31.21
33.29
33.22
31.50
28.84
25.99
23.54
21.79
20.79
20.40
20.45
20.81
21.32
21.79
21.93
21.38
19.85
17.26
13.73
9.56
5.04
0.38
-4.35
-9.21
-14.29
-19.68
-25.43
-31.39
-37.23
-42.26
-45.60
-46.32
-43.76
-37.80
-28.98
-18.34
-7.20
3.19
11.93
18.50
22.84
25.10
25.59
24.70
22.77
20.18
17.33
14.62
12.46
11.18
10.96
11.73
13.17
14.75
15.87
16.10
15.21
13.26
10.52
7.36
4.05
0.69
-2.78
-6.58
-10.92
-15.96
-21.70
-27.79
-33.60
-38.17
-40.44
-39.57
-35.17
-27.50
-17.50
-6.42
4.39
13.87
21.32
26.44
29.20
29.79
28.53
25.87
22.44
18.89
15.80
13.54
12.24
11.78
11.89
12.28
12.61
12.55
11.82
10.20
7.67
4.38
0.66
-3.04
-6.35
-9.07
-11.31
-13.37
-15.75
-18.85
-22.87
-27.61
-32.38
-36.11
-37.60
-35.84
-30.42
-21.62
-10.37
2.04
14.25
25.16
34.03
40.45
44.30
45.73
45.15
43.23
40.77
38.49
36.89
36.02
35.67
35.46
35.08
34.44
33.60
32.69
31.71
30.46
28.62
25.89
22.14
17.51
12.34
7.10
2.18
-2.16
-5.88
-9.11
-12.15
-15.39
-19.21
-23.81
-29.08
-34.46
-38.99
-41.59
-41.29
-37.58
-30.61
-21.14
-10.39
0.25
9.59
16.79
21.52
23.92
24.34
23.26
21.11
18.25
15.02
11.81
9.09
7.24
6.48
6.78
7.83
9.19
10.40
11.14
11.21
10.48
8.83
6.25
2.78
-1.31
-5.59
-9.60
-13.06
-16.01
-18.83
-22.00
-25.95
-30.75
-36.07
-41.28
-45.51
-47.89
-47.67
-44.34
-37.75
-28.26
-16.76
-4.45
7.29
17.21
24.47
28.70
30.05
29.00
26.28
22.63
18.78
15.23
12.30
10.14
8.79
8.24
8.45
9.23
10.34
11.39
12.02
11.97
11.12
9.51
7.28
4.57
1.54
-1.65
-4.84
-7.90
-10.81
-13.68
-16.85
-20.63
-25.23
-30.48
-35.83
-40.34
-42.90
-42.52
-38.60
-31.19
-20.95
-9.06
3.09
14.18
23.17
29.42
32.75
33.33
31.66
28.44
24.47
20.48
17.04
14.46
12.84
12.07
11.96
12.35
13.08
13.98
14.83
15.37
15.26
14.27
12.30
9.52
6.22
2.76
-0.65
-3.98
-7.31
-10.83
-14.62
-18.69
-23.01
-27.51
-31.95
-35.88
-38.54
-38.99
-36.43
-30.51
-21.62
-10.83
0.38
10.56
18.64
24.10
26.97
27.59
26.48
24.13
20.99
17.47
13.98
10.88
8.52
7.14
6.79
7.35
8.53
9.93
11.16
11.92
12.00
11.33
9.90
7.77
5.00
1.70
-1.93
-5.62
-9.05
-12.00
-14.45
-16.68
-19.18
-22.43
-26.59
-31.37
-35.93
-39.13
-39.91
-37.59
-32.10
-23.98
-14.20
-3.91
5.82
14.12
20.40
24.34
25.90
25.25
22.79
19.09
14.84
10.82
7.65
5.76
5.25
5.86
7.15
8.67
10.15
11.52
12.82
14.02
14.77
14.55
12.89
9.59
4.99
-0.24
-5.38
-9.90
-13.67
-16.84
-19.62
-22.20
-24.69
-27.30
-30.31
-33.87
-37.73
-41.11
-42.77
-41.49
-36.63
-28.55
-18.40
-7.76
2.01
10.08
16.29
20.75
23.59
24.62
23.59
20.48
15.73
10.38
5.75
2.93
2.37
3.57
5.51
7.13
7.88
7.95
8.00
8.62
9.87
11.09
11.26
9.56
5.90
0.99
-4.00
-8.05
-10.67
-12.16
-13.25
-14.70
-16.95
-20.02
-23.63
-27.43
-31.09
-34.32
-36.72
-37.75
-36.77
-33.32
-27.28
-19.09
-9.54
0.22
9.09
16.17
20.89
23.03
22.77
20.54
17.01
12.98
9.13
6.03
3.94
2.86
2.64
3.13
4.22
5.81
7.73
9.69
11.25
11.95
11.46
9.73
6.94
3.47
-0.24
-3.85
-7.18
-10.19
-12.97
-15.65
-18.37
-21.29
-24.54
-28.12
-31.81
-35.12
-37.29
-37.49
-35.05
-29.73
-21.88
-12.34
-2.22
7.28
15.20
20.95
24.32
25.41
24.52
22.10
18.72
14.99
11.48
8.69
6.89
6.11
6.16
6.74
7.56
8.38
9.06
9.45
9.40
8.71
7.24
4.96
2.01
-1.36
-4.87
-8.24
-11.31
-14.02
-16.43
-18.72
-21.17
-24.09
-27.69
-31.92
-36.27
-39.84
-41.52
-40.37
-35.97
-28.58
-19.16
-8.94
0.91
9.55
16.52
21.66
24.81
25.89
24.84
21.94
17.79
13.33
9.48
6.97
6.03
6.47
7.73
9.23
10.56
11.54
12.23
12.72
13.00
12.90
12.17
10.61
8.16
5.01
1.51
-1.94
-5.03
-7.62
-9.76
-11.70
-13.75
-16.29
-19.64
-24.01
-29.24
-34.72
-39.45
-42.21
-41.93
-38.11
-31.01
-21.58
-11.09
-0.83
8.25
15.57
20.85
23.95
24.86
23.70
20.90
17.14
13.32
10.28
8.61
8.46
9.56
11.38
13.25
14.69
15.48
15.62
15.27
14.59
13.57
12.02
9.66
6.29
2.00
-2.82
-7.57
-11.69
-14.87
-17.21
-19.17
-21.34
-24.25
-28.12
-32.76
-37.65
-41.96
-44.74
-45.14
-42.59
-36.98
-28.67
-18.47
-7.46
3.26
12.70
20.11
24.99
27.10
26.58
23.90
19.87
15.44
11.53
8.81
7.57
7.75
9.00
10.86
12.81
14.43
15.44
15.78
15.53
14.86
13.85
12.46
10.47
7.65
3.92
-0.56
-5.33
-9.81
-13.53
-16.29
-18.29
-20.09
-22.38
-25.71
-30.20
-35.41
-40.36
-43.80
-44.58
-41.98
-36.00
-27.28
-16.86
-5.91
4.56
13.78
21.22
26.53
29.50
30.15
28.71
25.73
21.96
18.19
15.12
13.19
12.62
13.35
15.09
17.38
19.68
21.46
22.36
22.27
21.29
19.66
17.63
15.27
12.60
9.51
5.97
2.09
-1.88
-5.59
-8.80
-11.43
-13.67
-16.00
-18.98
-23.00
-28.10
-33.77
-39.06
-42.78
-43.87
-41.76
-36.49
-28.65
-19.11
-8.79
1.50
11.10
19.33
25.53
29.12
29.82
27.84
23.92
19.21
14.85
11.76
10.34
10.53
11.94
14.09
16.50
18.81
20.75
22.17
22.92
22.89
22.02
20.21
17.44
13.78
9.41
4.70
0.07
-4.09
-7.53
-10.27
-12.52
-14.65
-17.00
-19.87
-23.41
-27.58
-32.17
-36.64
-40.24
-42.02
-41.11
-36.98
-29.70
-19.93
-8.83
2.24
12.08
19.83
25.08
27.79
28.21
26.72
23.82
20.10
16.22
12.93
10.84
10.34
11.42
13.69
16.45
19.01
20.81
21.57
21.31
20.15
18.26
15.73
12.61
8.99
5.04
1.04
-2.66
-5.76
-8.12
-9.84
-11.24
-12.81
-15.12
-18.55
-23.26
-28.93
-34.89
-40.08
-43.33
-43.63
-40.40
-33.68
-24.14
-12.91
-1.35
9.35
18.25
24.82
28.82
30.27
29.35
26.44
22.22
17.59
13.53
10.88
10.10
11.07
13.25
15.91
18.38
20.27
21.53
22.19
22.27
21.64
20.15
17.73
14.52
10.86
7.16
3.70
0.52
-2.54
-5.65
-8.85
-12.04
-15.06
-17.89
-20.74
-23.97
-27.84
-32.20
-36.36
-39.20
-39.54
-36.61
-30.39
-21.54
-11.23
-0.70
9.11
17.59
24.43
29.38
32.21
32.74
31.06
27.69
23.56
19.76
17.15
16.11
16.51
17.83
19.50
21.12
22.52
23.69
24.61
25.15
25.10
24.24
22.52
20.03
16.97
13.50
9.76
5.81
1.77
-2.12
-5.58
-8.35
-10.39
-12.11
-14.13
-17.15
-21.57
-27.23
-33.42
-39.10
-43.16
-44.81
-43.72
-39.89
-33.59
-25.25
-15.45
-4.91
5.42
14.41
21.08
24.80
25.57
24.00
21.09
17.90
15.25
13.45
12.53
12.37
12.91
14.21
16.28
18.92
21.67
23.79
24.66
23.96
21.93
19.13
16.21
13.62
11.41
9.30
6.92
4.07
0.80
-2.58
-5.73
-8.43
-10.66
-12.65
-14.69
-17.12
-20.22
-24.10
-28.67
-33.55
-38.03
-41.17
-42.02
-39.85
-34.38
-25.93
-15.38
-3.92
7.16
16.76
24.09
28.80
30.87
30.58
28.46
25.13
21.38
17.99
15.63
14.70
15.27
17.04
19.47
21.98
24.05
25.35
25.74
25.18
23.74
21.52
18.72
15.61
12.48
9.49
6.60
3.58
0.19
-3.66
-7.77
-11.68
-14.85
-16.96
-18.12
-18.83
-19.82
-21.78
-25.09
-29.65
-34.86
-39.74
-43.14
-44.02
-41.70
-36.10
-27.72
-17.59
-6.90
3.24
12.05
19.02
23.88
26.43
26.65
24.74
21.28
17.19
13.55
11.26
10.84
12.28
15.13
18.66
22.09
24.71
26.04
25.85
24.19
21.39
17.95
14.38
11.05
8.03
5.20
2.28
-0.92
-4.38
-7.91
-11.20
-14.03
-16.41
-18.55
-20.80
-23.54
-27.03
-31.35
-36.32
-41.44
-45.93
-48.86
-49.26
-46.49
-40.36
-31.22
-19.97
-7.81
3.97
14.19
22.03
27.05
29.32
29.24
27.51
24.89
22.10
19.66
17.91
16.99
16.94
17.64
18.89
20.42
21.90
22.99
23.43
23.03
21.73
19.65
16.99
13.98
10.81
7.58
4.30
0.99
-2.28
-5.39
-8.24
-10.78
-13.04
-15.12
-17.14
-19.27
-21.73
-24.73
-28.50
-33.06
-38.16
-43.14
-47.08
-48.95
-47.90
-43.54
-36.00
-25.97
-14.54
-3.01
7.41
15.80
21.72
25.13
26.35
25.84
24.15
21.81
19.35
17.29
16.07
15.92
16.80
18.42
20.32
22.04
23.26
23.82
23.70
22.97
21.68
19.89
17.70
15.20
12.53
9.72
6.79
3.72
0.50
-2.76
-5.88
-8.65
-10.92
-12.74
-14.29
-15.88
-17.84
-20.46
-23.91
-28.26
-33.44
-39.07
-44.44
-48.50
-50.09
-48.24
-42.60
-33.59
-22.32
-10.30
1.07
10.83
18.57
24.29
28.19
30.39
30.94
29.93
27.67
24.70
21.76
19.59
18.65
19.05
20.47
22.37
24.19
25.52
26.14
25.95
24.98
23.23
20.77
17.69
14.28
10.86
7.76
5.07
2.71
0.41
-2.08
-4.86
-7.76
-10.50
-12.83
-14.75
-16.54
-18.66
-21.55
-25.47
-30.33
-35.75
-41.11
-45.69
-48.62
-49.08
-46.40
-40.28
-31.05
-19.61
-7.36
4.11
13.48
20.00
23.55
24.60
23.87
22.10
19.92
17.69
15.65
13.99
12.90
12.60
13.26
14.85
17.15
19.68
21.84
23.13
23.22
22.10
20.04
17.45
14.77
12.25
9.96
7.76
5.53
3.18
0.81
-1.40
-3.29
-4.79
-6.03
-7.21
-8.55
-10.14
-11.98
-14.13
-16.61
-19.52
-22.83
-26.23
-28.98
-30.14
-28.70
-24.06
-16.18
-5.71
6.19
18.06
28.41
35.98
39.87
39.70
35.65
28.49
19.47
10.01
1.46
-5.19
-9.43
-11.28
-11.02
-9.14
-6.15
-2.61
0.93
3.90
5.92
6.76
6.49
5.39
3.78
1.95
0.02
-2.08
-4.41
-6.97
-9.63
-12.14
-14.24
-15.85
-17.12
-18.45
-20.28
-23.00
-26.72
-31.32
-36.43
-41.51
-45.94
-49.02
-50.01
-48.21
-43.19
-34.99
-24.26
-12.23
-0.36
9.96
17.83
22.96
25.53
26.08
25.12
23.13
20.50
17.68
15.17
13.53
13.18
14.24
16.50
19.38
22.21
24.34
25.37
25.18
23.98
22.12
19.98
17.81
15.62
13.26
10.50
7.24
3.56
-0.24
-3.83
-6.96
-9.61
-11.93
-14.14
-16.43
-18.89
-21.61
-24.75
-28.53
-33.06
-38.14
-43.02
-46.49
-47.22
-44.27
-37.48
-27.58
-15.98
-4.26
6.28
14.89
21.38
25.84
28.45
29.35
28.71
26.79
24.15
21.55
19.75
19.27
20.20
22.16
24.52
26.65
28.14
28.85
28.85
28.10
26.54
23.97
20.31
15.69
10.57
5.57
1.25
-2.20
-4.93
-7.32
-9.75
-12.35
-14.96
-17.28
-19.06
-20.42
-21.82
-23.88
-27.00
-31.20
-35.92
-40.22
-43.04
-43.63
-41.60
-36.96
-30.03
-21.20
-10.97
0.00
10.83
20.39
27.55
31.65
32.66
31.31
28.75
26.08
23.97
22.48
21.28
20.04
18.70
17.50
16.82
16.83
17.40
18.05
18.23
17.51
15.82
13.42
10.73
8.13
5.88
3.95
2.12
0.11
-2.29
-5.12
-8.21
-11.30
-14.07
-16.36
-18.22
-19.90
-21.78
-24.19
-27.36
-31.19
-35.35
-39.28
-42.23
-43.44
-42.26
-38.35
-31.78
-23.08
-13.15
-3.05
6.22
13.90
19.49
22.81
23.87
22.90
20.33
16.83
13.20
10.27
8.66
8.65
10.06
12.36
14.92
17.16
18.76
19.62
19.83
19.44
18.47
16.89
14.67
11.90
8.70
5.27
1.75
-1.75
-5.15
-8.37
-11.32
-14.00
-16.51
-19.15
-22.31
-26.33
-31.28
-36.77
-41.93
-45.58
-46.56
-44.15
-38.26
-29.54
-19.12
-8.26
1.95
10.79
17.84
22.85
25.64
26.12
24.46
21.13
17.02
13.13
10.35
9.12
9.36
10.65
12.37
13.99
15.20
15.87
