1549127927.00
64.000000
-0.00
-0.00
-0.00
-0.00
-0.00
-0.00
-0.00
-0.00
-0.00
-0.00
0.00
0.01
0.01
-0.00
-0.03
-0.05
-0.05
0.00
0.13
0.36
0.66
1.01
1.37
1.72
2.06
2.40
2.79
3.24
3.80
4.42
5.06
5.66
6.20
6.68
7.15
7.68
8.31
9.14
10.09
11.04
11.88
12.56
13.14
13.76
14.65
15.96
17.91
20.32
22.90
25.38
27.58
29.57
31.68
34.32
37.81
42.54
48.15
54.10
59.83
64.97
69.58
74.14
79.34
85.71
93.76
103.00
112.62
121.73
129.77
136.75
143.30
150.75
157.77
166.64
177.95
191.79
206.97
220.57
228.25
225.36
208.53
176.87
132.76
80.05
23.07
-34.94
-92.44
-149.16
-205.23
-260.37
-313.74
-363.87
-409.83
-450.91
-486.50
-515.74
-537.23
-549.22
-549.96
-538.37
-514.21
-478.67
-433.88
-382.45
-327.02
-269.84
-212.63
-156.65
-102.95
-52.38
-5.92
35.56
71.42
101.38
125.57
144.48
158.76
169.10
176.12
180.25
181.80
181.08
178.40
174.12
168.63
162.29
155.37
148.09
140.55
132.87
125.13
117.44
109.89
102.47
95.14
87.84
80.53
73.30
66.31
59.78
53.91
48.69
43.94
39.36
34.62
29.56
24.29
19.19
14.70
11.23
8.82
7.12
5.50
3.29
0.11
-3.91
-8.13
-11.65
-13.70
-14.10
-13.38
-12.66
-13.13
-15.53
-19.71
-24.60
-28.87
-31.22
-31.17
-29.20
-26.51
-24.72
-25.54
-30.36
-39.38
-50.96
-61.11
-64.29
-55.47
-32.40
3.01
45.13
86.61
120.54
141.78
147.52
136.85
110.67
72.03
26.16
-20.27
-61.02
-91.85
-111.05
-118.48
-114.18
-97.93
-70.11
-33.61
5.89
41.23
66.62
80.14
84.14
83.31
81.61
80.68
79.62
76.90
72.14
66.76
63.26
63.42
67.28
72.74
77.07
77.82
74.42
68.14
61.35
56.87
56.32
60.52
68.78
78.78
86.56
87.37
77.26
54.95
23.13
-12.47
-43.64
-64.45
-73.17
-72.23
-66.27
-59.44
-53.70
-48.76
-43.49
-37.48
-31.63
-27.63
-26.70
-28.77
-32.35
-35.53
-36.71
-35.51
-32.57
-29.36
-27.19
-26.68
-27.48
-28.54
-28.70
-27.17
-23.90
-19.49
-14.97
-11.25
-8.76
-7.31
-6.31
-5.09
-3.19
-0.53
2.63
5.84
8.70
11.05
13.03
15.00
17.17
19.74
22.71
25.99
29.40
32.79
36.15
39.57
43.28
47.17
51.25
55.51
59.95
64.60
69.50
74.75
80.47
86.88
93.70
100.75
107.96
115.29
122.70
130.20
137.82
145.66
153.90
162.03
169.74
176.74
182.69
187.20
189.63
189.04
183.85
176.87
168.84
160.18
151.17
142.01
132.87
123.92
115.30
107.18
99.85
92.89
86.11
79.44
72.84
66.32
59.90
53.64
47.61
42.03
36.59
31.20
25.88
20.70
15.73
11.06
6.73
2.80
-0.65
-3.85
-6.91
-9.80
-12.51
-14.98
-17.28
-19.50
-21.80
-24.36
-27.38
-30.94
-34.87
-39.01
-43.14
-47.23
-51.46
-56.10
-61.51
-67.94
-75.40
-83.60
-92.13
-100.56
-108.75
-116.82
-125.19
-134.33
-144.56
-155.90
-168.11
-180.81
-193.69
-206.65
-219.85
-233.63
-248.51
-265.25
-284.82
-308.11
-335.24
-364.73
-393.21
-415.92
-428.05
-426.39
-410.50
-382.83
-347.46
-308.74
-270.03
-233.36
-199.80
-170.12
-144.91
-124.48
-108.49
-95.81
-84.96
-74.70
-64.56
-54.96
-46.84
-41.19
-38.50
-38.63
-40.89
-44.45
-48.63
-53.19
-58.25
-63.98
-70.24
-76.24
-80.63
-81.87
-78.87
-71.40
-60.17
-46.39
-30.91
-13.49
7.14
32.55
63.20
97.26
130.43
157.21
172.98
175.92
167.67
152.43
134.93
118.65
105.02
93.78
84.28
76.17
69.60
64.64
60.83
56.98
51.82
44.51
35.11
24.63
14.67
7.03
3.23
4.20
10.01
20.20
34.26
52.30
74.95
102.59
133.67
163.87
186.19
192.98
178.71
142.13
86.29
16.80
-60.76
-141.98
-223.12
-299.51
-364.28
-409.45
-428.51
-419.54
-386.46
-337.75
-282.92
-228.84
-177.99
-129.67
-83.09
-40.20
-6.26
12.74
14.01
0.69
-18.74
-34.72
-41.38
-39.61
-36.21
-39.12
-51.99
-71.38
-88.38
-94.08
-84.54
-62.87
-36.91
-13.99
3.41
18.31
36.35
60.81
89.98
117.75
137.86
148.37
153.37
160.69
176.77
201.86
229.36
249.42
254.79
245.49
229.10
216.56
216.22
229.01
248.31
263.87
267.53
257.43
238.52
219.37
207.77
206.83
214.50
225.44
234.15
237.30
234.33
226.75
216.91
206.84
197.99
190.83
184.53
176.86
164.37
143.73
113.46
74.98
32.83
-6.75
-37.96
-57.27
-64.18
-61.20
-53.03
-45.48
-44.11
-52.35
-69.75
-91.11
-107.46
-109.03
-89.14
-47.52
8.94
68.29
117.66
147.62
154.83
142.14
116.70
86.95
60.22
41.45
32.93
34.96
46.38
65.10
88.14
111.68
131.31
142.72
142.75
130.37
107.02
76.11
41.55
6.14
-29.48
-66.47
-106.33
-148.88
-191.08
-227.30
-251.24
-258.67
-249.46
-227.92
-201.22
-176.49
-158.07
-146.13
-137.04
-125.54
-107.32
-81.00
-48.70
-15.18
14.03
34.57
44.50
44.62
37.59
26.86
15.56
6.06
-0.16
-2.24
0.25
7.13
17.47
29.58
41.43
51.38
58.79
64.12
68.50
72.74
76.42
77.80
74.32
63.80
45.34
19.59
-11.65
-46.34
-82.68
-119.14
-153.76
-183.42
-203.72
-209.88
-198.49
-169.34
-126.49
-77.57
-31.84
2.58
20.84
22.50
11.09
-7.46
-26.73
-41.43
-48.45
-46.87
-37.46
-22.17
-3.23
16.92
35.64
49.97
56.96
54.75
43.60
26.39
7.87
-7.23
-16.10
-18.91
-18.15
-17.03
-17.57
-19.99
-23.24
-26.43
-29.88
-34.99
-43.19
-54.41
-66.67
-76.58
-80.95
-78.45
-70.43
-60.37
-52.62
-50.55
-55.24
-65.67
-79.37
-94.08
-108.78
-124.23
-142.55
-166.25
-197.15
-235.47
-279.68
-326.70
-372.55
-412.93
-443.76
-461.71
-464.59
-451.82
-424.62
-385.88
-339.59
-289.93
-240.31
-192.71
-147.67
-104.57
-62.26
-19.76
23.04
65.07
104.24
138.25
165.70
187.05
204.81
222.36
242.28
264.78
287.40
306.20
317.64
320.29
315.33
305.56
293.92
282.20
270.77
259.17
247.00
234.54
222.76
212.95
206.06
202.36
201.45
202.55
204.86
207.75
210.78
213.46
215.19
215.45
214.11
211.52
208.17
203.99
197.62
186.29
166.40
134.68
89.17
30.12
-39.47
-113.61
-183.50
-238.74
-269.54
-269.88
-240.08
-187.56
-124.99
-66.06
-21.07
5.82
16.40
16.02
10.34
3.43
-2.63
-6.58
-6.93
-1.79
10.35
29.45
53.27
77.66
97.79
109.86
112.19
105.61
92.66
76.24
58.25
39.00
17.43
-7.69
-36.72
-68.32
-99.52
-126.43
-145.12
-152.50
-147.02
-129.05
-100.97
-66.87
-31.77
-0.44
23.77
39.61
47.57
49.14
45.78
38.45
27.83
14.80
0.81
-12.16
-22.30
-28.53
-30.87
-30.29
-28.23
-26.13
-25.20
-26.33
-30.30
-37.58
-48.19
-61.49
-76.12
-90.34
-102.58
-111.94
-118.56
-123.54
-128.55
-135.15
-144.03
-154.39
-163.82
-168.60
-164.80
-149.56
-122.17
-84.57
-40.90
3.67
44.38
78.04
103.40
120.84
131.66
137.20
138.41
135.81
129.82
121.14
110.97
100.83
92.16
85.69
81.03
76.81
71.22
62.89
51.54
38.23
24.88
13.29
4.28
-2.80
-9.66
-18.25
-29.77
-44.17
-60.19
-75.84
-88.93
-97.35
-99.04
-92.18
-75.51
-49.02
-14.52
24.22
62.16
94.28
116.97
129.02
131.63
127.63
120.23
111.90
103.85
96.15
88.37
80.18
71.81
63.91
57.23
52.09
48.21
44.70
40.53
34.92
27.61
18.96
9.68
0.55
-7.85
-15.41
-22.41
-29.42
-37.08
-45.97
-56.52
-68.94
-82.91
-97.23
-109.56
-116.60
-114.81
-101.71
-77.08
-43.48
-5.78
30.34
60.12
80.92
92.55
96.70
95.69
91.53
85.62
78.65
71.08
63.42
56.15
49.69
44.12
39.13
34.27
29.09
23.41
17.33
11.04
4.68
-2.14
-10.08
-19.92
-32.08
-46.12
-60.65
-73.67
-83.34
-89.13
-92.09
-94.75
-100.03
-109.64
-122.79
-135.80
-142.89
-138.47
-118.94
-83.97
-36.56
18.22
74.66
127.51
172.53
206.70
228.66
239.15
241.23
239.50
238.50
240.86
246.13
250.85
250.47
241.35
222.25
194.56
161.16
125.14
88.95
53.69
19.80
-12.43
-42.62
-70.09
-94.20
-114.78
-132.09
-147.15
-161.05
-174.41
-187.01
-197.98
-206.50
-212.53
-217.11
-221.77
-227.22
-232.18
-233.02
-224.89
-203.77
-168.36
-121.09
-67.60
-14.90
30.89
66.09
90.00
104.22
111.34
113.91
113.51
110.89
106.42
100.54
94.01
87.72
82.29
77.70
73.35
68.36
62.13
54.69
46.67
38.82
31.45
24.11
15.72
5.12
-8.27
-23.96
-40.53
-56.15
-69.33
-79.47
-87.11
-93.82
-101.56
-112.03
-125.87
-142.06
-157.63
-168.07
-168.46
-155.13
-127.20
-87.30
-41.05
4.67
43.88
73.19
92.17
102.68
107.36
108.36
106.88
103.32
98.07
91.97
86.30
82.20
80.15
79.66
79.55
78.58
76.13
72.40
68.21
64.27
60.59
56.31
50.13
41.06
29.13
15.48
1.82
-10.39
-20.65
-29.55
-38.36
-48.39
-60.30
-73.77
-87.48
-99.50
-107.39
-108.78
-101.71
-85.39
-60.62
-29.81
3.57
35.82
64.17
87.24
105.04
118.34
127.96
134.33
137.35
136.65
131.76
122.37
108.38
90.02
68.00
43.56
18.33
-6.01
-28.12
-47.37
-63.79
-77.93
-90.50
-102.07
-113.06
-123.70
-134.00
-143.82
-152.79
-160.41
-166.28
-170.34
-173.25
-176.37
-181.48
-189.99
-202.03
-215.67
-226.95
-230.67
-221.98
-198.02
-159.14
-109.00
-53.62
0.30
47.17
83.72
109.26
125.09
133.50
136.71
136.41
133.61
129.10
123.80
118.74
114.75
112.02
109.92
107.28
103.07
96.99
89.74
82.44
75.93
70.08
63.68
55.05
42.93
27.26
9.36
-8.60
-24.52
-37.25
-47.02
-55.34
-64.29
-75.86
-91.12
-109.78
-129.86
-147.77
-158.86
-158.50
-143.51
-113.54
-71.57
-23.38
24.05
64.55
94.44
113.02
122.03
124.28
122.42
118.22
112.55
105.91
98.85
92.09
86.31
81.84
78.40
75.24
71.51
66.68
60.75
54.14
47.38
40.59
33.34
24.75
13.91
0.47
-15.04
-31.23
-46.40
-59.10
-68.87
-76.37
-83.39
-92.17
-104.64
-121.53
-141.54
-161.24
-175.43
-178.54
-166.37
-137.86
-95.74
-46.06
3.67
46.75
79.06
99.67
110.17
113.23
111.33
106.16
98.68
89.70
80.22
71.42
64.27
59.15
55.78
53.46
51.44
49.32
46.90
44.06
40.42
35.28
27.86
17.74
5.12
-9.06
-23.40
-36.54
-47.64
-56.70
-64.59
-72.82
-83.19
-96.98
-114.40
-133.72
-151.11
-161.28
-158.89
-140.45
-106.05
-59.68
-8.48
39.58
78.00
103.52
116.31
119.14
115.51
108.48
99.84
90.44
80.69
71.18
62.71
56.06
51.53
48.71
46.65
44.31
41.00
36.57
31.14
24.77
17.03
7.14
-5.66
-21.48
-39.46
-57.93
-75.09
-89.70
-101.66
-112.04
-122.71
-135.72
-152.53
-173.11
-195.58
-215.94
-228.98
-229.53
-214.13
-182.56
-138.39
-88.25
-40.03
-0.67
25.63
38.21
39.51
33.73
25.30
17.55
12.23
9.62
9.21
10.25
12.25
14.90
17.91
20.87
23.31
25.00
26.02
26.76
27.49
27.75
26.03
20.03
7.40
-12.97
-40.07
-70.58
-99.59
-122.18
-135.10
-137.91
-133.08
-124.69
-116.66
-110.99
-106.98
-101.79
-91.89
-74.66
-49.32
-16.83
20.83
61.48
102.94
142.90
178.68
207.43
226.87
236.19
236.58
230.72
221.79
212.19
202.94
193.79
183.92
172.75
160.32
147.27
134.39
122.14
110.41
98.55
85.56
70.59
53.32
34.17
14.27
-4.93
-22.16
-36.80
-49.04
-59.81
-70.35
-81.89
-95.41
-111.27
-128.88
-146.31
-160.16
-166.05
-159.63
-138.21
-102.12
-55.21
-4.03
43.94
82.57
108.64
122.29
126.40
124.78
120.89
116.71
112.72
108.55
103.94
99.22
95.28
92.70
91.37
90.30
88.19
84.35
79.14
73.73
69.28
65.78
61.97
55.82
45.69
31.40
14.46
-2.58
-17.23
-28.32
-36.16
-42.36
-48.97
-57.72
-69.49
-84.07
-100.07
-115.78
-129.01
-137.39
-138.33
-129.16
-107.91
-74.42
-31.31
15.50
58.58
91.19
109.82
115.26
111.74
104.43
97.00
89.99
81.78
70.56
56.23
41.05
28.37
20.74
18.50
19.56
20.63
19.08
14.00
6.26
-2.43
-10.87
-18.81
-27.09
-36.64
-47.71
-59.66
-71.31
-81.68
-90.52
-98.22
-105.63
-113.32
-121.10
-127.70
-130.83
-127.67
-115.63
-93.28
-61.33
-22.89
17.18
53.52
82.07
101.08
111.36
115.24
115.41
113.67
110.63
106.18
100.32
93.80
87.94
84.09
82.82
83.61
85.03
85.47
83.94
80.48
76.38
72.82
70.22
67.89
64.45
58.59
49.81
38.80
27.27
18.05
12.99
12.25
14.28
16.55
16.39
12.01
3.04
-8.92
-19.15
-22.50
-14.47
7.73
44.45
93.21
148.57
202.90
247.90
278.16
289.61
281.05
254.70
216.06
172.55
131.51
98.24
66.43
34.54
3.15
-24.71
-46.21
-60.38
-67.90
-70.18
-68.49
-65.10
-60.49
-58.23
-62.64
-76.78
-101.01
-133.71
-170.17
-206.38
-239.52
-266.98
-291.16
-316.30
-346.16
-382.55
-425.64
-474.34
-526.39
-576.91
-598.98
-572.86
-495.47
-383.44
-262.92
-156.02
-73.68
-16.54
21.90
49.09
69.51
83.13
89.12
88.62
85.09
82.92
85.40
95.02
111.71
131.85
150.83
165.70
175.96
182.60
186.84
184.22
171.43
147.78
114.95
76.70
37.84
2.82
-25.33
-44.37
-54.73
-56.14
-48.04
-30.41
-3.56
32.54
78.89
132.41
188.89
242.42
286.39
313.58
317.33
294.05
245.79
180.76
111.06
49.05
2.75
-25.52
-38.67
-41.97
-40.03
-35.27
-28.51
-20.52
-12.40
-5.88
-2.06
-0.71
-0.53
0.34
3.45
8.97
15.61
21.44
24.64
24.24
20.68
15.31
10.06
6.66
5.85
7.20
9.65
11.98
13.49
14.50
15.60
17.93
22.46
29.37
37.92
46.74
54.35
59.85
63.37
65.30
66.71
68.61
71.15
73.37
73.30
68.43
56.11
39.21
19.52
-0.89
-20.24
-37.72
-53.72
-69.47
-86.43
-105.88
-128.44
-154.62
-183.66
-213.19
-239.32
-257.07
-261.74
-250.79
-225.33
-190.28
-153.52
-122.41
-101.31
-90.33
-86.21
-84.55
-82.50
-79.95
-78.88
-81.60
-88.30
-96.32
-101.50
-100.21
-91.22
-76.19
-58.07
-39.15
-20.11
0.19
23.09
48.43
73.80
95.40
109.75
115.58
114.35
109.30
103.72
99.30
95.50
90.33
81.89
69.88
55.96
43.23
34.39
30.48
30.38
31.52
31.21
28.05
22.15
14.88
7.53
0.80
-5.50
-11.94
-18.83
-25.70
-31.62
-35.58
-37.18
-36.81
-35.44
-34.21
-34.09
-35.49
-38.42
-42.18
-45.37
-45.88
-41.39
-30.07
-11.56
12.60
39.11
63.98
83.72
96.43
102.14
102.28
98.57
92.54
85.21
77.29
69.30
61.75
55.23
50.26
46.95
44.72
42.53
39.38
34.73
28.74
22.21
16.21
11.56
8.63
6.71
5.09
3.73
3.33
4.69
8.08
12.79
17.66
21.72
23.47
22.72
20.76
19.48
19.96
21.87
24.44
27.82
33.74
41.91
52.10
64.20
77.93
91.82
103.41
110.53
112.43
109.68
98.38
75.05
38.97
-6.95
-58.04
-109.87
-158.77
-201.87
-237.24
-270.55
-307.74
-351.50
-400.58
-452.71
-507.34
-565.63
-629.57
-661.24
-636.81
-557.82
-449.29
-336.69
-230.68
-130.24
-32.31
62.26
148.37
213.62
249.77
257.80
247.34
230.29
214.79
203.70
196.48
191.96
185.10
172.99
156.29
138.47
122.75
110.08
99.49
89.89
81.15
71.05
58.45
44.02
29.90
18.04
8.99
2.29
-2.50
-5.31
-7.47
-9.07
-9.70
-8.62
-5.50
-0.81
4.42
9.25
13.16
15.46
15.85
14.53
11.87
8.22
3.64
-1.91
-8.48
-15.99
-24.34
-33.43
-42.95
-52.77
-62.89
-73.30
-84.01
-94.95
-105.99
-117.02
-127.98
-138.36
-147.83
-156.10
-162.93
-168.02
-170.92
-170.94
-167.02
-161.26
-154.34
-146.73
-138.74
-130.61
-122.53
-114.62
-107.00
-99.78
-93.12
-86.72
-80.46
-74.32
-68.34
-62.58
-57.10
-51.92
-47.06
-42.58
-38.19
-33.78
-29.36
-25.05
-20.97
-17.16
-13.59
-10.08
-6.46
-2.38
2.26
7.37
12.67
17.91
23.01
28.15
33.72
40.17
47.87
56.79
66.52
76.33
85.57
94.00
101.88
109.96
119.14
130.14
143.07
157.44
172.40
187.04
201.01
214.43
227.95
242.56
259.25
278.87
301.90
327.79
354.77
379.46
397.58
404.99
399.19
380.34
351.28
316.46
280.47
246.63
216.60
190.78
168.95
150.92
136.51
125.18
115.79
106.70
96.25
83.56
68.80
53.36
39.14
27.73
19.88
15.04
11.72
8.08
2.75
-4.80
-13.91
-22.96
-29.66
-32.23
-29.80
-23.07
-14.23
-6.25
-1.71
-1.91
-6.16
-12.55
-18.84
-23.60
-26.79
-29.33
-32.29
-36.21
-40.79
-45.25
-48.87
-51.42
-53.35
-55.09
-57.13
-59.36
-60.93
-60.78
-57.88
-51.96
-43.63
-34.46
-26.45
-21.09
-18.40
-17.18
-15.60
-12.33
-7.54
-2.84
-0.19
-0.76
-3.86
-7.47
-9.20
-7.98
-4.63
-1.36
-0.44
-2.71
-7.07
-11.49
-14.12
-14.56
-13.92
-13.71
-14.93
-17.45
-20.02
-21.45
-21.20
-19.88
-18.76
-18.95
-20.75
-23.46
-25.53
-25.67
-23.60
-20.16
-16.98
-15.60
-16.44
-18.58
-19.91
-18.42
-13.33
-5.76
1.72
6.43
6.77
3.10
-2.53
-7.75
-10.91
-11.82
-11.42
-11.11
-11.79
-13.41
-15.00
-15.61
-14.50
-11.79
-8.30
-5.06
-3.01
-2.57
-3.43
-4.84
-6.14
-6.98
-7.67
-8.97
-11.52
-15.37
-19.53
-22.44
-22.79
-20.28
-15.92
-11.63
-9.15
-9.04
-10.26
-10.92
-9.22
-4.69
1.45
6.87
9.24
7.66
3.22
-1.88
-5.42
-6.60
-6.20
-5.84
-6.77
-8.89
-10.81
-10.89
-8.48
-4.46
-0.89
0.26
-1.79
-6.18
-10.94
-13.97
-14.30
-12.14
-8.67
-5.41
-3.57
-3.52
-4.99
-7.17
-9.24
-10.77
-11.90
-13.10
-14.91
-17.55
-20.55
-23.19
-24.59
-24.33
-22.50
-19.59
-16.14
-12.32
-7.87
-2.47
3.74
10.01
15.01
17.47
16.72
13.26
8.48
4.23
1.87
1.59
2.50
3.14
2.49
0.76
-1.08
-1.79
-1.02
0.38
1.00
-0.01
-2.44
-5.05
-6.59
-6.78
-6.49
-7.17
-9.51
-12.88
-15.86
-17.14
-16.98
-16.72
-18.11
-21.78
-26.63
-30.23
-30.55
-26.90
-20.67
-14.29
-9.82
-7.88
-7.46
-6.66
-4.03
0.88
6.97
12.57
16.18
17.23
16.18
14.18
12.32
11.51
11.80
12.67
13.34
13.04
11.57
9.51
7.99
8.30
10.91
15.07
18.92
20.40
17.99
11.93
3.73
-4.07
-9.20
-10.66
-8.99
-6.00
-3.87
-4.03
-6.80
-11.21
-15.68
-18.79
-19.88
-19.28
-17.84
-16.36
-15.16
-13.79
-11.46
-7.63
-2.52
2.88
7.21
9.47
9.51
8.10
6.76
6.65
8.12
10.44
12.01
11.55
8.65
4.30
0.60
-0.43
2.18
7.63
13.67
17.70
18.12
15.10
10.47
6.60
4.93
5.15
5.49
3.77
-1.16
-8.37
-15.07
-18.26
-16.24
-9.58
-1.03
5.87
8.27
5.06
-2.79
-12.99
-22.90
-30.17
-33.47
-32.21
-26.56
-17.20
-5.24
7.86
20.44
31.09
39.07
44.37
47.65
49.72
51.09
51.74
51.19
48.91
44.62
38.68
31.85
25.18
19.45
14.61
9.31
1.19
-12.33
-32.75
-58.88
-86.42
-109.31
-121.88
-121.51
-109.85
-92.05
-74.15
-60.73
-53.20
-50.34
-49.66
-49.09
-47.50
-44.51
-39.74
-32.43
-21.57
-6.77
11.11
29.70
45.86
56.69
60.85
59.07
54.04
48.59
44.54
41.37
36.69
28.01
14.65
-1.13
-14.49
-20.81
-17.78
-6.88
7.03
18.14
22.36
18.84
10.21
0.59
-6.30
-8.79
-7.83
-6.05
-6.30
-10.03
-16.26
-22.26
-24.50
-20.40
-9.66
5.26
19.94
29.66
31.65
25.74
14.60
2.29
-7.64
-13.39
-15.15
-14.13
-11.12
-6.42
0.07
7.63
14.12
16.66
13.07
3.67
-7.88
-16.45
-17.56
-9.64
5.20
22.30
36.49
44.18
44.85
40.28
33.45
26.99
22.13
18.41
14.28
8.44
1.03
-6.22
-10.68
-10.59
-6.36
-0.61
2.99
1.88
-3.73
-11.48
-18.45
-23.42
-27.80
-34.36
-44.84
-57.77
-67.61
-67.48
-52.77
-24.23
11.58
44.75
66.44
72.68
65.94
52.80
40.04
31.13
25.07
18.30
7.83
-5.91
-18.74
-25.27
-22.24
-10.92
3.50
14.74
18.95
16.74
12.78
12.35
17.88
26.98
33.25
29.68
12.70
-15.85
-48.70
-76.57
-91.93
-92.05
-79.51
-60.58
-42.05
-27.93
-18.29
-10.67
-2.19
8.29
19.43
28.77
34.54
37.42
41.84
52.88
73.40
101.71
131.62
155.13
165.94
162.06
146.30
125.41
106.16
92.93
87.09
88.14
95.38
108.71
128.44
146.11
153.33
143.38
114.83
72.43
24.20
-22.58
-63.28
-96.56
-123.20
-143.45
-157.19
-163.94
-163.76
-157.97
-148.81
-139.27
-132.06
-128.99
-129.46
-131.35
-131.91
-129.02
-122.06
-112.24
-102.11
-94.28
-90.56
-90.26
-90.69
-88.10
-78.96
-61.00
-33.62
1.79
41.65
79.17
106.76
117.58
108.18
80.49
41.53
1.19
-31.80
-53.00
-63.17
-66.44
-67.71
-70.40
-75.24
-80.53
-82.84
-78.13
-62.94
-36.01
0.81
42.23
80.92
110.52
128.18
135.77
138.21
140.06
142.17
141.11
131.01
107.50
71.10
27.34
-15.53
-50.45
-73.96
-85.99
-87.48
-78.01
-55.97
-21.23
21.66
62.83
90.00
94.45
74.81
38.48
-1.94
-34.71
-53.47
-58.73
-55.43
-49.17
-43.28
-38.41
-33.76
-28.84
-24.24
-21.22
-20.67
-22.23
-24.41
-25.42
-23.92
-19.83
-14.26
-8.91
-5.37
-4.30
-5.24
-6.87
-7.64
-6.53
-3.43
0.91
5.23
8.40
9.93
10.11
9.80
10.01
11.36
13.86
17.08
20.24
22.72
24.25
25.04
25.60
26.49
27.98
30.05
32.37
34.49
35.92
36.36
35.68
33.81
30.70
26.11
19.82
11.66
1.74
-9.14
-20.32
-30.82
-39.76
-46.54
-51.30
-54.59
-57.29
-60.12
-63.52
-66.98
-69.59
-70.64
-69.23
-65.34
-59.63
-53.00
-46.30
-39.82
-33.41
-26.56
-19.16
-11.60
-5.14
-1.40
-1.76
-6.97
-16.62
-30.67
-48.06
-66.53
-82.33
-90.74
-87.59
-71.26
-44.13
-12.11
17.30
38.27
48.64
50.10
46.56
41.68
37.25
33.10
28.40
22.74
16.94
12.39
10.03
9.68
10.06
9.58
6.94
1.99
-4.41
-10.75
-15.59
-18.26
-18.90
-18.40
-17.85
-17.93
-18.59
-19.06
-18.11
-14.69
-8.40
0.31
10.18
19.59
27.18
32.29
35.17
36.71
38.09
40.16
43.18
46.48
48.94
49.56
48.00
44.79
41.29
39.02
39.05
41.66
45.82
49.76
52.07
51.99
49.93
47.20
45.29
45.53
48.97
55.94
66.04
77.69
87.75
91.77
85.37
66.36
35.13
-1.51
-34.98
-58.27
-68.45
-67.05
-58.55
-47.63
-37.21
-28.20
-20.31
-14.10
-11.19
-13.34
-21.06
-33.02
-46.41
-58.02
-65.39
-67.71
-66.02
-61.57
-56.35
-51.15
-45.37
-37.97
-27.93
-15.38
-1.64
10.87
19.25
21.24
15.63
2.63
-15.82
-35.96
-52.92
-61.88
-59.17
-45.48
-24.82
-3.05
14.50
24.86
28.16
26.74
23.49
20.31
17.53
14.68
11.43
8.14
5.65
4.73
5.46
7.10
8.60
8.72
7.14
4.29
1.19
-1.11
-2.10
-1.89
-1.16
-0.75
-1.25
-2.64
-4.46
-6.01
-6.79
-6.83
-6.56
-6.59
-7.31
-8.62
-10.06
-11.01
-11.08
-10.33
-9.36
-8.86
-9.15
-9.70
-9.13
-5.67
2.22
15.23
32.87
53.51
75.24
96.31
115.70
133.15
148.53
161.74
172.73
181.62
188.29
191.86
189.96
178.06
153.04
113.71
62.71
6.62
-45.86
-87.31
-114.06
-127.12
-130.65
-129.43
-126.82
-123.99
-120.70
-116.62
-112.44
-109.48
-109.27
-111.57
-115.07
-118.11
-119.12
-117.81
-114.01
-108.30
-101.37
-93.74
-85.45
-76.41
-66.38
-55.23
-42.95
-29.50
-14.90
0.99
18.28
37.34
57.01
75.83
92.36
105.38
114.36
119.14
119.91
116.78
109.50
97.47
80.30
58.00
30.80
-0.25
-34.07
-68.41
-99.25
-121.09
-128.53
-118.51
-92.33
-55.89
-17.80
13.75
34.17
43.41
44.83
42.61
39.65
36.56
32.86
28.26
23.28
19.32
17.56
18.16
20.04
21.55
21.08
18.07
13.11
7.52
2.75
-0.28
-1.57
-2.02
-2.90
-5.29
-9.61
-15.54
-22.30
-28.95
-34.90
-39.98
-44.55
-49.25
-54.72
-61.37
-69.25
-78.20
-87.86
-97.81
-107.60
-116.82
-125.23
-132.76
-139.31
-144.53
-147.81
-148.19
-144.78
-136.23
-121.58
-100.41
-73.25
-41.57
-7.35
27.32
60.93
92.28
120.30
144.03
162.40
174.99
182.43
186.76
190.24
193.95
196.46
194.24
184.34
166.77
145.41
126.16
113.30
107.37
105.06
101.91
94.75
83.32
69.22
54.20
37.91
18.32
-6.78
-37.46
-69.75
-96.56
-110.58
-107.74
-89.42
-61.76
-33.07
-10.03
4.57
11.90
14.89
15.77
13.99
7.17
-6.50
-26.38
-48.59
-68.16
-82.04
-90.56
-97.16
-105.16
-115.28
-124.79
-129.18
-125.00
-112.03
-93.26
-73.46
-56.82
-45.05
-36.84
-28.94
-18.35
-4.40
11.34
26.09
37.63
44.80
47.37
45.70
40.37
33.10
27.12
26.01
32.33
45.97
64.21
83.28
100.41
114.74
127.13
138.32
147.30
150.89
144.74
126.56
98.05
65.30
35.87
14.66
1.96
-6.20
-14.14
-23.10
-29.86
-28.89
-16.38
6.82
35.06
60.39
76.36
81.09
77.42
70.87
66.14
64.28
63.10
58.91
49.54
35.64
19.99
5.64
-6.27
-16.66
-27.70
-40.70
-54.81
-66.97
-73.15
-70.44
-58.80
-41.60
-23.80
-9.65
-0.87
3.25
4.01
2.08
-3.11
-12.16
-24.87
-39.81
-54.82
-67.98
-77.58
-82.40
-81.66
-75.30
-64.10
-49.52
-33.39
-17.32
-2.94
8.74
16.86
20.62
19.07
10.71
-5.45
-29.23
-58.09
-87.90
-114.01
-132.94
-143.42
-145.79
-141.43
-131.80
-118.20
-101.64
-83.15
-63.86
-44.78
-27.25
-12.22
-0.61
6.67
8.50
3.56
-8.71
-27.21
-48.58
-67.89
-80.69
-84.57
-79.54
-67.32
-50.29
-30.25
-8.70
13.28
34.52
53.56
68.89
79.23
84.89
87.93
91.80
100.30
114.54
132.46
149.31
160.30
162.92
158.44
150.86
144.41
141.36
140.18
136.67
126.12
106.52
80.24
53.09
31.99
20.67
18.41
20.59
21.38
16.67
5.34
-11.26
-30.85
-51.10
-70.60
-88.34
-103.41
-114.46
-119.52
-117.09
-106.47
-89.07
-67.79
-46.24
-27.70
-14.24
-7.01
-5.92
-10.20
-18.44
-29.32
-42.08
-56.53
-72.76
-89.84
-106.02
-118.68
-125.38
-124.54
-115.47
-98.66
-75.46
-48.30
-19.87
7.14
30.73
49.56
62.53
69.01
68.80
62.63
51.93
38.38
23.46
8.24
-5.94
-17.80
-25.86
-28.99
-26.51
-18.18
-4.32
14.16
35.30
56.66
75.71
90.46
99.63
102.26
98.24
88.28
74.37
58.81
43.40
28.73
14.41
0.42
-12.26
-21.46
-25.09
-22.15
-13.50
-1.81
9.60
17.81
21.98
23.39
24.68
27.77
31.95
34.07
29.90
16.97
-3.80
-28.20
-50.55
-66.40
-73.77
-73.78
-69.04
-62.07
-53.72
-42.94
-27.98
-8.15
14.66
36.85
54.44
64.94
68.04
64.71
56.24
43.38
26.96
7.98
-11.67
-29.55
-43.10
-49.93
-48.71
-39.34
-23.49
-4.07
15.43
32.10
43.99
50.27
51.62
49.51
45.76
41.49
36.40
29.02
17.33
0.08
-22.53
-48.79
-75.81
-100.11
-118.09
-126.84
-125.30
-114.54
-96.83
-74.44
-48.71
-20.18
10.02
39.59
64.69
81.08
85.54
76.94
56.83
28.83
-2.22
-31.12
-54.19
-69.41
-76.29
-74.98
-65.91
-49.42
-26.43
1.66
32.60
63.15
89.60
107.80
114.60
108.75
91.69
68.07
43.40
22.74
8.85
2.07
0.92
3.58
8.93
16.75
27.19
38.99
49.21
53.73
49.82
38.23
23.51
12.45
9.72
15.95
27.03
36.69
39.50
32.80
16.92
-5.79
-32.00
-58.74
-83.52
-104.48
-120.30
-129.86
-132.73
-129.01
-120.16
-108.26
-95.58
-84.11
-75.02
-69.40
-67.65
-69.62
-74.19
-79.68
-84.53
-87.61
-88.48
-86.61
-81.47
-72.33
-58.85
-41.17
-19.73
4.31
29.42
53.36
74.11
90.29
101.67
108.76
111.69
110.22
103.53
91.36
74.35
54.00
32.24
10.86
-8.27
-23.90
-34.73
-40.24
-40.22
-34.59
-23.54
-7.59
11.81
32.74
52.92
70.32
83.35
90.49
90.74
83.59
69.87
51.35
30.54
9.77
-9.04
-24.01
-33.66
-36.79
-33.15
-23.41
-8.91
8.54
27.22
45.29
61.45
74.73
84.54
90.07
89.98
82.54
66.57
42.94
14.77
-13.15
-35.96
-50.18
-54.13
-48.40
-35.00
-16.83
3.25
23.19
41.74
58.09
71.20
80.10
83.81
82.01
74.85
62.34
44.45
21.24
-6.03
-34.85
-61.74
-83.34
-97.30
-102.26
-98.38
-86.84
-69.62
-49.01
-27.08
-5.43
14.66
31.66
44.38
51.85
53.76
50.02
40.26
24.15
1.89
-24.31
-50.58
-72.05
-84.87
-87.52
-80.95
-67.81
-51.08
-33.28
-15.93
0.01
13.42
22.69
25.91
22.66
14.79
6.46
1.87
2.59
6.43
8.29
3.39
-9.66
-27.96
-45.65
-56.88
-58.24
-50.19
-35.91
-19.50
-3.32
12.68
30.25
50.57
72.18
91.22
102.86
104.04
95.47
81.14
66.63
56.23
51.40
50.57
50.87
49.96
47.76
46.28
47.89
53.14
59.47
62.23
57.07
42.61
21.90
0.92
-13.51
-17.15
-10.15
2.61
13.18
13.76
0.33
-25.06
-55.39
-81.83
-98.07
-102.64
-98.66
-91.21
-84.11
-78.70
-73.83
-67.76
-60.28
-53.54
-51.49
-57.42
-71.57
-90.21
-107.48
-118.52
-121.80
-119.76
-116.52
-114.98
-115.05
-114.07
-108.69
-96.86
-79.51
-59.83
-41.86
-27.69
-16.19
-3.43
14.65
39.11
66.79
91.04
105.16
106.08
95.50
79.17
63.60
53.15
48.26
46.78
45.90
45.12
46.53
52.97
65.29
80.39
92.42
95.69
88.00
72.56
55.89
45.23
44.72
53.72
67.42
79.06
82.58
75.19
58.07
34.73
8.99
-16.87
-41.77
-64.51
-82.53
-91.25
-86.92
-68.09
-37.35
-0.99
33.04
57.75
68.63
64.81
48.58
23.54
-6.47
-38.25
-69.05
-95.75
-114.90
-122.34
-115.52
-93.98
-60.44
-20.78
17.69
48.02
65.62
69.24
60.55
42.19
16.48
-15.10
-51.15
-88.65
-122.54
-146.29
-154.54
-145.14
-120.01
-84.77
-46.68
-12.07
15.40
36.04
53.02
69.87
87.99
105.43
117.65
120.20
111.21
92.94
70.70
50.53
36.89
31.02
31.18
34.05
36.15
35.72
32.60
27.67
22.08
17.18
14.81
16.98
25.27
39.23
56.66
73.99
87.87
96.02
97.02
90.01
74.04
49.75
19.59
-11.97
-39.68
-59.63
-70.47
-73.66
-72.24
-69.07
-64.85
-58.46
-48.35
-34.47
-20.07
-10.27
-10.09
-21.22
-41.10
-64.02
-83.60
-95.79
-99.59
-97.21
-91.82
-85.95
-80.24
-73.11
-62.33
-46.45
-26.37
-4.59
15.43
31.45
42.75
49.46
52.03
50.24
43.93
33.06
18.82
3.55
-9.36
-15.98
-13.45
-0.81
19.94
44.40
67.05
83.21
90.35
88.37
79.37
66.35
51.87
36.79
20.21
1.32
-18.97
-37.18
-49.04
-52.17
-48.18
-42.06
-39.31
-42.13
-48.36
-52.82
-50.48
-39.46
-21.84
-2.18
15.13
28.44
38.77
48.06
56.34
60.34
54.97
36.24
4.54
-34.37
-71.49
-98.07
-109.20
-104.70
-88.57
-66.28
-42.62
-20.02
1.59
23.44
46.29
68.77
87.86
99.79
101.74
93.65
77.27
56.02
33.34
12.18
-5.50
-18.34
-25.40
-25.95
-19.79
-8.57
4.43
14.86
19.68
19.20
17.31
19.93
31.00
50.93
75.83
99.69
117.02
124.59
121.75
109.29
88.44
59.54
22.71
-21.11
-68.77
-114.24
-150.30
-170.69
-173.59
-161.96
-142.55
-123.04
-108.96
-102.61
-102.92
-107.09
-111.95
-115.41
-116.86
-116.73
-115.81
-114.18
-111.58
-107.05
-100.03
-90.19
-77.04
-60.27
-39.82
-16.52
7.80
30.78
50.32
64.97
73.94
77.39
75.85
70.09
60.42
46.54
27.97
5.11
-19.37
-41.16
-55.35
-58.67
-50.81
-34.02
-12.08
11.57
34.38
55.09
73.03
87.51
97.26
100.24
95.00
81.26
60.99
37.44
14.06
-6.72
-23.89
-36.79
-44.62
-45.91
-39.46
-24.85
-2.93
24.07
53.17
80.97
104.74
122.67
134.04
138.54
135.53
124.29
104.61
78.09
48.03
18.70
-6.04
-23.80
-33.51
-35.40
-30.18
-19.16
-4.05
12.95
29.40
42.71
50.81
52.60
48.39
39.90
29.14
17.62
6.29
-4.30
-13.17
-19.36
-22.34
-22.40
-20.49
-17.33
-13.30
-8.54
-3.61
0.33
2.13
1.60
-0.22
-1.57
-0.91
1.73
4.57
4.54
-0.91
-11.84
-25.33
-36.81
-42.75
-43.05
-40.95
-41.05
-45.96
-54.14
-61.03
-61.87
-54.85
-42.66
-31.08
-25.87
-29.40
-38.68
-46.92
-47.55
-38.06
-22.05
-6.97
0.03
-3.46
-13.45
-22.62
-24.49
-17.20
-3.78
10.42
21.57
29.18
35.81
44.58
56.41
68.87
76.94
75.72
62.65
39.38
11.76
-12.68
-27.37
-29.94
-23.13
-13.56
-8.54
-12.61
-25.27
-41.20
-53.02
-54.65
-43.76
-22.23
4.69
30.11
47.55
51.97
41.71
18.72
-11.72
-42.88
-68.96
-86.57
-94.84
-94.22
-85.24
-68.43
-45.02
-17.02
12.68
41.44
67.45
89.55
106.55
116.15
114.72
98.26
64.38
15.20
-41.12
-91.61
-122.25
-123.82
-95.87
-47.91
3.94
43.57
61.31
57.80
43.24
32.24
36.34
59.11
95.05
134.14
167.48
191.05
205.78
213.40
212.86
200.05
171.16
127.74
78.76
38.26
18.83
25.09
50.86
82.19
103.83
105.90
87.37
55.08
20.29
-5.75
-15.39
-6.89
15.26
41.90
61.83
66.24
51.92
22.08
-15.92
-54.31
-88.76
-118.81
-145.83
-170.26
-189.37
-197.89
-190.47
-164.38
-120.95
-65.23
-5.19
50.44
93.84
119.78
126.67
116.45
93.48
62.66
27.72
-9.87
-49.79
-90.80
-129.18
-158.92
-173.51
-168.42
-143.63
-103.30
-53.88
-1.12
51.47
102.31
150.57
194.83
232.45
260.22
276.58
279.31
266.75
238.90
197.87
147.76
93.80
41.00
-6.63
-46.28
-77.40
-100.82
-117.66
-128.60
-133.99
-134.51
-131.69
-127.75
-124.75
-123.99
-125.13
-126.88
-127.99
-128.13
-127.93
-128.38
-130.03
-132.97
-137.00
-141.34
-145.73
-150.47
-156.40
-164.59
-175.69
-189.56
-205.21
-221.31
-236.45
-250.03
-262.60
-275.11
-288.26
-301.71
-313.75
-321.48
-322.30
-312.45
-288.22
-246.85
-187.57
-112.87
-29.01
54.90
129.41
187.48
227.47
253.08
270.98
287.32
304.90
322.66
337.32
345.89
347.45
343.28
335.35
324.80
311.64
295.21
275.30
252.94
230.18
209.38
192.33
179.50
169.89
161.61
152.71
141.90
129.05
114.82
100.15
85.68
72.01
58.43
43.89
27.69
9.76
-9.17
-27.73
-44.38
-57.96
-68.08
-75.10
-79.78
-82.90
-85.16
-87.14
-89.03
-90.85
-92.38
-93.43
-93.84
-93.50
-92.18
-89.47
-85.05
-78.57
-69.93
-59.21
-46.75
-33.05
-18.75
-4.56
8.90
20.84
30.80
38.43
43.54
46.14
46.44
44.76
41.59
37.70
33.75
30.53
28.79
29.13
32.14
38.08
46.86
58.09
71.24
85.55
100.20
114.33
127.01
137.62
145.67
150.73
152.61
151.31
147.05
140.15
131.05
120.02
107.22
94.22
81.96
71.29
62.68
56.46
52.57
50.89
50.99
52.39
54.45
56.14
56.62
55.21
51.44
45.17
36.45
25.71
13.55
0.96
-11.30
-22.34
-31.28
-37.36
-39.93
-38.63
-33.39
-24.59
-12.86
0.76
14.96
28.42
39.73
47.82
51.87
51.48
46.55
37.31
24.25
8.13
-9.86
-28.36
-45.81
-60.62
-71.46
-77.32
-77.90
-73.57
-65.32
-54.36
-42.03
-29.57
-18.05
-8.62
-2.26
0.01
-2.78
-11.40
-26.06
-46.26
-70.73
-97.53
-124.71
-150.51
-173.48
-192.79
-207.92
-219.03
-226.97
-233.47
-240.37
-248.61
-257.19
-263.30
-264.21
-258.69
-248.20
-236.04
-225.47
-218.49
-215.33
-215.21
-216.81
-218.83
-219.71
-217.65
-211.01
-198.64
-180.56
-158.01
-133.32
-108.89
-86.46
-66.70
-49.68
-35.92
-26.32
-21.93
-22.88
-28.06
-35.63
-43.70
-51.08
-56.81
-60.32
-60.86
-57.86
-51.08
-40.66
-27.59
-13.38
0.09
11.48
20.55
28.37
36.47
45.35
54.39
61.99
67.10
69.73
71.10
72.82
76.16
81.87
89.94
99.87
111.02
122.62
134.00
144.29
152.48
157.26
157.86
154.50
148.39
140.95
132.82
124.20
115.29
107.24
101.87
100.36
102.53
106.43
109.72
110.97
110.38
109.27
108.96
109.61
109.63
106.54
97.90
83.30
64.66
45.31
27.85
12.04
-4.79
-26.43
-54.75
-87.97
-120.97
-147.29
-162.04
-163.64
-154.04
-137.15
-116.91
-95.43
-72.65
-47.99
-21.84
2.94
22.44
33.43
35.19
30.04
21.36
12.00
2.75
-6.84
-17.61
-29.32
-40.36
-48.35
-50.86
-46.94
-37.28
-24.21
-10.25
2.97
15.04
26.50
37.14
46.16
51.97
53.04
48.40
37.54
20.55
-1.84
-27.41
-52.87
-74.12
-87.62
-91.44
-85.63
-72.26
-54.28
-34.94
-16.49
0.05
14.45
26.56
35.21
39.11
37.32
30.27
19.28
5.53
-10.56
-29.46
-50.96
-73.41
-93.31
-106.46
-109.42
-100.68
-81.55
-55.39
-26.64
1.34
26.97
50.45
72.38
91.87
106.53
113.07
109.38
95.60
74.09
48.57
22.46
-1.37
-21.32
-36.31
-45.44
-47.77
-42.24
-28.69
-8.22
16.20
40.93
62.84
80.14
92.65
100.50
103.87
102.41
95.85
84.11
67.42
46.34
21.81
-4.18
-29.12
-50.10
-64.82
-72.07
-71.96
-65.94
-56.29
-45.90
-36.98
-30.71
-27.07
-25.57
-26.40
-30.58
-39.44
-53.18
-70.35
-88.08
-103.16
-113.17
-116.54
-113.01
-102.95
-87.44
-67.94
-46.25
-24.79
-6.24
6.77
13.01
13.36
10.79
8.88
9.53
12.14
13.87
12.12
6.14
-1.80
-7.71
-7.60
0.66
16.17
35.68
55.48
73.11
88.37
101.88
113.65
121.75
123.87
119.21
110.25
101.85
98.66
102.37
110.91
120.10
126.44
128.93
129.58
131.57
137.12
145.13
151.50
150.85
139.90
119.74
95.54
74.10
60.13
53.68
50.57
44.60
31.07
8.64
-20.04
-50.46
-78.40
-101.93
-121.86
-139.99
-157.12
-171.47
-179.39
-177.08
-162.84
-137.99
-105.92
-71.27
-38.09
-9.85
11.30
24.17
28.64
25.36
15.22
-0.60
-20.90
-43.63
-66.13
-84.98
-96.65
-98.70
-90.17
-72.63
-49.53
-25.38
-3.59
14.63
30.26
45.36
60.52
74.67
85.07
89.03
84.90
72.44
52.59
26.95
-1.75
-30.22
-54.67
-71.88
-80.00
-78.87
-70.14
-56.26
-40.12
-23.71
-8.11
6.19
18.50
27.13
30.61
28.39
21.76
12.89
3.34
-7.01
-19.73
-35.91
-54.68
-72.51
-84.60
-86.84
-77.46
-58.08
-32.62
-5.82
19.21
41.76
62.87
83.46
102.01
114.83
117.38
107.14
85.21
56.14
26.23
0.69
-17.54
-28.53
-33.81
-34.93
-32.24
-24.68
-11.29
7.64
29.33
49.89
65.79
75.35
79.19
78.66
75.00
68.30
58.19
44.35
27.15
7.69
-12.41
-30.82
-45.53
-54.94
-58.64
-57.30
-52.26
-45.23
-37.63
-30.87
-25.54
-21.59
-18.58
-16.34
-16.07
-19.54
-28.39
-42.32
-59.15
-75.51
-88.24
-95.66
-97.28
-93.51
-84.36
-69.93
-50.08
-25.29
2.44
30.07
53.82
71.38
82.14
87.21
87.62
82.90
71.33
51.20
23.28
-8.60
-38.14
-59.37
-68.66
-65.70
-53.26
-35.17
-14.79
6.53
28.96
52.70
76.22
95.45
105.71
103.92
90.70
70.09
47.77
27.66
10.85
-3.90
-18.47
-33.31
-46.65
-55.22
-55.86
-47.89
-33.84
-18.72
-7.15
-0.77
2.62
7.65
18.14
34.15
51.71
64.34
66.48
55.90
34.70
7.59
-20.23
-45.85
-69.26
-91.85
-114.22
-134.17
-147.44
-149.67
-138.97
-117.10
-88.41
-58.14
-30.21
-7.27
9.64
19.80
22.71
17.74
4.48
-16.57
-43.71
-73.66
-102.41
-125.89
-140.77
-145.60
-140.24
-126.45
-106.87
-84.60
-61.99
-39.92
-17.88
5.12
28.77
51.67
71.36
86.04
94.94
98.52
98.00
94.82
90.86
87.96
87.87
91.51
98.65
107.90
117.24
124.60
128.15
127.10
121.61
112.60
100.86
86.65
70.71
54.75
41.73
34.70
34.69
40.02
46.54
50.14
48.85
43.65
37.48
33.39
32.78
34.87
37.32
37.70
35.54
32.67
32.04
35.84
43.48
51.97
57.26
56.82
51.35
44.15
39.52
40.15
45.90
54.14
61.20
64.29
63.16
60.05
57.56
56.98
56.79
53.98
45.95
32.42
16.02
0.22
-12.24
-20.92
-27.43
-34.15
-43.11
-55.20
-69.80
-84.45
-96.16
-102.15
-101.20
-93.94
-82.41
-69.52
-57.67
-48.86
-43.61
-41.67
-42.62
-46.41
-54.05
-66.72
-84.68
-105.70
-125.75
-140.15
-145.64
-141.65
-129.92
-113.49
-94.95
-75.92
-56.68
-36.75
-16.20
3.89
21.06
33.20
39.46
41.01
39.87
37.22
32.58
23.97
9.99
-8.63
-28.46
-44.73
-53.26
-51.92
-41.63
-25.24
-6.25
13.26
33.19
54.55
77.68
100.30
118.14
126.36
122.06
105.69
80.63
51.89
23.84
-0.49
-20.16
-35.38
-46.55
-53.30
-53.95
-46.57
-30.16
-6.29
21.30
47.72
68.73
82.28
88.36
88.85
86.00
81.37
74.85
64.52
47.79
22.91
-8.91
-43.78
-76.08
-100.74
-115.00
-118.88
-114.68
-105.63
-94.79
-83.85
-73.14
-62.30
-51.42
-42.23
-37.27
-39.07
-48.21
-63.32
-81.62
-100.10
-116.79
-130.38
-140.26
-145.78
-146.22
-140.91
-129.33
-111.91
-89.90
-65.53
-40.84
-17.05
5.74
27.99
49.17
67.75
81.50
89.37
92.22
93.03
95.68
102.94
115.40
130.88
145.58
155.74
159.58
158.26
154.92
152.82
152.77
152.96
149.75
139.97
122.37
98.34
71.32
45.57
24.70
10.58
2.76
-0.54
-1.28
-0.26
2.25
5.83
8.83
9.08
5.23
-1.82
-9.17
-13.49
-12.83
-7.42
0.33
7.32
11.00
10.71
7.30
2.80
-1.30
-4.57
-7.54
-10.76
-13.70
-14.48
-10.91
-2.05
10.72
24.19
34.19
37.82
34.49
26.89
19.54
16.93
20.64
28.12
33.79
31.64
18.71
-2.97
-27.44
-47.70
-59.53
-62.62
-60.74
-58.85
-60.25
-64.41
-67.23
-63.55
-50.54
-30.12
-7.83
9.66
17.59
14.88
3.30
-14.21
-35.24
-57.71
-79.89
-99.58
-114.30
-121.87
-120.85
-111.03
-93.52
-70.67
-45.21
-19.64
3.74
23.21
37.20
45.29
48.23
47.90
46.01
42.71
36.35
24.31
5.45
-18.61
-43.25
-62.69
-72.30
-70.13
-57.78
-39.05
-18.41
1.51
20.43
39.73
60.46
81.05
97.71
105.67
101.92
86.71
63.49
37.30
12.48
-8.20
-24.19
-35.95
-43.76
-46.87
-43.34
-31.43
-10.93
15.51
43.45
68.13
86.39
97.57
102.58
103.06
100.04
93.78
83.73
69.20
49.87
26.36
0.86
-23.68
-44.20
-58.68
-66.60
-68.64
-66.42
-61.70
-56.25
-50.96
-45.78
-40.08
-33.48
-27.25
-23.78
-25.85
-34.63
-49.20
-66.75
-83.77
-97.52
-106.10
-108.79
-105.27
-95.53
-79.66
-58.04
-32.11
-4.25
21.99
43.80
59.74
70.42
77.44
81.46
81.66
75.78
62.26
41.55
17.10
-5.99
-22.76
-30.11
-28.18
-19.41
-6.99
7.21
23.19
41.49
61.31
79.06
90.06
90.87
81.74
66.49
50.33
36.83
26.42
17.09
6.24
-7.22
-22.02
-34.96
-42.53
-43.01
-37.47
-29.41
-22.43
-18.06
-14.87
-9.31
1.70
18.25
37.09
52.61
59.40
54.44
38.25
14.06
-13.43
-40.62
-65.57
-87.58
-105.95
-118.57
-122.38
-114.74
-95.29
-66.95
-35.06
-5.85
16.08
28.60
32.88
32.03
29.64
27.34
24.15
17.17
3.58
-16.65
-40.14
-61.04
-73.67
-75.87
-69.49
-59.82
-52.29
-49.52
-49.22
-45.31
-31.11
-3.58
33.81
72.71
103.32
118.88
117.86
103.25
80.03
52.54
23.97
-3.70
-28.39
-47.79
-59.89
-63.54
-58.98
-48.01
-33.35
-17.43
-1.76
13.02
26.66
38.34
47.68
54.90
61.30
68.24
75.72
81.73
82.82
76.53
63.09
45.90
30.02
19.90
17.52
21.59
28.70
34.92
38.36
39.50
40.38
42.55
44.85
43.86
35.31
16.89
-9.99
-40.69
-69.05
-90.28
-102.48
-106.63
-105.30
-100.81
-93.30
-81.02
-62.23
-36.99
-8.50
18.26
38.83
51.22
56.86
58.62
59.20
59.35
57.95
52.87
41.96
24.44
1.56
-22.79
-43.30
-54.69
-53.78
-40.36
-17.08
11.57
41.35
68.60
91.52
109.51
121.93
127.74
124.62
110.02
82.78
45.03
1.77
-40.49
-75.92
-101.47
-116.62
-122.97
-122.48
-116.62
-105.74
-89.60
-68.77
-44.94
-21.58
-2.00
11.84
20.28
25.21
28.06
28.75
25.52
16.86
2.87
-13.79
-28.95
-38.69
-40.58
-34.95
-23.94
-10.43
3.81
18.69
35.07
53.37
71.79
86.92
94.75
92.66
80.50
60.33
35.62
9.82
-14.00
-34.21
-50.23
-62.29
-70.58
-74.18
-71.38
-60.49
-41.49
-16.58
10.12
33.86
51.18
60.52
63.05
61.40
58.23
54.41
48.21
36.28
15.61
-13.64
-47.71
-80.31
-105.11
-118.43
-119.88
-112.07
-98.66
-82.97
-66.42
-48.80
-29.29
-8.05
12.48
28.72
37.10
36.20
26.95
11.87
-6.21
-25.40
-44.23
-61.61
-75.86
-84.89
-86.71
-79.82
-64.31
-41.78
-15.42
11.59
36.78
58.89
77.54
91.80
100.39
101.81
95.43
81.76
62.38
39.30
14.40
-10.08
-31.94
-48.61
-57.90
-58.33
-49.60
-32.72
-10.05
14.85
38.38
57.50
70.29
75.96
74.23
65.90
52.71
37.34
21.90
6.71
-10.12
-31.37
-57.98
-87.80
-115.41
-134.66
-141.40
-135.28
-119.36
-98.41
-76.58
-55.51
-34.47
-11.84
12.88
37.86
60.12
77.02
88.05
94.58
98.70
101.68
103.26
102.65
99.65
95.00
89.92
85.43
81.61
77.45
71.68
63.49
53.97
45.90
42.85
46.82
56.42
67.04
72.50
68.21
53.86
33.18
12.05
-4.98
-16.43
-24.44
-32.45
-42.29
-51.88
-55.62
-47.19
-23.82
11.22
50.00
83.31
104.27
111.23
106.26
92.63
72.00
44.13
7.92
-36.23
-84.74
-131.12
-167.53
-187.94
-190.47
-178.02
-156.16
-130.29
-104.06
-78.42
-53.64
-30.00
-8.69
8.78
20.99
26.80
25.49
16.60
0.98
-18.73
-38.32
-53.09
-59.48
-55.98
-44.05
-26.75
-7.59
11.72
31.54
53.19
77.13
100.92
120.03
129.49
126.52
111.77
88.68
61.84
34.87
10.09
-11.79
-30.47
-45.39
-55.25
-58.13
-52.40
-37.83
-16.52
7.72
30.48
48.11
58.77
62.19
59.64
52.94
43.81
32.94
19.70
2.68
-19.12
-44.63
-70.83
-93.46
-108.85
-115.32
-113.35
-105.22
-93.70
-81.33
-69.29
-57.41
-44.85
-31.23
-17.94
-7.39
-2.37
-4.17
-12.33
-25.07
-40.09
-55.66
-70.12
-82.08
-89.82
-91.60
-86.08
-72.49
-51.57
-25.19
3.48
31.70
57.70
81.02
101.84
119.35
131.76
136.59
132.41
119.45
99.78
76.56
52.77
31.18
13.53
1.06
-5.57
-5.96
0.09
12.23
29.35
48.89
67.73
82.63
91.17
92.11
85.12
71.08
51.67
29.44
6.78
-14.68
-34.26
-51.87
-66.56
-76.77
-80.38
-76.22
-64.65
-47.60
-27.89
-8.18
9.22
23.18
33.21
39.19
40.64
36.26
24.71
5.38
-19.93
-47.65
-73.16
-92.50
-103.60
-106.11
-101.05
-89.79
-73.82
-54.44
-33.08
-11.65
7.58
21.94
30.13
32.57
31.81
30.48
29.60
27.81
22.02
10.11
-7.23
-26.05
-40.93
-47.88
-46.22
-39.16
-31.53
-27.06
-25.57
-22.93
-13.19
7.24
36.77
69.25
96.61
112.71
115.73
107.69
92.21
71.70
46.68
16.30
-19.46
-58.04
-93.92
-120.00
-130.27
-122.74
-100.42
-69.57
-36.71
-6.47
19.53
41.05
58.39
71.33
79.35
81.84
78.12
67.66
50.04
26.08
-1.50
-28.42
-49.74
-61.65
-62.45
-53.39
-37.52
-18.64
0.86
20.35
40.11
60.00
77.62
89.13
90.49
79.89
58.93
31.90
4.25
-19.91
-38.49
-51.92
-61.57
-68.55
-72.55
-71.78
-64.45
-50.14
-31.06
-10.98
6.43
19.24
28.00
34.08
38.77
41.94
42.36
38.42
28.67
12.79
-7.91
-30.18
-49.62
-61.77
-63.76
-54.89
-36.64
-12.34
14.15
38.81
58.76
72.54
79.80
80.90
75.27
62.15
41.08
13.45
-17.32
-46.58
-69.70
-83.78
-87.70
-82.29
-69.29
-50.86
-28.85
-4.61
20.16
43.65
63.23
76.91
84.06
85.67
83.79
79.66
73.16
62.75
47.29
26.96
3.86
-18.69
-37.57
-50.38
-56.72
-57.07
-52.67
-44.45
-32.58
-17.14
1.34
20.84
38.57
51.55
57.83
56.87
49.14
35.97
18.94
0.24
-18.29
-35.13
-49.47
-60.86
-68.17
-69.77
-63.75
-49.40
-27.88
-2.29
22.99
43.87
57.42
63.25
62.99
59.40
54.40
47.55
36.45
18.00
-8.56
-40.78
-73.16
-99.30
-114.55
-117.21
-109.03
-93.61
-74.95
-55.45
-35.61
-14.80
7.18
28.49
46.01
56.31
57.55
49.83
34.66
14.00
-10.57
-37.15
-63.63
-87.16
-104.63
-113.39
-111.59
-98.96
-76.69
-47.54
-14.75
18.51
49.72
77.08
98.78
113.56
120.59
119.90
112.02
97.60
77.50
52.91
26.44
1.37
-18.90
-32.23
-38.39
-38.59
-34.64
-27.85
-19.00
-8.09
4.88
19.27
33.48
44.86
51.39
52.45
49.36
43.93
36.93
27.30
12.67
-8.17
-33.70
-59.42
-79.52
-89.35
-87.26
-75.17
-57.16
-37.65
-18.98
-1.17
16.94
35.55
51.92
61.29
58.88
42.88
15.65
-17.03
-48.38
-73.48
-90.23
-99.26
-102.43
-101.21
-95.43
-83.56
-64.09
-36.84
-4.09
30.46
62.96
90.76
112.84
128.61
137.55
138.67
131.31
116.08
94.87
70.46
45.59
22.35
1.53
-16.78
-32.52
-44.44
-49.94
-45.92
-31.00
-7.22
20.63
46.52
65.44
75.49
76.80
70.47
56.91
35.82
7.10
-27.68
-64.25
-96.21
-116.52
-120.17
-106.49
-79.32
-44.92
-9.22
23.58
52.28
76.57
96.24
109.97
115.57
111.20
96.14
71.72
40.98
8.44
-21.00
-43.77
-58.13
-64.15
-62.53
-54.32
-39.94
-20.10
3.90
29.49
52.44
68.04
72.19
63.95
46.16
24.73
6.20
-5.88
-12.51
-18.30
-28.00
-43.80
-63.54
-82.17
-94.41
-96.69
-88.70
-72.46
-51.36
-28.56
-6.36
13.60
30.25
42.09
48.20
48.40
43.48
34.72
22.68
6.99
-13.16
-37.30
-63.24
-87.12
-104.95
-114.08
-113.76
-105.29
-90.94
-73.23
-53.70
-32.99
-11.31
10.52
30.01
44.14
50.18
47.39
36.97
21.30
2.82
-16.89
-36.52
-54.76
-69.72
-79.09
-80.79
-73.35
-56.86
-32.95
-4.66
24.83
53.11
78.92
101.80
120.72
134.33
140.86
139.25
129.49
112.45
89.63
62.64
33.91
6.09
-17.80
-35.24
-44.64
-45.57
-38.85
-26.20
-10.34
6.08
20.81
32.30
39.58
41.63
38.08
29.15
16.36
1.55
-13.87
-29.45
-45.61
-61.97
-76.98
-87.63
-90.85
-84.89
-70.17
-49.43
-26.54
-5.33
12.24
26.43
38.98
51.37
62.89
70.97
72.15
64.29
47.45
23.79
-3.40
-30.92
-55.61
-74.91
-86.63
-89.43
-82.92
-67.71
-45.44
-18.51
9.77
36.37
58.80
75.59
86.09
89.61
85.58
73.61
54.56
30.42
4.34
-20.08
-39.78
-52.21
-56.19
-51.66
-39.96
-23.11
-3.43
17.21
37.15
54.59
68.03
76.10
77.97
73.41
62.50
45.78
23.91
-1.96
-30.57
-60.35
-89.22
-114.30
-131.90
-138.44
-131.99
-113.37
-85.54
-52.54
-18.00
15.66
46.48
72.67
91.82
101.38
99.34
85.11
60.18
27.99
-6.62
-38.30
-63.11
-78.80
-84.81
-81.36
-68.91
-47.86
-19.50
13.99
48.96
80.50
103.61
114.02
110.20
94.02
70.35
45.61
24.69
9.44
-1.48
-10.60
-19.95
-29.54
-37.67
-42.09
-41.03
-34.37
-23.51
-11.02
0.81
10.76
18.94
26.50
33.72
40.01
43.64
42.52
35.27
21.33
1.15
-23.91
-51.25
-77.78
-100.21
-116.07
-124.19
-124.63
-118.89
-109.04
-97.59
-86.48
-76.58
-67.93
-60.13
-53.92
-50.39
-50.56
-54.13
-59.43
-64.25
-66.82
-66.67
-63.88
-58.85
-51.43
-41.15
-27.54
-10.38
9.43
30.42
50.23
67.28
81.32
93.53
105.76
118.80
132.14
143.94
152.47
156.87
157.31
154.71
149.81
143.41
135.52
126.44
116.30
105.70
95.95
88.21
83.35
80.93
79.83
78.51
75.65
70.41
62.07
50.48
35.87
19.33
1.79
-16.13
-34.51
-53.68
-72.77
-89.66
-101.20
-104.85
-99.83
-87.49
-71.05
-54.14
-40.05
-30.20
-24.35
-21.15
-19.75
-20.83
-26.52
-39.31
-59.58
-84.82
-109.92
-128.92
-137.60
-134.53
-121.70
-103.03
-82.69
-63.03
-44.03
-24.19
-2.15
21.14
43.02
59.91
69.18
69.95
62.64
48.36
28.22
3.97
-22.10
-46.79
-66.67
-78.92
-81.59
-74.37
-58.22
-35.46
-8.74
19.27
46.30
70.38
89.42
102.02
107.54
106.38
99.27
86.55
68.29
44.79
18.02
-8.78
-31.76
-48.10
-56.98
-59.07
-55.71
-47.77
-35.64
-19.35
0.52
22.33
43.46
60.62
71.83
76.94
77.66
75.89
71.92
63.97
49.17
26.15
-3.27
-34.00
-59.51
-74.57
-77.02
-68.51
-53.02
-35.04
-17.14
0.42
18.72
38.20
56.59
69.69
72.94
63.97
44.12
17.53
-10.39
-35.42
-55.30
-69.94
-80.13
-86.41
-88.42
-84.88
-75.02
-59.41
-40.80
-22.68
-7.77
3.02
10.77
16.50
20.52
21.69
18.48
10.02
-3.47
-20.48
-38.64
-54.92
-66.38
-70.41
-65.60
-51.75
-29.98
-2.80
26.50
53.95
76.16
90.93
97.27
95.28
84.78
66.22
40.94
11.99
-16.56
-41.04
-59.46
-72.15
-80.23
-84.49
-84.46
-78.87
-66.66
-48.28
-26.38
-4.28
14.49
28.26
37.18
42.34
44.75
44.23
40.31
33.22
25.06
19.53
19.95
27.81
41.68
58.33
73.68
85.18
91.93
94.86
95.80
95.80
94.75
91.16
84.34
75.30
67.09
63.74
66.78
74.29
81.27
82.47
75.13
60.72
43.63
28.41
17.24
8.29
-2.61
-19.30
-41.76
-65.10
-81.80
-85.15
-73.87
-52.31
-28.74
-11.19
-4.29
-8.47
-21.41
-40.35
-62.89
-87.32
-111.40
-131.94
-145.38
-148.56
-140.72
-123.41
-100.38
-75.59
-51.66
-29.72
-9.69
7.96
22.41
32.32
36.72
35.09
27.10
12.53
-8.64
-34.97
-63.52
-89.93
-109.54
-118.82
-115.90
-101.26
-77.06
-46.78
-13.80
19.14
50.12
77.84
100.55
116.53
124.32
123.39
114.22
97.80
75.47
48.53
19.21
-9.89
-35.81
-55.88
-68.50
-72.85
-69.08
-57.93
-41.08
-20.66
0.72
20.33
35.66
44.51
46.30
42.22
35.12
27.57
20.09
10.54
-4.81
-28.09
-57.99
-89.19
-114.50
-127.75
-126.15
-111.24
-87.69
-61.55
-37.82
-19.85
-9.14
-5.38
-6.81
-9.43
-7.61
4.02
28.20
63.28
103.25
139.43
163.94
171.98
163.27
141.56
113.12
84.83
62.01
47.18
39.55
36.90
37.08
39.30
43.84
49.77
54.27
52.80
41.75
20.94
-5.82
-32.37
-53.33
-65.91
-70.86
-70.58
-67.42
-62.26
-54.05
-41.41
-24.02
-3.61
17.13
35.56
50.00
59.74
63.95
61.85
52.93
38.30
20.49
2.72
-12.67
-25.21
-35.60
-44.35
-50.71
-52.56
-47.32
-33.87
-13.76
9.20
30.16
45.79
55.04
58.69
57.97
52.80
42.29
25.81
4.70
-17.14
-34.86
-44.46
-44.67
-37.08
-25.33
-13.17
-3.08
4.63
11.23
17.99
24.92
29.80
29.93
23.75
12.19
-0.98
-12.21
-19.75
-24.69
-29.76
-36.91
-45.52
-52.51
-54.22
-48.97
-38.89
-29.07
-25.05
-29.08
-38.31
-46.30
-46.34
-36.11
-18.48
0.08
13.07
17.17
12.44
1.18
-14.15
-31.42
-48.90
-64.46
-75.51
-79.76
-76.12
-65.73
-51.10
-35.51
-21.17
-8.46
3.13
14.18
23.62
29.69
30.73
26.53
18.29
7.39
-5.46
-20.92
-39.49
-60.47
-81.15
-97.42
-105.43
-102.90
-90.58
-71.17
-48.74
-26.19
-4.11
18.56
43.25
69.53
95.20
117.04
132.61
141.22
143.64
141.21
134.64
124.40
110.45
93.34
74.00
54.17
36.32
22.60
14.50
11.96
14.05
19.25
25.96
32.86
38.55
42.10
42.84
40.68
35.34
26.39
12.88
-5.82
-28.44
-51.64
-70.48
-80.43
-78.90
-66.22
-45.64
-21.80
0.73
19.36
33.69
44.74
53.19
58.34
57.87
49.30
32.26
9.27
-15.07
-35.81
-49.66
-55.41
-54.02
-47.28
-36.99
-24.18
-9.13
7.65
24.80
39.95
50.70
55.73
55.35
51.11
44.24
35.14
23.10
7.56
-11.28
-32.09
-52.61
-70.48
-83.21
-89.09
-87.28
-78.04
-62.66
-43.04
-21.68
-1.02
16.51
29.57
37.93
42.29
43.42
41.27
35.31
25.06
11.46
-3.59
-17.91
-30.08
-39.88
-47.50
-52.45
-53.23
-48.03
-35.57
-16.43
6.58
29.29
47.33
58.65
63.89
65.74
66.69
66.74
63.28
52.50
32.41
4.94
-24.40
-48.59
-62.30
-63.71
-54.90
-40.13
-23.63
-7.54
8.35
25.13
42.84
58.78
68.69
68.71
57.69
38.39
15.84
-4.64
-19.85
-29.35
-35.00
-39.39
-44.32
-49.78
-53.91
-54.50
-50.18
-41.60
-30.86
-20.35
-11.66
-4.94
0.10
3.99
6.81
7.89
6.16
-0.00
-11.75
-29.01
-49.36
-68.69
-82.34
-87.11
-82.57
-70.96
-56.27
-42.21
-31.18
-23.32
-17.02
-10.41
-2.48
5.59
11.93
15.19
15.80
15.58
16.07
17.33
17.59
14.99
9.09
2.01
-2.64
-1.42
7.20
21.55
37.94
52.13
62.03
68.39
73.86
80.71
88.16
92.65
89.24
74.97
50.77
20.97
-8.37
-32.48
-49.23
-59.45
-64.71
-66.27
-63.70
-55.59
-41.85
-24.55
-8.04
4.01
10.79
15.08
21.74
33.70
49.95
65.58
74.52
72.75
60.55
41.62
20.84
1.79
-14.82
-30.20
-45.64
-59.94
-69.17
-68.47
-54.60
-29.30
1.56
30.29
50.46
59.37
58.16
49.68
36.20
18.40
-4.19
-31.55
-61.36
-88.68
-106.84
-110.43
-97.40
-70.60
-36.29
-1.41
28.70
51.60
67.24
77.10
82.71
84.71
82.69
75.18
60.93
39.69
13.55
-13.66
-37.28
-53.88
-62.46
-63.82
-60.04
-52.86
-42.99
-30.04
-13.27
7.01
29.14
49.82
65.80
74.80
76.26
71.00
60.07
44.29
24.14
0.82
-23.61
-46.26
-64.18
-75.27
-78.32
-73.27
-60.91
-42.92
-21.33
1.55
23.25
41.40
53.77
59.67
60.04
57.27
53.54
49.05
41.65
27.99
6.41
-21.40
-50.25
-73.45
-85.76
-85.28
-74.06
-56.47
-37.27
-19.01
-1.83
15.52
33.72
50.88
63.55
68.12
63.04
49.82
31.78
12.54
-5.77
-22.45
-37.87
-52.04
-64.00
-71.83
-73.25
-67.17
-54.22
-37.12
-18.94
-1.89
13.47
27.96
41.74
54.07
62.88
66.07
62.32
51.58
35.00
14.56
-6.81
-26.08
-40.35
-47.75
-47.83
-41.50
-30.85
-18.12
-5.49
5.98
16.27
25.75
34.33
40.44
42.22
38.42
29.68
18.03
5.63
-6.55
-19.06
-32.62
-46.72
-58.90
-65.44
-63.08
-50.68
-30.27
-6.16
16.53
34.66
47.94
58.21
67.44
75.13
78.46
73.60
58.66
35.56
9.49
-13.03
-27.37
-32.36
-30.34
-25.18
-19.87
-14.90
-8.58
0.60
12.22
22.86
28.59
27.59
21.74
16.05
14.75
18.84
25.16
28.45
24.75
13.77
-1.03
-14.82
-24.16
-29.25
-33.18
-39.73
-50.01
-61.12
-67.60
-64.04
-49.35
-26.83
-2.88
15.87
25.57
25.49
17.57
4.21
-12.69
-32.52
-54.95
-78.61
-100.43
-115.54
-119.35
-108.88
-85.32
-52.83
-17.15
16.32
44.48
66.09
81.50
90.97
93.98
89.16
75.03
51.63
21.26
-11.13
-39.72
-59.39
-68.00
-66.71
-58.50
-46.88
-34.05
-20.89
-6.88
8.81
26.29
44.46
60.56
71.63
75.43
71.55
61.18
46.43
28.77
8.93
-12.45
-34.41
-54.76
-70.91
-79.97
-79.63
-69.27
-50.13
-25.37
1.29
26.67
48.81
67.04
80.88
89.96
93.56
91.10
82.21
66.83
45.25
18.32
-11.74
-41.40
-66.36
-82.78
-88.41
-83.33
-70.01
-52.32
-34.36
-18.78
-6.17
4.31
13.41
20.75
24.43
22.33
13.81
0.40
-15.25
-30.60
-44.39
-56.09
-65.46
-71.69
-73.49
-69.72
-60.08
-45.98
-30.15
-15.84
-5.24
1.46
5.95
10.72
17.11
25.08
33.41
41.14
47.91
54.02
60.03
66.14
72.71
80.24
89.30
100.34
113.13
126.66
139.02
148.06
151.69
149.17
141.04
128.64
113.19
94.83
73.28
48.57
22.29
-3.15
-25.66
-44.28
-59.64
-72.55
-82.88
-89.03
-88.80
-80.60
-64.87
-44.41
-23.33
-5.78
6.35
13.81
18.88
23.40
26.65
25.65
16.76
-1.47
-26.48
-52.50
-72.79
-82.76
-81.51
-71.82
-58.11
-44.14
-31.15
-18.05
-3.30
13.17
28.48
38.51
40.10
33.11
20.78
7.36
-3.92
-12.60
-20.29
-29.06
-39.87
-51.81
-62.55
-69.26
-70.13
-64.86
-54.95
-42.47
-29.23
-16.39
-4.37
6.09
14.27
19.55
21.52
20.07
14.65
4.70
-9.96
-27.75
-45.65
-59.79
-67.04
-66.28
-58.43
-45.96
-31.33
-16.41
-1.66
13.36
28.70
43.49
55.27
61.69
61.63
56.12
47.44
37.35
26.06
12.26
-4.98
-24.78
-43.79
-57.46
-62.10
-56.31
-41.98
-22.84
-3.06
15.17
31.89
48.40
65.28
80.49
90.18
90.43
79.76
60.02
35.44
10.52
-11.96
-31.21
-48.01
-62.99
-75.54
-83.51
-83.81
-74.39
-55.52
-30.72
-5.12
16.31
30.71
38.24
40.46
39.54
36.83
32.55
26.21
17.46
6.40
-6.29
-19.57
-32.91
-46.14
-59.07
-70.16
-76.04
-72.71
-57.31
-30.90
1.92
34.33
59.87
74.71
77.99
71.25
56.58
35.83
10.23
-19.14
-50.26
-79.79
-103.10
-115.96
-115.58
-102.69
-80.71
-54.41
-28.59
-6.48
10.76
23.61
33.49
41.41
47.36
50.11
48.49
42.63
35.05
29.65
30.31
38.27
52.04
68.43
84.38
98.44
111.23
124.28
138.33
151.43
159.36
156.97
141.58
114.91
82.76
52.42
28.86
12.30
-1.26
-16.74
-36.87
-60.54
-83.21
-99.91
-107.24
-104.79
-94.44
-79.09
-60.95
-41.35
-21.38
-2.46
13.37
24.30
29.93
31.20
29.63
25.68
18.39
5.88
-12.41
-34.59
-56.53
-73.29
-81.39
-80.08
-71.39
-58.74
-45.17
-31.71
-17.42
-1.00
17.43
34.85
46.92
49.96
43.25
29.41
12.43
-4.27
-19.59
-34.00
-48.46
-62.70
-74.83
-82.10
-81.92
-73.49
-57.99
-38.41
-17.78
1.92
20.04
36.99
52.31
64.90
72.94
74.80
69.74
57.74
39.71
17.24
-6.86
-29.29
-46.71
-56.81
-58.98
-54.10
-44.16
-31.15
-16.97
-2.56
11.79
25.67
38.22
47.37
51.47
49.99
44.29
36.57
28.18
18.72
6.15
-10.84
-31.44
-51.97
-67.31
-73.13
-67.66
-52.73
-32.33
-11.19
7.99
24.86
40.60
55.93
69.03
76.17
73.39
59.25
36.28
10.14
-12.73
-28.11
-35.23
-36.66
-36.07
-35.81
-35.53
-32.34
-23.17
-7.04
13.49
33.69
49.05
57.51
60.48
60.62
60.38
60.29
59.03
54.71
46.14
33.66
18.76
3.35
-11.80
-27.01
-43.10
-59.54
-73.47
-80.55
-76.73
-61.65
-38.68
-13.93
6.28
18.12
20.54
15.21
4.45
-9.70
-26.42
-45.50
-66.16
-86.32
-102.19
-109.74
-105.66
-89.81
-64.61
-34.18
-3.19
24.95
48.13
66.01
78.86
86.84
89.19
84.22
70.59
48.50
20.99
-6.88
-29.28
-42.55
-46.11
-42.07
-34.08
-24.94
-15.66
-5.17
8.36
25.29
43.38
57.83
64.08
60.34
48.91
34.93
23.56
16.89
13.30
9.14
1.15
-11.46
-26.69
-40.98
-50.69
-53.78
-50.21
-41.75
-30.73
-19.25
-8.63
0.48
7.73
12.86
15.49
15.08
10.89
2.11
-11.70
-29.89
-49.81
-67.28
-77.87
-78.61
-69.10
-51.22
-28.52
-4.65
17.44
36.32
51.87
64.22
73.03
76.71
73.60
62.86
45.56
24.09
0.76
-23.19
-47.89
-73.39
-98.64
-120.97
-136.89
-143.73
-140.65
-129.43
-113.56
-96.62
-80.65
-65.24
-48.36
-27.94
-4.02
21.30
44.57
62.99
75.44
82.54
86.08
87.84
89.23
90.99
93.21
95.67
98.07
100.43
102.79
105.08
106.47
106.06
103.12
97.53
89.58
79.55
68.43
57.71
49.55
45.91
47.02
51.37
55.81
57.67
56.22
53.09
51.07
52.47
57.60
64.40
69.62
70.14
65.10
56.19
46.29
37.48
29.14
18.44
2.01
-21.39
-49.29
-76.55
-97.33
-108.16
-109.25
-103.95
-96.63
-90.33
-85.14
-78.40
-67.31
-51.01
-32.13
-15.01
-3.25
2.28
3.95
4.72
6.27
7.52
5.93
-0.59
-12.15
-26.43
-39.99
-49.39
-53.01
-51.04
-45.26
-37.58
-29.20
-20.62
-11.71
-3.07
4.43
9.84
12.28
11.26
5.91
-4.34
-19.47
-37.68
-55.93
-70.74
-79.58
-81.80
-78.12
-70.04
-58.63
-44.61
-28.15
-9.53
9.97
28.34
42.71
51.24
53.72
51.89
48.00
43.04
36.08
24.85
8.11
-12.96
-34.33
-50.76
-58.16
-55.12
-43.79
-28.16
-12.30
1.95
15.48
30.37
47.84
66.02
80.82
87.68
84.25
71.50
52.91
32.64
13.47
-3.49
-18.63
-32.46
-44.56
-53.26
-55.92
-50.66
-37.48
-19.12
0.32
17.03
29.00
36.51
40.83
43.31
44.27
42.90
37.76
27.43
11.47
-9.34
-32.29
-53.84
-70.52
-80.17
-82.55
-78.89
-71.37
-61.82
-51.82
-41.78
-31.63
-21.49
-12.08
-5.13
-2.32
-4.73
-12.15
-23.51
-37.68
-53.78
-70.96
-87.31
-100.10
-106.07
-103.43
-92.26
-74.69
-54.25
-34.38
-17.47
-4.05
6.71
16.12
24.70
31.38
34.73
34.17
31.42
29.87
33.27
42.91
57.39
73.36
87.44
97.95
105.67
112.81
121.38
131.03
138.77
140.02
131.66
114.23
92.43
72.82
60.77
57.52
60.41
64.87
67.34
66.82
65.21
65.32
69.00
75.28
80.71
81.00
73.79
60.39
45.27
33.89
29.63
31.57
35.29
34.77
25.73
7.28
-17.41
-43.21
-65.40
-82.01
-94.50
-106.02
-119.00
-132.95
-144.41
-148.69
-142.37
-125.13
-99.32
-69.49
-40.13
-15.05
4.01
17.03
25.30
30.27
32.27
30.59
23.79
11.48
-5.19
-23.34
-39.13
-49.63
-53.25
-50.69
-44.06
-36.09
-28.44
-21.24
-13.53
-4.17
6.31
16.23
23.27
25.54
22.28
13.43
-0.18
-17.14
-34.90
-50.55
-61.32
-65.69
-63.70
-56.46
-45.57
-32.07
-16.76
-0.09
17.23
33.68
47.11
55.06
56.55
52.60
46.08
39.85
34.61
28.47
17.92
0.77
-21.78
-44.94
-62.30
-68.82
-62.90
-47.18
-26.68
-6.54
10.67
25.42
39.83
55.34
70.37
80.96
82.57
72.88
53.17
27.66
1.63
-21.08
-38.64
-51.32
-60.07
-65.29
-66.30
-61.65
-50.57
-33.79
-14.21
4.74
20.56
32.75
42.57
51.20
58.87
64.24
65.66
62.00
53.61
42.02
29.03
15.83
2.42
-11.78
-27.42
-44.30
-61.27
-76.66
-88.14
-93.55
-90.07
-74.79
-46.43
-6.99
36.74
74.99
97.87
99.52
80.36
46.99
9.38
-23.03
-44.20
-52.91
-51.95
-46.09
-39.04
-31.88
-23.40
-11.95
1.94
15.39
24.67
27.37
24.16
17.98
12.20
8.21
5.23
1.33
-3.93
-9.10
-11.65
-9.64
-3.99
2.00
4.74
2.95
-1.11
-3.58
-1.74
3.75
9.78
13.14
12.92
11.14
10.93
13.72
18.54
22.42
22.42
17.36
8.06
-3.37
-14.38
-23.40
-30.01
-34.74
-38.17
-40.11
-39.61
-35.25
-26.10
-12.71
2.83
17.07
26.68
29.34
25.03
15.83
5.30
-3.50
-9.37
-13.01
-16.24
-19.93
-23.61
-25.50
-23.54
-16.94
-6.21
6.42
18.14
26.20
29.37
28.14
24.73
21.65
20.01
19.06
16.37
9.87
-0.92
-14.25
-26.54
-34.57
-36.58
-33.53
-28.14
-23.55
-21.39
-20.96
-19.94
-15.94
-8.66
0.33
7.99
11.59
9.85
3.24
-5.97
-14.82
-20.43
-21.33
-17.85
-11.91
-5.91
-1.02
3.42
9.33
18.19
29.99
42.52
52.20
55.78
51.69
41.76
30.21
21.75
19.03
21.12
24.20
23.82
18.13
9.17
1.71
0.41
6.96
18.68
30.10
35.51
31.96
21.40
9.54
2.56
3.71
11.22
19.91
24.31
22.10
15.65
9.75
8.59
12.86
19.17
22.63
19.22
8.32
-6.75
-20.21
-27.15
-25.65
-17.73
-7.54
1.18
6.95
11.25
16.18
22.94
30.46
35.39
34.38
25.46
9.36
-10.60
-29.46
-42.94
-48.90
-48.10
-43.24
-37.20
-31.88
-27.29
-22.81
-17.57
-11.52
-6.32
-3.94
-6.37
-13.89
-24.63
-34.94
-41.31
-42.36
-39.45
-35.91
-34.42
-35.50
-36.70
-34.48
-26.17
-11.56
6.09
22.09
32.05
34.72
32.48
29.93
30.85
35.50
40.54
40.88
33.36
18.84
2.13
-10.80
-16.07
-13.68
-7.42
-2.26
-1.63
-5.30
-9.54
-9.85
-3.76
7.07
18.11
24.37
23.29
16.10
6.71
-0.54
-3.29
-2.17
-0.16
-0.89
-6.61
-17.10
-29.15
-38.49
-41.68
-37.88
-28.95
-18.20
-8.97
-2.85
0.50
3.02
6.79
12.21
17.59
19.41
14.52
1.97
-15.44
-32.46
-43.98
-47.46
-44.02
-37.10
-30.51
-26.12
-23.33
-19.86
-13.35
-3.52
7.54
16.08
19.26
16.74
11.43
7.59
7.85
11.50
14.47
12.20
2.39
-13.32
-30.02
-42.30
-46.83
-44.16
-37.80
-31.99
-28.82
-26.99
-23.15
-14.26
-0.42
15.29
28.37
35.77
37.41
35.65
33.92
34.33
37.15
40.79
42.99
42.23
38.51
33.99
31.60
33.98
41.48
52.05
61.62
65.65
61.20
48.25
30.21
12.57
0.26
-4.57
-3.73
-1.23
-0.90
-3.76
-8.40
-12.36
-14.33
-15.06
-16.35
-19.36
-23.56
-27.16
-27.85
-24.09
-16.04
-5.20
5.99
15.80
23.61
30.41
37.26
44.30
50.09
52.08
48.29
39.05
26.83
15.23
6.95
2.66
0.55
-1.94
-6.46
-11.88
-14.93
-11.75
-0.95
14.87
30.29
39.48
39.07
29.95
15.83
1.13
-11.59
-21.99
-31.43
-41.07
-50.68
-58.17
-60.54
-55.53
-43.16
-26.46
-9.83
2.55
7.82
5.69
-2.57
-14.42
-26.80
-36.66
-42.00
-42.71
-40.66
-38.70
-38.60
-39.78
-39.49
-34.60
-23.47
-7.20
10.31
24.54
32.16
33.33
31.23
29.99
31.98
35.87
37.43
32.09
18.43
-0.47
-18.08
-28.04
-27.53
-18.45
-6.65
1.64
2.80
-2.01
-7.74
-8.78
-2.14
10.10
22.62
29.75
28.92
21.89
13.10
6.80
4.42
4.27
2.94
-2.27
-11.58
-22.45
-30.69
-32.86
-28.02
-18.26
-7.24
1.87
7.65
10.87
13.21
16.18
20.08
23.57
24.55
20.77
11.34
-2.66
-17.92
-30.43
-37.16
-37.49
-33.22
-27.05
-21.36
-16.77
-12.53
-7.23
0.06
8.59
16.25
20.24
19.07
13.51
6.51
1.45
-0.17
0.45
0.03
-4.17
-12.44
-21.89
-28.09
-27.53
-19.39
-6.53
6.31
14.78
17.50
16.56
15.62
17.54
21.93
25.79
25.38
19.00
8.11
-3.53
-12.04
-15.65
-15.21
-13.55
-13.59
-16.55
-21.17
-24.02
-21.90
-13.56
-1.03
11.74
20.89
24.60
24.06
22.34
22.46
25.84
31.36
36.10
36.66
31.08
19.79
5.93
-6.83
-15.75
-20.45
-22.39
-23.14
-23.40
-22.26
-18.20
-10.45
0.23
11.18
19.19
21.35
16.84
6.93
-5.06
-15.90
-23.73
-28.64
-32.30
-35.95
-39.72
-42.10
-40.93
-35.07
-24.97
-13.07
-2.46
4.27
6.78
6.85
7.83
12.14
19.81
28.47
34.25
34.45
28.77
19.40
9.80
2.33
-2.56
-6.65
-12.26
-20.52
-30.03
-37.04
-37.22
-28.31
-11.89
7.59
24.42
34.30
35.71
29.77
19.42
7.92
-2.17
-9.87
-15.78
-21.55
-28.65
-36.92
-44.07
-46.87
-42.95
-32.13
-17.14
-2.37
7.88
11.38
9.55
6.51
6.70
12.41
21.94
30.87
34.40
30.77
22.76
15.98
15.81
23.96
37.40
49.87
55.00
49.71
36.25
21.02
10.84
9.52
15.54
23.67
28.21
26.47
20.33
14.08
11.57
13.39
16.37
16.06
9.01
-4.87
-21.86
-36.06
-42.62
-39.90
-30.33
-18.37
-8.05
-1.03
3.95
8.80
14.83
21.28
25.36
24.41
16.68
2.84
-14.10
-29.52
-39.08
-40.37
-33.81
-22.05
-8.33
4.67
16.08
25.99
34.98
43.09
48.64
49.46
43.29
29.79
11.26
-7.84
-22.87
-31.48
-34.48
-35.29
-37.12
-41.02
-44.86
-45.10
-38.93
-26.11
-9.97
4.67
13.53
15.57
13.52
11.96
14.47
20.86
27.43
29.05
22.67
9.24
-6.60
-19.27
-25.29
-24.69
-20.88
-18.21
-19.43
-24.07
-28.44
-28.31
-21.39
-9.30
3.69
12.88
15.66
12.93
8.08
5.06
6.06
10.55
15.60
17.30
12.94
2.23
-11.75
-24.40
-31.46
-31.22
-24.87
-15.61
-7.01
-1.03
2.40
5.17
9.42
15.64
22.09
25.12
21.49
10.20
-5.93
-21.86
-32.82
-36.76
-35.23
-31.57
-28.94
-28.19
-27.67
-24.47
-16.28
-3.42
11.29
23.37
29.56
29.31
25.35
21.78
21.35
23.94
26.56
25.71
19.52
8.90
-2.81
-12.00
-16.23
-15.86
-13.27
-11.54
-12.30
-14.59
-15.35
-11.21
-1.11
13.06
26.65
34.44
33.04
22.23
5.28
-12.79
-27.18
-35.62
-39.11
-40.72
-43.47
-47.93
-52.17
-52.95
-48.33
-38.73
-26.87
-16.22
-9.22
-6.26
-5.21
-2.87
3.27
13.41
24.93
33.81
36.64
33.20
26.84
22.68
24.84
33.84
46.08
55.54
56.92
48.60
34.07
20.33
13.87
17.37
27.85
39.12
45.39
44.95
40.28
35.60
33.65
33.47
31.50
24.78
12.99
-1.10
-13.10
-19.64
-20.46
-17.99
-15.74
-15.36
-15.69
-13.48
-5.89
6.85
21.29
32.16
34.80
28.14
14.26
-2.65
-18.86
-32.32
-43.04
-51.84
-58.88
-62.63
-60.20
-48.87
-28.44
-2.28
24.12
45.10
56.78
58.80
53.01
42.17
28.33
12.48
-5.16
-24.26
-43.48
-60.42
-71.88
-74.82
-67.89
-52.21
-30.99
-8.31
11.54
25.85
33.52
35.77
35.50
35.73
38.10
41.31
41.95
36.27
23.09
5.22
-12.03
-23.46
-26.82
-23.75
-18.75
-16.21
-18.19
-23.05
-26.47
-24.42
-15.48
-2.33
10.22
17.62
18.26
14.05
9.07
7.07
9.25
13.88
17.35
16.03
8.24
-4.69
-18.64
-28.85
-32.00
-28.01
-19.51
-10.19
-3.09
0.87
2.43
3.31
4.83
6.72
7.33
4.16
-4.34
-17.63
-32.40
-44.08
-49.11
-46.67
-39.06
-30.00
-22.69
-18.06
-14.70
-10.06
-2.08
8.91
20.39
28.49
30.66
27.19
21.24
16.97
16.63
19.29
21.24
18.73
10.42
-1.63
-12.96
-19.39
-18.93
-13.00
-5.21
0.69
3.28
4.24
6.90
13.96
24.92
36.47
43.96
44.09
36.69
24.43
11.50
1.28
-4.84
-7.91
-10.39
-14.47
-20.61
-26.68
-29.57
-26.67
-18.07
-6.25
5.11
12.92
16.34
16.48
15.81
16.39
18.57
20.78
20.07
13.89
1.55
-14.37
-29.46
-39.11
-40.87
-35.41
-25.64
-15.32
-6.96
-1.23
3.02
7.54
12.99
18.52
21.66
20.38
14.23
5.46
-2.69
-7.74
-9.63
-10.67
-13.44
-19.03
-25.88
-30.78
-30.81
-25.05
-15.53
-5.93
0.23
2.00
1.45
2.74
9.20
20.96
34.89
45.88
49.88
45.92
36.18
24.58
14.14
5.75
-2.13
-11.73
-23.94
-36.95
-46.49
-47.72
-38.31
-20.03
2.31
22.73
36.85
43.52
44.01
40.80
35.59
28.61
18.99
5.89
-10.19
-27.02
-40.92
-48.14
-46.84
-37.86
-24.30
-10.05
1.54
8.81
11.52
11.07
9.60
8.84
9.29
9.33
6.25
-2.40
-16.58
-32.92
-46.32
-52.30
-49.51
-40.45
-30.06
-23.22
-22.18
-25.02
-26.80
-22.67
-10.52
7.43
26.41
41.76
51.49
57.11
61.40
66.14
70.36
70.92
64.73
50.70
30.89
9.79
-7.41
-17.32
-19.52
-16.49
-11.75
-7.90
-5.70
-4.05
-1.85
1.29
4.41
5.22
1.90
-6.78
-20.23
-35.95
-50.02
-58.58
-59.43
-53.00
-41.93
-29.31
-17.65
-7.62
1.23
9.63
17.81
24.27
27.16
24.32
15.71
3.76
-7.25
-13.22
-12.54
-6.63
0.77
6.48
9.56
12.00
16.76
25.78
38.53
51.43
60.32
61.89
56.23
46.82
38.34
34.17
34.10
34.97
32.55
24.44
11.54
-2.57
-13.76
-19.80
-21.20
-21.02
-22.56
-27.60
-35.13
-41.49
-42.81
-37.00
-25.54
-12.13
-0.91
5.68
8.04
8.51
9.78
13.17
17.83
21.10
19.98
12.61
-0.64
-16.49
-30.49
-38.70
-39.61
-34.38
-25.91
-17.45
-10.97
-6.68
-3.31
0.88
6.42
12.26
15.68
14.14
6.59
-5.12
-17.44
-27.01
-32.37
-34.61
-35.83
-37.69
-39.90
-40.43
-36.82
-27.67
-14.11
0.63
12.47
18.87
20.05
18.91
19.16
22.60
28.26
32.69
32.34
25.60
13.71
0.33
-10.59
-16.38
-16.99
-14.57
-11.91
-10.74
-10.50
-8.98
-3.70
5.85
18.29
30.63
39.73
43.71
42.13
36.23
28.07
20.04
13.56
8.61
3.99
-1.88
-9.24
-16.26
-19.65
-16.58
-6.26
9.09
24.69
35.60
38.64
34.47
26.87
20.44
17.80
17.70
16.08
8.69
-5.66
-23.88
-40.33
-49.75
-50.26
-43.90
-35.42
-29.38
-27.86
-29.44
-30.24
-26.73
-17.98
-6.81
2.34
5.82
3.19
-2.57
-7.81
-10.41
-11.41
-14.03
-21.09
-33.04
-47.06
-57.94
-60.50
-52.43
-35.18
-13.55
7.08
23.20
34.34
42.37
49.07
54.92
58.43
57.33
50.55
38.62
23.83
8.69
-5.05
-17.21
-28.37
-38.62
-46.52
-49.03
-43.12
-27.69
-5.20
19.44
40.62
53.80
57.70
53.29
43.13
29.90
15.58
1.39
-12.00
-23.71
-32.49
-36.49
-33.74
-23.75
-7.95
10.46
27.61
39.79
45.36
44.28
38.52
30.95
23.91
18.60
14.45
10.48
6.18
2.59
2.18
6.62
15.62
26.36
34.95
38.00
34.64
26.35
16.06
6.80
-0.18
-5.24
-10.13
-15.83
-21.81
-26.09
-26.04
-20.77
-11.69
-2.07
4.53
5.70
1.23
-7.52
-18.29
-28.41
-35.86
-39.37
-38.87
-35.08
-29.04
-22.03
-14.74
-7.77
-1.25
4.82
9.87
12.77
11.72
5.54
-5.48
-18.72
-30.49
-37.70
-39.53
-37.69
-34.78
-32.75
-31.46
-29.05
-23.14
-12.34
2.30
17.73
30.00
36.68
37.84
36.03
34.30
33.96
33.88
31.23
23.91
12.00
-1.91
-13.98
-21.18
-22.41
-19.06
-13.88
-9.56
-7.20
-5.64
-2.54
4.32
14.98
27.42
38.06
43.49
41.97
33.92
21.79
8.75
-2.38
-10.42
-16.00
-20.63
-25.55
-30.12
-32.35
-29.93
-22.09
-10.14
2.88
13.45
19.40
20.39
18.38
16.23
16.01
17.73
18.81
15.79
6.17
-9.02
-25.68
-38.32
-42.91
-38.93
-29.13
-18.23
-10.12
-6.21
-4.80
-2.45
3.51
13.27
23.71
30.62
30.95
25.11
16.25
8.24
3.15
0.13
-3.15
-8.51
-15.54
-21.76
-24.49
-22.63
-17.78
-13.11
-11.43
-12.92
-14.87
-13.15
-5.00
8.75
24.27
36.43
41.76
39.96
33.31
24.99
16.89
8.91
-0.56
-12.93
-27.79
-42.28
-51.84
-52.07
-41.37
-22.00
1.20
22.66
38.45
47.59
51.15
51.25
49.26
45.22
38.20
27.13
12.18
-4.92
-20.75
-31.29
-33.97
-28.56
-17.35
-3.94
7.98
16.24
20.29
21.45
21.83
22.79
24.27
24.13
19.86
9.99
-4.25
-18.75
-29.00
-32.16
-28.61
-21.55
-15.14
-12.16
-12.90
-15.35
-16.69
-15.60
-12.71
-10.47
-10.69
-13.19
-15.55
-14.32
-8.09
1.66
10.97
15.60
13.44
5.15
-6.38
-17.62
-25.65
-29.26
-28.69
-25.39
-20.83
-15.92
-11.01
-5.66
0.01
5.47
9.70
11.07
8.35
0.63
-11.63
-26.49
-40.67
-50.93
-55.47
-54.61
-50.66
-46.11
-42.52
-39.57
-35.96
-30.25
-21.84
-12.06
-2.90
3.14
5.30
5.02
5.27
8.89
16.46
26.07
34.11
37.85
36.90
33.50
30.88
31.20
34.63
38.84
41.09
39.35
34.30
29.12
27.58
31.98
41.14
51.68
59.48
62.29
60.51
56.58
52.98
50.60
48.48
44.17
35.93
23.24
7.99
-6.01
-15.10
-17.25
-13.36
-6.17
1.09
6.31
9.20
10.68
11.96
13.47
14.42
12.90
7.06
-4.20
-20.29
-38.38
-54.51
-64.98
-67.90
-63.80
-55.00
-44.66
-35.31
-27.91
-21.79
-15.23
-7.18
1.80
9.44
12.88
10.40
2.90
-6.69
-15.26
-21.14
-24.90
-28.17
-32.17
-36.54
-39.36
-38.28
-31.76
-20.48
-6.99
5.18
13.57
17.94
20.27
23.40
28.73
35.64
41.41
43.09
38.94
29.28
16.59
3.97
-5.74
-11.37
-13.44
-13.51
-12.98
-11.96
-9.38
-3.79
5.11
16.47
28.19
37.78
43.36
43.98
40.22
33.75
26.88
21.18
16.71
12.04
5.18
-4.51
-15.45
-24.26
-27.47
-23.31
-12.86
0.05
10.81
15.85
14.89
10.70
7.22
6.98
8.98
9.58
4.60
-7.22
-22.87
-36.54
-42.59
-38.97
-28.21
-16.21
-8.92
-9.34
-15.92
-23.55
-26.98
-23.63
-15.51
-7.10
-2.73
-3.74
-7.93
-11.93
-13.46
-13.07
-13.29
-16.58
-23.62
-32.60
-40.09
-42.66
-38.69
-28.90
-16.01
-2.91
8.57
18.08
26.44
33.89
40.02
43.48
42.38
35.53
22.55
4.82
-14.74
-32.19
-44.16
-49.11
-47.96
-43.35
-37.81
-32.47
-26.77
-19.55
-9.86
1.96
13.95
24.19
30.72
32.90
31.12
26.18
18.94
9.93
-0.12
-9.82
-16.84
-18.50
-13.12
-1.04
15.08
31.42
43.69
49.35
47.51
39.93
30.31
22.62
19.67
21.53
26.43
31.71
35.85
39.39
43.35
48.08
52.25
53.39
49.15
39.42
26.06
12.64
2.57
-2.98
-5.08
-6.44
-8.80
-11.71
-12.79
-9.12
-0.27
11.54
22.01
27.23
25.45
17.89
7.34
-3.81
-14.80
-26.67
-40.68
-56.78
-72.24
-82.28
-82.60
-71.47
-51.52
-28.40
-8.13
5.25
10.88
10.30
5.73
-1.16
-9.35
-18.13
-26.78
-34.46
-40.45
-44.10
-45.05
-42.80
-37.17
-28.32
-16.78
-4.08
7.80
16.62
21.28
22.41
22.01
22.45
24.56
27.42
28.62
26.11
19.37
9.66
-0.44
-8.57
-13.25
-14.62
-13.83
-12.27
-10.51
-7.80
-2.83
5.42
16.28
27.84
37.48
42.98
43.40
38.98
31.36
22.65
15.02
9.61
6.01
2.64
-2.33
-9.12
-16.00
-19.78
-17.59
-8.55
5.57
20.55
31.92
36.61
34.82
29.54
24.64
22.46
22.01
19.85
12.11
-2.31
-20.57
-37.30
-47.24
-48.21
-41.81
-32.69
-25.59
-23.12
-24.28
-25.35
-22.58
-14.51
-3.55
5.81
9.40
6.03
-1.97
-10.79
-17.30
-21.04
-23.50
-26.88
-32.14
-38.14
-42.36
-42.11
-36.34
-26.05
-14.11
-3.28
5.05
11.33
17.22
23.67
30.66
36.79
40.24
39.73
34.84
26.41
16.13
6.23
-1.54
-6.41
-8.75
-9.65
-9.80
-8.90
-5.84
0.36
10.13
22.59
35.66
46.88
53.85
55.60
52.64
46.44
38.52
29.46
18.93
6.40
-7.57
-20.60
-29.52
-31.57
-25.96
-14.39
-0.67
11.13
18.10
19.99
18.82
17.17
16.60
16.12
13.52
6.82
-3.94
-15.86
-25.47
-30.23
-30.14
-27.34
-24.70
-24.00
-25.15
-26.54
-26.10
-23.22
-18.83
-15.35
-14.49
-16.06
-17.97
-16.86
-11.25
-1.87
8.28
15.64
18.13
15.71
10.20
3.67
-2.57
-8.87
-16.23
-25.26
-34.80
-41.71
-42.64
-35.34
-20.95
-3.23
13.04
23.78
27.31
23.69
14.65
2.44
-10.31
-21.22
-28.67
-32.09
-32.19
-30.13
-27.06
-22.95
-17.40
-9.77
0.20
11.26
21.50
28.54
31.18
30.14
27.53
25.56
24.74
23.75
19.97
11.76
-0.51
-14.27
-26.03
-33.19
-34.88
-32.63
-28.64
-25.25
-22.87
-19.76
-13.42
-2.00
13.71
30.93
45.90
55.72
59.55
58.49
54.70
49.93
45.02
39.41
32.01
21.74
8.87
-4.35
-14.87
-19.94
-18.81
-12.68
-4.05
4.39
11.04
15.37
17.88
19.24
19.55
17.86
12.76
2.84
-12.05
-29.63
-45.83
-56.24
-58.01
-51.15
-38.17
-23.13
-9.64
0.59
8.19
15.31
23.55
32.47
39.53
41.41
36.26
25.26
12.18
1.09
-5.65
-8.41
-9.17
-9.96
-11.49
-12.82
-12.40
-8.88
-2.44
5.29
12.04
16.21
17.70
17.89
18.72
21.04
24.48
27.28
27.35
23.39
15.13
3.85
-8.36
-19.00
-26.34
-29.98
-30.63
-29.57
-27.44
-24.10
-18.72
-10.87
-0.70
10.72
21.42
29.49
33.20
32.37
28.25
23.22
19.36
17.05
14.74
9.76
0.65
-11.51
-23.13
-29.78
-28.53
-19.48
-6.03
6.99
15.37
18.02
17.03
16.00
17.45
20.65
22.19
17.99
6.45
-9.78
-25.04
-33.35
-31.84
-22.18
-9.84
-1.15
-0.16
-6.40
-15.32
-21.35
-20.87
-14.68
-6.74
-1.67
-1.80
-5.69
-9.93
-11.20
-8.64
-4.33
-1.75
-4.04
-12.04
-23.75
-35.06
-41.87
-41.81
-35.41
-25.28
-14.50
-5.38
1.55
6.67
10.92
14.98
18.44
20.24
18.53
12.15
1.42
-11.25
-22.47
-29.45
-31.36
-29.65
-26.69
-24.35
-22.60
-20.01
-14.63
-5.39
6.29
17.36
23.97
24.29
19.46
13.07
8.96
8.39
9.48
8.07
1.16
-11.09
-25.02
-35.45
-38.72
-34.40
-25.70
-16.82
-11.19
-8.86
-6.88
-1.41
9.76
25.26
41.36
53.97
61.09
63.57
63.83
63.76
63.16
60.19
52.54
39.49
22.26
4.40
-9.63
-16.59
-15.56
-8.69
0.52
8.60
13.48
15.28
14.81
13.28
11.42
9.05
5.32
-0.38
-8.45
-18.46
-29.34
-39.95
-49.38
-56.95
-61.55
-61.39
-54.81
-41.09
-21.97
-0.81
18.49
32.75
40.55
42.09
38.35
30.33
18.79
4.62
-10.99
-26.15
-38.45
-45.39
-45.43
-38.41
-26.25
-11.92
1.94
13.50
22.25
28.54
33.06
36.43
38.57
39.05
37.02
32.22
25.16
17.24
10.12
4.99
1.77
-0.57
-2.98
-5.89
-8.92
-11.16
-11.83
-10.18
-6.15
0.09
7.87
16.42
24.73
31.43
35.18
34.78
30.12
22.28
13.49
5.89
0.29
-4.15
-9.51
-16.93
-25.62
-32.78
-35.08
-30.50
-19.65
-6.00
6.02
12.89
14.33
13.06
12.79
15.62
19.89
21.29
15.28
0.79
-18.61
-36.26
-45.84
-44.89
-35.70
-24.20
-16.38
-15.28
-19.43
-23.94
-23.75
-16.52
-4.43
7.76
15.32
16.43
13.01
8.37
5.31
4.10
2.90
-0.66
-7.72
-17.15
-25.91
-30.34
-28.14
-19.21
-6.12
7.37
17.63
22.40
21.55
16.40
9.58
3.83
0.65
-0.13
-0.64
-3.23
-9.03
-16.73
-23.44
-26.48
-25.06
-20.77
-16.10
-12.70
-10.08
-6.24
1.04
12.53
26.52
39.63
48.02
49.89
46.22
40.17
35.05
32.02
29.46
24.01
13.41
-1.54
-16.72
-26.71
-27.79
-19.87
-7.02
4.92
11.23
10.99
7.37
5.09
7.46
13.66
19.69
20.83
14.73
3.28
-9.25
-18.42
-22.32
-22.13
-20.84
-21.08
-23.45
-26.50
-27.85
-26.34
-22.67
-19.15
-17.53
-17.58
-17.24
-13.43
-5.09
6.69
18.94
28.22
32.55
31.47
26.07
17.72
7.62
-3.81
-16.31
-29.26
-41.02
-48.79
-50.10
-43.33
-29.70
-12.27
5.16
19.10
27.94
31.29
29.97
24.97
17.14
6.98
-5.14
-18.40
-31.37
-41.78
-47.45
-46.51
-39.06
-26.67
-11.63
3.22
15.95
25.25
31.08
34.15
35.26
34.90
32.68
28.06
20.79
11.69
2.52
-4.48
-8.12
-8.58
-6.98
-5.20
-4.57
-5.64
-7.71
-8.99
-7.83
-3.45
3.13
9.81
14.25
14.91
11.75
5.93
-1.03
-7.76
-13.34
-17.59
-20.70
-23.50
-26.41
-28.81
-29.34
-26.30
-18.80
-7.30
6.43
19.65
29.91
35.85
37.84
37.44
36.23
34.68
31.45
24.28
11.59
-5.53
-23.47
-37.55
-44.31
-43.13
-35.98
-26.44
-17.72
-11.20
-6.26
-1.02
5.73
13.32
19.28
20.55
15.43
5.01
-7.23
-17.52
-23.36
-24.66
-22.88
-19.98
-17.19
-14.37
-10.46
-4.08
4.98
15.55
25.58
33.02
37.42
40.03
43.26
48.77
56.85
65.74
72.49
74.35
69.68
59.02
44.51
29.41
16.55
7.25
1.23
-2.86
-6.19
-9.11
-10.88
-10.49
-7.10
-0.80
6.99
14.08
17.91
17.22
12.64
6.56
1.72
-0.88
-2.33
-5.57
-12.84
-23.76
-35.00
-41.75
-40.36
-30.36
-15.20
-0.45
8.72
10.66
7.70
4.35
4.35
7.75
11.31
10.50
2.81
-10.16
-23.86
-33.15
-35.39
-31.58
-25.58
-21.78
-22.70
-27.53
-32.66
-34.17
-29.75
-20.58
-10.10
-2.19
0.96
0.26
-1.74
-2.00
0.92
5.97
10.37
10.66
4.79
-6.65
-20.21
-31.28
-36.04
-33.47
-25.33
-14.93
-5.62
1.14
5.47
8.90
13.04
17.94
22.10
22.60
17.22
5.93
-8.21
-20.59
-27.37
-27.50
-23.16
-18.03
-15.05
-14.42
-14.03
-10.78
-2.53
9.81
22.95
32.37
35.36
32.43
27.03
23.33
23.24
25.45
26.19
22.05
12.42
0.22
-9.81
-13.81
-10.78
-3.45
3.54
6.05
3.03
-2.77
-6.85
-5.58
0.94
9.32
14.70
13.67
6.02
-5.81
-18.22
-28.57
-35.88
-40.67
-43.80
-46.00
-46.98
-45.56
-40.63
-31.64
-19.40
-5.54
8.16
19.99
29.01
34.86
37.86
38.63
37.52
34.18
27.41
15.83
-0.70
-19.93
-37.61
-49.12
-51.69
-45.54
-33.58
-20.05
-8.20
0.40
6.62
12.62
19.84
28.01
35.24
38.88
37.21
30.32
19.99
8.43
-2.50
-11.75
-18.47
-22.00
-21.73
-17.71
-10.51
-0.99
9.54
19.75
28.54
35.12
39.46
41.73
42.51
42.16
41.20
40.26
39.98
40.66
41.89
42.12
39.64
33.80
25.33
16.18
8.73
4.45
3.43
3.80
3.09
-0.65
-7.31
-14.65
-19.66
-20.01
-15.64
-8.67
-1.97
2.45
4.12
3.28
0.32
-5.27
-13.66
-23.88
-33.26
-38.19
-35.92
-26.23
-12.19
1.43
10.43
13.47
12.65
11.57
12.90
15.95
17.44
13.40
2.48
-12.82
-27.61
-37.06
-39.31
-35.98
-31.13
-28.59
-29.82
-32.98
-34.04
-29.60
-18.86
-4.90
7.38
13.73
12.95
7.57
1.56
-1.58
-0.97
1.51
2.61
-0.40
-7.90
-17.68
-25.58
-28.03
-23.66
-14.31
-3.70
4.62
8.87
9.91
9.70
10.40
12.91
16.20
18.14
16.36
10.02
0.43
-9.00
-14.66
-14.57
-9.54
-2.75
2.28
3.62
2.10
0.41
1.63
7.41
16.54
25.81
31.40
31.59
27.64
22.98
20.96
22.17
23.99
22.06
13.45
-1.06
-16.91
-28.10
-30.46
-23.72
-11.71
-0.06
6.59
7.32
4.87
3.42
5.94
11.72
17.30
18.55
13.40
3.40
-7.61
-15.58
-18.66
-17.91
-16.44
-17.63
-23.05
-31.56
-39.48
-42.73
-38.68
-27.86
-13.33
0.87
11.39
17.40
19.68
20.49
21.97
24.69
27.77
28.92
26.18
18.78
7.88
-4.56
-16.55
-26.97
-35.38
-41.11
-43.34
-40.83
-33.45
-21.93
-7.97
5.90
17.43
24.50
26.20
22.67
15.22
5.67
-4.33
-13.67
-21.93
-28.71
-33.40
-34.52
-31.13
-22.89
-10.58
3.49
16.56
26.04
31.01
32.45
32.38
32.56
33.10
32.79
29.96
23.86
15.38
6.85
0.19
-3.54
-4.61
-4.33
-4.04
-4.49
-5.40
-5.44
-3.65
0.08
4.38
7.38
7.82
5.62
2.08
-1.08
-2.75
-2.82
-2.11
-1.78
-3.07
-6.85
-13.52
-22.03
-30.60
-36.68
-38.31
-34.90
-27.50
-18.85
-11.80
-7.96
-6.93
-6.59
-4.88
-1.27
2.17
2.09
-4.08
-15.57
-28.49
-37.78
-39.85
-34.64
-25.04
-15.37
-8.81
-5.92
-4.73
-2.20
3.42
11.47
18.73
21.71
18.53
10.55
1.39
-5.31
-7.76
-6.95
-5.36
-5.45
-8.12
-12.20
-15.24
-14.76
-9.80
-1.45
7.92
15.70
20.79
23.94
27.16
31.99
38.90
46.44
52.16
53.52
48.87
38.81
25.90
14.02
6.70
5.38
8.99
14.63
19.60
22.67
24.54
26.74
30.46
35.22
38.87
38.44
31.66
19.10
4.25
-7.95
-13.65
-12.46
-7.33
-3.17
-3.57
-8.53
-14.80
-18.08
-15.92
-9.68
-3.64
-2.43
-8.60
-20.82
-34.58
-44.80
-48.85
-48.25
-47.47
-51.08
-60.51
-72.91
-82.65
-83.90
-73.27
-51.48
-22.36
9.36
41.42
75.22
115.13
164.76
223.82
286.72
343.88
389.83
420.22
433.37
430.04
413.47
388.37
356.93
322.39
286.50
246.63
198.70
138.96
66.14
-16.91
-104.29
-189.10
-265.58
-330.96
-384.64
-427.63
-460.79
-484.44
-498.98
-505.91
-508.26
-509.16
-511.36
-515.79
-522.18
-528.83
-533.42
-533.58
-528.05
-517.08
-500.87
-482.40
-460.82
-434.07
-399.34
-353.79
-295.31
-223.26
-139.05
-44.79
56.67
162.59
268.55
369.50
460.90
539.22
601.96
647.17
674.84
686.20
683.66
669.78
647.13
617.88
583.88
550.56
517.45
482.95
445.10
402.71
354.82
300.99
241.70
178.20
112.19
45.02
-21.12
-83.72
-140.32
-189.09
-228.74
-258.46
-278.12
-288.34
-290.85
-287.31
-279.78
-270.29
-260.97
-253.75
-250.28
-251.84
-259.22
-272.77
-291.99
-315.77
-342.39
-369.89
-396.11
-418.96
-436.85
-448.32
-452.67
-449.61
-439.52
-423.17
-401.66
-376.23
-348.20
-318.61
-288.17
-257.29
-226.08
-194.47
-162.36
-129.79
-97.09
-64.48
-32.36
-1.14
28.87
57.47
84.43
109.45
132.11
152.14
169.52
184.82
198.89
212.95
228.18
245.38
264.86
286.82
311.29
338.16
366.69
395.60
423.49
448.90
470.36
486.08
493.56
490.30
474.46
446.07
407.38
361.77
312.31
260.92
208.34
155.60
105.10
60.74
26.48
4.33
-6.61
-9.86
-9.74
-9.09
-9.46
-11.38
-15.72
-24.30
-39.00
-60.03
-85.35
-110.97
-132.56
-147.70
-156.41
-160.39
-161.34
-159.07
-151.53
-135.48
-108.94
-73.23
-33.86
0.45
20.33
19.26
-3.84
-42.92
-86.37
-120.89
-136.16
-129.09
-104.69
-73.49
-46.88
-31.59
-27.37
-28.01
-25.48
-14.26
6.11
31.91
58.46
82.90
106.06
130.62
157.68
184.11
202.23
203.14
181.71
140.84
91.76
49.89
28.01
30.05
49.81
74.78
92.71
98.24
94.85
91.32
95.48
108.61
124.39
132.96
126.42
103.10
68.28
30.41
-3.89
-32.80
-58.75
-84.77
-110.43
-130.47
-136.83
-123.50
-90.88
-47.02
-5.02
22.67
29.38
16.70
-6.78
-29.56
-41.87
-38.78
-20.93
7.23
39.40
69.55
92.91
106.56
109.58
102.64
87.86
68.53
48.55
31.93
22.18
20.35
23.96
26.67
19.65
-3.80
-44.08
-93.09
-136.04
-158.03
-151.15
-118.90
-75.14
-37.48
-19.04
-22.58
-40.47
-59.27
-66.74
-57.17
-33.03
-2.93
22.59
35.80
33.96
19.57
-1.65
-23.63
-41.88
-54.16
-59.75
-58.18
-48.85
-32.18
-10.53
11.60
28.58
36.37
34.88
28.41
23.91
27.15
39.31
56.21
70.31
74.12
63.65
40.22
9.44
-21.24
-45.45
-59.66
-63.06
-57.05
-44.13
-26.78
-7.61
11.02
26.82
37.64
41.89
38.57
27.90
12.06
-5.03
-18.26
-22.80
-15.92
2.07
27.77
56.25
83.26
106.59
126.00
141.79
153.01
156.85
149.59
128.94
96.95
60.48
29.31
11.95
11.51
24.05
39.93
48.70
44.82
29.83
11.14
-2.96
-8.54
-7.96
-7.78
-13.58
-24.66
-33.90
-31.84
-13.38
17.70
49.82
69.39
68.49
49.58
24.12
6.47
6.67
26.18
58.61
93.70
122.33
139.99
146.30
142.70
129.93
107.15
73.92
32.33
-11.24
-47.07
-65.76
-63.15
-43.62
-19.63
-6.90
-17.34
-53.41
-106.53
-161.63
-204.55
-228.82
-238.22
-243.61
-256.98
-284.60
-323.51
-362.80
-388.96
-392.34
-371.30
-331.91
-284.32
-237.43
-194.67
-154.13
-111.55
-64.84
-17.14
24.18
50.78
58.22
48.81
30.66
13.95
6.10
8.77
18.44
29.13
36.26
39.05
39.96
42.29
47.12
51.91
52.01
43.67
27.12
7.50
-7.32
-10.68
-0.77
18.07
37.72
49.90
50.05
39.08
21.82
4.51
-7.45
-10.66
-3.22
15.06
42.06
72.88
99.94
114.83
111.43
88.67
51.48
8.84
-29.93
-58.45
-75.39
-83.69
-88.26
-93.16
-99.28
-104.32
-103.95
-93.86
-72.25
-40.73
-3.72
33.46
67.28
97.07
124.78
153.24
183.62
214.37
241.44
260.25
268.17
265.68
256.41
245.67
237.95
234.94
234.66
232.57
224.41
208.74
187.96
167.61
153.67
150.04
156.84
170.81
187.40
202.94
216.34
228.63
241.79
257.65
277.43
301.75
331.34
360.60
383.85
396.31
394.18
375.62
341.24
294.17
239.20
180.92
128.98
86.16
52.41
27.01
9.43
-0.96
-5.09
-4.99
-4.08
-7.70
-20.06
-42.77
-75.04
-114.51
-158.31
-204.39
-251.86
-299.86
-346.66
-389.19
-423.20
-445.84
-457.49
-462.45
-466.73
-474.49
-485.34
-494.20
-494.52
-482.58
-460.70
-436.68
-419.35
-413.09
-415.18
-417.32
-410.98
-392.40
-363.77
-331.07
-299.71
-270.69
-240.98
-206.72
-166.55
-123.10
-80.80
-42.57
-7.78
27.37
66.76
110.39
152.73
184.32
195.74
182.40
147.36
100.67
55.45
22.16
4.10
-3.82
-11.76
-29.80
-61.77
-102.55
-140.12
-160.29
-152.92
-116.48
-58.63
6.71
63.96
101.57
115.22
107.66
86.45
60.37
35.93
16.32
4.21
1.68
11.14
34.62
71.76
119.37
171.28
219.52
257.35
281.69
293.39
296.54
298.16
302.00
308.19
313.00
310.64
295.27
263.30
213.28
146.24
65.38
-24.31
-116.56
-201.77
-269.04
-310.22
-322.58
-311.14
-285.98
-257.73
-233.99
-217.19
-205.83
-197.14
-191.74
-188.77
-187.11
-184.91
-180.09
-170.84
-156.30
-136.72
-113.12
-86.83
-58.26
-26.84
7.29
42.88
77.48
107.45
128.83
138.37
134.96
121.29
102.91
86.92
79.07
81.52
91.16
100.47
100.16
83.41
49.03
2.48
-45.30
-81.92
-96.23
-82.10
-40.13
22.69
95.17
165.45
224.19
266.98
291.43
299.93
298.08
292.23
286.98
284.51
284.75
286.33
291.51
298.59
304.52
305.37
297.13
277.46
246.95
209.06
167.47
127.22
91.26
60.94
35.35
12.12
-10.96
-34.57
-57.72
-78.41
-94.59
-106.68
-117.00
-129.22
-146.80
-171.52
-202.68
-237.91
-274.50
-309.88
-342.51
-369.87
-387.79
-391.41
-377.46
-346.95
-306.05
-264.07
-229.26
-205.25
-189.37
-175.30
-157.79
-136.40
-115.91
-102.91
-101.02
-107.46
-113.96
-110.74
-91.59
-57.29
-14.94
25.99
58.00
78.97
92.04
102.30
113.00
123.16
128.25
123.77
109.03
89.40
74.75
74.41
91.40
119.53
145.34
154.59
140.00
105.77
65.84
36.58
28.01
38.74
57.74
71.37
71.56
60.30
47.39
43.65
53.98
74.25
94.14
103.41
97.66
80.63
61.26
48.12
44.43
46.19
44.66
31.07
1.45
-40.88
-86.89
-126.24
-152.20
-164.42
-167.64
-167.89
-167.86
-164.47
-151.21
-122.87
-80.84
-34.84
0.71
13.43
-0.43
-33.18
-69.62
-94.31
-98.92
-85.43
-62.87
-41.41
-26.30
-15.54
-2.95
16.90
44.57
75.27
102.40
121.69
133.76
143.29
154.85
169.40
182.94
188.50
180.63
158.59
127.03
93.83
65.26
43.12
24.30
3.39
-23.03
-53.86
-83.72
-105.64
-115.69
-115.02
-109.24
-105.08
-105.98
-110.39
-112.64
-106.72
-90.81
-69.11
-50.32
-43.22
-51.96
-74.32
-103.35
-130.78
-151.30
-164.25
-172.49
-179.45
-186.58
-192.76
-195.59
-192.80
-183.70
-168.66
-148.08
-121.92
-89.84
-52.75
-13.34
24.90
58.31
84.76
103.44
114.49
118.73
117.22
111.90
106.02
103.37
106.52
115.07
124.99
130.64
127.77
116.30
100.96
88.55
83.85
86.49
91.01
90.06
78.97
58.84
36.87
22.58
22.96
38.57
62.93
85.47
95.35
85.46
55.14
10.09
-38.91
-79.36
-100.95
-98.84
-75.93
-41.96
-9.39
11.46
16.35
8.11
-6.43
-20.69
-31.56
-39.32
-44.42
-44.90
-36.14
-13.86
21.52
63.07
99.12
118.90
118.68
104.03
87.04
79.55
86.62
104.25
122.45
131.41
127.70
115.13
101.53
92.74
88.51
83.04
69.22
44.66
14.94
-8.52
-15.13
-1.84
23.64
45.84
49.39
27.24
-15.00
-61.86
-96.07
-107.34
-96.97
-75.80
-57.66
-51.25
-55.62
-62.07
-60.56
-46.63
-24.67
-5.27
1.34
-8.63
-29.06
-47.58
-52.05
-37.79
-10.42
16.47
28.59
18.52
-9.95
-43.55
-66.98
-70.91
-56.61
-34.67
-18.33
-15.46
-24.09
-34.01
-33.80
-18.31
7.60
32.44
44.93
41.27
27.95
17.62
21.30
41.72
71.37
96.86
107.22
99.85
82.80
70.54
75.98
103.14
144.27
182.70
200.93
189.07
149.67
96.65
48.20
17.14
4.71
0.85
-9.12
-34.71
-73.98
-114.20
-139.83
-142.01
-125.38
-105.79
-101.19
-121.36
-161.06
-201.88
-222.21
-208.77
-164.20
-106.99
-61.47
-45.61
-61.71
-95.35
-123.88
-129.05
-107.37
-71.86
-44.28
-41.99
-67.17
-106.11
-137.43
-145.06
-127.69
-99.04
-78.55
-78.82
-97.49
-118.46
-122.67
-99.74
-54.65
-4.93
29.93
39.90
29.80
15.84
15.20
35.46
70.23
102.82
116.40
103.85
72.40
39.05
21.00
26.28
49.73
76.86
92.78
90.64
75.22
58.94
53.02
60.11
72.54
76.97
63.03
30.58
-9.75
-41.56
-52.16
-39.79
-14.53
7.54
12.99
-2.05
-30.33
-58.67
-74.93
-73.56
-56.96
-32.14
-5.97
18.23
41.48
66.48
93.72
119.29
135.72
135.34
114.76
77.77
34.34
-2.94
-24.79
-29.15
-21.36
-10.55
-4.57
-5.58
-10.64
-14.27
-12.69
-6.26
1.13
5.03
3.44
-1.92
-6.82
-7.15
-1.64
7.45
15.48
18.28
14.11
4.92
-5.29
-12.40
-14.29
-11.61
-6.70
-1.82
2.27
6.91
14.07
24.92
38.59
51.95
61.08
63.19
57.66
46.59
33.26
20.86
11.15
4.19
-1.00
-5.38
-9.32
-12.17
-13.05
-11.34
-7.17
-1.64
3.48
6.59
6.66
4.10
0.37
-2.62
-3.47
-2.27
-0.69
-1.17
-5.79
-14.86
-26.97
-39.44
-49.47
-55.08
-55.49
-51.00
-42.50
-30.87
-16.93
-2.04
11.63
21.37
25.23
23.11
17.13
10.85
7.95
10.33
16.75
22.77
22.98
14.05
-3.01
-22.82
-38.02
-42.62
-34.93
-19.98
-8.73
-13.18
-40.79
-90.35
-152.13
-212.44
-258.49
-282.52
-284.56
-271.52
-252.13
-232.11
-211.68
-186.89
-153.85
-113.30
-69.05
-23.23
20.23
55.98
78.35
84.82
84.22
85.59
92.51
108.84
137.42
177.65
226.21
277.77
326.62
368.48
399.06
414.23
411.72
390.75
351.80
299.68
244.16
198.40
174.73
177.65
200.68
230.75
253.65
258.90
244.88
217.93
182.86
144.76
112.12
84.40
54.88
20.47
-20.15
-61.48
-94.92
-113.34
-114.03
-100.89
-83.20
-69.50
-63.81
-65.84
-71.85
-78.00
-82.18
-83.97
-84.65
-86.93
-92.36
-100.35
-109.41
-116.99
-120.89
-120.02
-114.52
-105.96
-97.36
-91.04
-87.84
-87.33
-88.30
-89.99
-92.18
-93.90
-92.31
-83.05
-61.94
-28.40
11.98
48.49
69.48
68.22
46.43
13.46
-18.70
-41.12
-51.34
-52.79
-50.92
-49.42
-48.47
-46.00
-40.38
-32.20
-24.10
-19.09
-18.84
-22.62
-27.92
-31.56
-31.46
-27.39
-20.97
-14.72
-10.92
-10.56
-12.94
-16.41
-19.02
-19.41
-17.37
-13.79
-10.07
-7.51
-6.77
-7.73
-9.66
-11.63
-12.89
-13.12
-12.40
-11.09
-9.67
-8.63
-8.34
-9.02
-10.60
-12.73
-14.88
-16.37
-16.69
-15.73
-13.96
-12.29
-11.74
-12.92
-15.65
-19.14
-22.05
-23.38
-22.65
-20.38
-17.56
-15.30
-14.37
-15.12
-17.81
-22.04
-26.24
-27.27
-21.14
-4.19
24.64
62.49
103.33
139.18
163.73
174.31
172.10
160.56
143.33
122.64
98.51
72.35
45.34
19.61
-2.44
-19.21
-30.62
-37.87
-42.63
-46.38
-49.31
-51.18
-51.28
-49.18
-45.22
-40.42
-36.10
-33.27
-32.09
-31.71
-31.13
-29.44
-26.39
-22.53
-18.94
-16.72
-16.21
-16.90
-17.59
-17.19
-15.02
-11.40
-7.46
-4.48
-3.69
-5.38
-9.13
-14.17
-19.72
-24.77
-28.45
-30.34
-31.19
-33.62
-41.43
-57.87
-83.83
-116.09
-147.65
-169.97
-176.50
-164.41
-138.01
-104.60
-71.58
-43.73
-22.42
-6.59
5.46
14.53
20.44
22.41
20.56
15.96
10.03
3.96
-2.14
-8.93
-16.50
-23.30
-26.06
-20.49
-3.99
22.39
53.67
82.69
103.10
111.97
110.46
102.43
92.35
83.15
75.71
69.57
64.09
59.15
55.11
52.23
50.33
48.95
47.58
45.83
43.68
41.28
38.77
36.23
33.75
31.48
29.85
29.28
29.93
31.54
33.27
34.01
33.04
30.28
26.59
23.41
21.99
22.93
26.00
30.43
35.17
38.81
39.47
34.84
23.02
3.27
-22.72
-51.16
-77.33
-97.28
-109.44
-114.89
-116.39
-116.34
-115.16
-110.85
-100.28
-81.35
-54.64
-23.78
6.32
31.08
48.47
59.03
64.97
68.43
70.36
70.58
68.02
62.16
53.21
42.69
33.04
27.13
27.28
33.92
44.46
53.09
53.40
41.47
18.89
-7.54
-28.83
-39.03
-38.07
-31.70
-27.97
-32.18
-44.44
-59.89
-71.48
-73.59
-63.82
-44.05
-19.03
5.89
27.22
43.98
57.92
72.01
87.82
104.57
118.71
125.89
123.92
114.77
103.32
94.15
89.05
84.18
72.75
49.07
12.60
-31.18
-72.62
-103.31
-118.79
-120.22
-112.63
-101.92
-92.36
-85.49
-81.05
-78.15
-76.48
-75.86
-75.79
-75.39
-73.52
-69.05
-61.41
-51.38
-40.29
-29.87
-21.94
-17.78
-17.69
-19.90
-20.59
-15.82
-3.88
12.94
28.82
37.13
34.21
21.60
5.91
-4.47
-3.94
7.53
24.84
40.68
49.44
49.47
42.47
31.73
19.87
7.54
-6.02
-21.39
-38.51
-56.08
-72.07
-85.30
-95.43
-102.36
-105.53
-103.02
-92.29
-72.08
-43.83
-11.95
17.51
39.29
51.24
54.30
51.64
46.58
41.07
35.67
30.22
24.86
20.35
17.75
17.37
18.57
19.92
19.97
17.83
13.70
8.54
3.54
-0.42
-3.24
-5.57
-8.44
-12.77
-18.80
-25.90
-32.85
-38.19
-40.84
-40.23
-36.51
-30.28
-22.36
-13.42
-3.85
6.10
16.19
25.98
34.90
42.39
48.16
52.30
55.26
57.74
60.26
62.93
65.38
66.90
66.84
64.69
60.53
54.90
48.65
42.85
38.53
36.35
36.23
36.96
36.35
31.86
21.76
6.16
-12.86
-31.74
-47.04
-56.57
-60.07
-58.95
-55.23
-50.67
-46.19
-42.07
-38.45
-35.45
-33.23
-31.62
-30.32
-29.09
-27.97
-27.25
-27.29
-28.17
-29.34
-29.82
-28.32
-24.23
-17.88
-10.54
-3.83
1.12
4.34
7.10
10.16
14.57
20.55
27.49
34.13
39.63
43.94
47.59
50.95
53.27
53.04
48.63
39.42
26.57
12.71
0.86
-6.72
-9.16
-6.88
-0.75
8.01
17.96
27.30
34.08
36.88
35.69
32.21
29.41
30.37
36.82
48.35
62.60
76.23
86.25
91.02
90.64
86.71
81.67
77.74
76.29
77.60
80.96
85.13
88.96
91.59
92.66
92.12
89.96
86.04
80.09
71.70
60.59
47.00
32.04
17.78
6.69
0.70
0.60
5.54
13.27
20.88
25.69
25.70
19.75
7.27
-11.87
-37.20
-67.42
-100.35
-133.31
-163.85
-190.33
-211.89
-228.18
-238.86
-243.28
-240.39
-229.11
-208.80
-179.78
-143.61
-103.01
-61.40
-22.28
11.60
38.67
58.60
71.85
79.31
82.15
81.90
80.26
78.63
77.44
75.60
70.96
61.66
47.50
30.66
14.75
2.95
-3.51
-5.78
-6.25
-6.81
-7.69
-7.54
-4.66
1.68
10.68
20.41
28.73
34.08
35.84
34.10
29.19
21.27
10.38
-3.40
-19.46
-36.50
-52.43
-64.81
-71.66
-72.24
-67.51
-59.51
-50.30
-40.80
-30.41
-17.53
-0.66
20.18
42.90
63.76
78.80
85.39
83.26
74.34
61.73
48.32
35.79
24.22
12.46
-1.07
-17.38
-36.34
-56.72
-76.70
-94.71
-109.85
-122.03
-131.77
-140.14
-148.68
-159.50
-174.58
-194.53
-216.92
-235.55
-241.44
-226.11
-185.63
-123.35
-49.55
22.07
79.64
117.26
136.18
142.66
143.96
145.04
147.31
149.95
152.44
156.02
162.87
173.55
184.54
188.31
176.50
144.43
94.38
35.27
-21.30
-66.55
-97.66
-118.27
-135.15
-153.80
-175.69
-197.81
-215.10
-223.42
-221.51
-210.38
-192.98
-173.62
-156.78
-146.51
-144.73
-150.87
-162.53
-176.58
-188.58
-195.26
-195.69
-190.58
-182.05
-171.16
-158.14
-143.33
-128.13
-112.14
-95.40
-78.91
-63.21
-48.76
-33.71
-14.81
10.68
43.28
84.51
133.13
184.77
236.22
276.98
299.13
304.86
309.96
321.04
340.65
367.61
390.76
402.44
398.07
377.70
343.96
298.82
231.90
147.24
59.26
-16.23
-68.68
-95.68
-99.97
-88.06
-69.51
-54.49
-47.25
-48.89
-58.66
-73.78
-91.14
-109.13
-124.20
-133.83
-137.11
-132.18
-119.15
-100.18
-77.56
-53.71
-30.52
-9.30
8.29
20.74
28.75
33.74
36.01
36.80
37.84
40.73
46.22
53.62
61.34
68.52
75.13
82.22
91.64
104.60
120.21
135.25
144.71
143.92
130.43
104.37
67.43
21.38
-33.53
-98.43
-173.97
-257.70
-342.32
-416.29
-466.91
-484.70
-466.69
-417.62
-348.25
-271.48
-198.27
-134.94
-82.73
-39.40
-1.64
33.34
67.10
100.20
132.98
165.92
199.42
233.20
266.05
296.31
323.00
346.65
368.62
389.27
405.88
412.01
399.37
361.40
296.54
209.56
110.13
9.68
-81.48
-155.24
-205.69
-228.73
-222.92
-191.69
-144.80
-97.47
-66.36
-63.92
-93.83
-149.80
-218.01
-281.92
-327.43
-346.46
-338.15
-308.30
-267.10
-226.34
-196.38
-183.13
-186.51
-200.90
-217.42
-227.42
-225.32
-209.51
-181.67
-144.83
-101.50
-53.11
-0.61
54.40
108.63
157.32
195.62
220.55
232.68
236.34
238.18
244.81
260.51
285.78
317.60
350.86
380.37
402.28
414.87
418.17
413.26
401.66
384.69
363.37
338.29
309.80
278.03
243.36
206.71
169.61
133.83
100.37
68.63
36.01
-1.25
-46.43
-100.20
-159.16
-215.84
-260.26
-283.07
-278.51
-246.94
-195.45
-136.41
-84.05
-50.54
-42.99
-62.22
-103.49
-158.16
-215.73
-265.34
-297.14
-303.89
-283.12
-238.65
-179.89
-119.22
-67.30
-29.50
-5.49
8.21
13.96
10.53
-5.50
-35.31
-73.83
-109.33
-127.80
-120.29
-88.34
-44.37
-5.98
12.67
7.70
-13.92
-39.26
-56.73
-61.37
-55.57
-45.93
-38.56
-35.91
-36.50
-37.14
-35.29
-30.81
-25.96
-23.55
-25.22
-29.94
-34.02
-33.04
-24.33
-9.00
7.89
19.37
20.10
8.94
-10.61
-32.54
-51.92
-67.37
-80.61
-94.44
-110.14
-126.05
-138.68
-144.69
-142.53
-132.71
-116.69
-95.35
-68.52
-35.35
4.33
48.92
94.93
137.79
173.15
198.22
212.26
216.51
213.42
205.82
196.25
186.56
178.15
171.87
168.27
167.84
170.92
177.63
187.61
200.01
213.71
227.86
241.87
255.33
267.83
278.97
288.17
294.74
298.01
297.41
293.18
285.83
275.63
262.23
244.98
222.78
194.37
159.24
118.05
74.38
33.00
-1.82
-27.35
-41.85
-45.46
-40.49
-31.12
-23.04
-18.77
-18.94
-23.06
-29.41
-34.33
-34.78
-30.81
-26.51
-29.98
-45.53
-74.49
-115.09
-161.43
-202.72
-227.37
-227.42
-201.21
-154.80
-93.18
-21.94
52.49
107.36
123.41
97.69
47.82
14.40
5.34
19.95
54.88
97.25
136.92
167.41
185.58
190.36
181.37
156.68
119.10
71.99
17.25
-43.21
-105.86
-165.96
-219.08
-262.33
-296.03
-318.50
-329.15
-330.13
-324.51
-314.11
-298.59
-275.98
-244.32
-204.35
-157.48
-107.76
-61.55
-24.23
2.44
21.02
36.86
55.42
79.48
110.18
146.49
184.87
220.38
247.06
258.90
251.67
225.61
187.20
148.67
123.29
117.98
130.37
149.14
158.85
147.02
109.98
54.41
-6.01
-57.33
-93.94
-118.14
-137.33
-159.34
-188.78
-225.33
-264.29
-298.84
-322.68
-336.51
-342.90
-344.17
-341.17
-334.75
-327.51
-323.74
-327.51
-339.84
-362.76
-392.70
-421.18
-439.07
-443.09
-438.37
-435.65
-445.15
-436.34
-388.51
-298.77
-184.88
-70.45
27.81
102.97
155.78
191.97
219.15
237.62
245.57
242.04
229.18
211.21
192.61
177.44
168.74
168.17
170.34
168.36
157.84
140.11
120.42
104.80
97.51
99.19
107.79
115.54
112.46
93.95
62.94
26.24
-9.16
-38.32
-58.96
-68.30
-66.05
-56.04
-39.45
-17.48
7.63
31.95
51.43
63.55
71.68
80.43
89.09
98.19
110.22
126.33
146.81
171.88
182.99
169.84
161.19
167.31
180.83
204.07
241.90
297.35
367.54
442.09
508.70
554.84
567.76
545.55
496.83
432.14
358.86
279.41
192.53
99.53
4.05
-92.20
-184.93
-268.43
-339.66
-397.26
-439.38
-462.87
-462.86
-437.75
-394.40
-343.65
-296.39
-261.04
-240.42
-231.65
-228.65
-224.71
-216.71
-207.29
-199.48
-193.84
-188.34
-179.81
-166.31
-148.31
-127.22
-105.36
-85.74
-68.11
-49.73
-27.16
1.35
34.77
70.41
107.63
147.14
189.72
230.60
261.49
278.84
287.19
293.86
302.26
312.84
331.31
351.53
369.31
380.66
385.43
386.68
388.83
383.88
369.04
341.99
300.01
243.37
169.03
77.29
-27.45
-138.31
-248.85
-351.67
-441.12
-514.39
-569.34
-612.10
-646.94
-673.78
-690.37
-696.64
-694.74
-689.06
-683.74
-638.18
-536.58
-395.40
-251.54
-136.08
-63.42
-32.08
-29.88
-41.94
-51.29
-54.90
-54.46
-52.32
-49.72
-46.83
-41.52
-29.00
-6.56
27.16
65.81
104.43
142.25
181.78
225.87
276.94
336.21
402.22
470.98
533.65
583.95
620.14
643.47
656.17
661.25
662.17
660.36
654.30
638.05
606.05
553.96
478.33
377.50
254.14
115.97
-27.35
-167.25
-298.01
-414.60
-498.48
-526.75
-493.90
-418.08
-324.91
-233.22
-152.89
-91.66
-44.59
-8.42
16.85
29.41
28.84
17.02
-3.96
-32.71
-68.31
-108.84
-152.63
-198.95
-247.61
-297.22
-344.50
-386.00
-419.89
-446.30
-466.39
-483.06
-499.53
-517.51
-534.88
-545.59
-542.66
-522.23
-485.73
-439.27
-392.00
-352.54
-325.94
-312.10
-306.54
-302.96
-295.59
-280.35
-254.57
-217.09
-168.00
-108.93
-42.81
26.49
95.02
159.46
218.04
270.95
320.05
368.36
418.73
472.63
529.10
584.73
634.63
674.30
701.32
716.39
722.85
724.92
725.68
725.54
722.29
712.40
693.04
663.54
625.74
583.20
539.72
498.07
459.37
423.36
388.80
354.03
317.03
275.17
225.59
165.95
95.64
16.65
-66.27
-146.86
-219.17
-279.25
-326.26
-362.32
-391.60
-418.73
-446.95
-476.51
-503.90
-522.44
-524.51
-504.56
-461.71
-400.70
-330.36
-260.68
-199.73
-151.85
-117.66
-95.42
-82.59
-76.73
-75.61
-77.03
-78.66
-78.47
-75.28
-69.10
-61.06
-53.00
-46.73
-43.40
-43.19
-45.35
-48.56
-51.45
-53.07
-53.14
-52.02
-50.30
-48.53
-46.94
-45.47
-43.89
-42.00
-39.78
-37.33
-34.78
-32.12
-29.20
-25.90
-22.32
-18.92
-16.62
-16.55
-19.64
-26.21
-35.58
-46.17
-55.80
-62.25
-63.87
-60.07
-51.40
-39.30
-25.73
-12.50
-0.86
8.65
16.22
22.38
27.76
32.76
37.59
42.23
46.66
50.91
55.05
59.18
63.26
67.10
70.43
72.91
74.27
74.33
73.06
70.48
66.70
61.89
56.19
49.80
42.90
35.66
28.33
21.16
14.44
8.39
3.07
-1.63
-6.00
-10.43
-15.21
-20.42
-25.98
-31.68
-37.29
-42.52
-46.87
-49.53
-49.50
-45.80
-37.94
-26.30
-12.16
2.58
15.94
26.38
33.09
35.96
35.41
32.27
27.57
22.45
18.09
15.40
14.87
16.45
19.67
23.80
28.02
31.66
34.14
35.20
34.84
33.35
31.20
28.81
26.33
23.50
19.79
14.63
7.86
-0.13
-8.48
-16.14
-22.32
-26.71
-29.55
-31.26
-32.26
-32.66
-32.24
-30.66
-27.77
-23.90
-19.89
-16.88
-15.88
-17.22
-20.26
-23.57
-25.35
-24.22
-19.81
-13.01
-5.68
0.16
3.07
2.75
0.06
-3.52
-6.44
-7.69
-6.93
-4.32
-0.15
5.47
12.61
21.41
31.55
42.21
51.98
59.29
62.94
62.60
58.83
52.87
46.05
39.22
32.55
25.71
18.26
10.18
2.01
-5.43
-11.44
-15.87
-19.25
-22.42
-25.93
-29.69
-32.85
-34.26
-33.16
-29.65
-24.77
-20.13
-17.30
-17.16
-19.72
-24.19
-29.42
-34.40
-38.43
-41.18
-42.48
-42.17
-40.03
-35.97
-30.13
-22.94
-15.00
-6.73
1.80
10.96
21.28
33.01
45.77
58.54
69.91
78.53
83.59
84.94
83.19
79.38
74.75
70.40
67.10
65.19
64.54
64.74
65.19
65.45
65.17
64.16
62.17
58.92
54.06
47.47
39.41
30.64
22.19
15.08
10.08
7.50
7.34
9.44
13.60
19.56
26.89
34.86
42.43
48.48
52.03
52.44
49.48
43.36
34.66
24.15
12.80
1.56
-8.74
-17.54
-24.65
-30.22
-34.65
-38.44
-42.00
-45.42
-48.50
-50.79
-51.86
-51.51
-49.96
-47.76
-45.60
-43.90
-42.62
-41.21
-38.79
-34.60
-28.35
-20.43
-11.89
-4.06
1.82
5.04
5.57
4.02
1.28
-1.80
-4.70
-7.31
-9.68
-11.79
-13.39
-14.10
-13.66
-12.15
-10.09
-8.25
-7.37
-7.81
-9.55
-12.27
-15.75
-19.99
-25.24
-31.65
-38.87
-45.83
-50.87
-52.21
-48.56
-39.71
-26.62
-11.28
3.87
16.55
25.19
29.19
28.89
25.26
19.51
12.75
5.76
-0.93
-6.98
-12.05
-15.78
-17.93
-18.42
-17.47
-15.54
-13.24
-11.08
-9.56
-8.99
-9.57
-11.30
-13.91
-16.85
-19.44
-21.10
-21.54
-20.95
-19.93
-19.26
-19.62
-21.33
-24.25
-27.87
-31.53
-34.59
-36.63
-37.44
-37.03
-35.62
-33.49
-30.94
-28.25
-25.44
-22.24
-18.08
-12.19
-3.84
7.29
20.93
36.30
52.14
67.11
79.98
89.65
95.31
96.41
92.84
85.02
73.99
61.13
47.94
35.60
24.75
15.54
7.82
1.36
-3.88
-7.78
-10.23
-11.24
-11.02
-10.01
-8.71
-7.63
-7.13
-7.37
-8.33
-9.97
-12.17
-14.83
-17.81
-20.75
-23.08
-24.16
-23.48
-20.98
-17.22
-13.21
-10.05
-8.54
-8.88
-10.83
-13.90
-17.66
-21.75
-25.78
-29.04
-30.49
-29.10
-24.16
-15.83
-5.15
6.20
16.47
24.31
29.14
31.10
30.81
29.03
26.38
23.24
19.78
16.15
12.60
9.56
7.56
7.03
8.11
10.51
13.63
16.76
19.36
21.14
22.14
22.46
22.19
21.29
19.72
17.57
15.07
12.67
10.78
9.60
9.00
8.57
7.84
6.43
4.23
1.46
-1.54
-4.45
-7.18
-9.90
-12.96
-16.70
-21.19
-26.09
-30.59
-33.57
-33.92
-30.96
-24.68
-15.96
-6.30
2.55
9.06
12.38
12.41
9.79
5.61
1.06
-2.92
-5.78
-7.42
-8.00
-7.82
-7.10
-5.91
-4.26
-2.23
-0.09
1.73
2.75
2.63
1.30
-1.06
-4.23
-8.17
-13.05
-19.19
-26.62
-34.84
-42.84
-49.37
-53.48
-54.85
-53.78
-50.66
-45.55
-38.14
-28.17
-16.14
-3.66
6.80
12.87
13.20
8.03
-0.91
-11.16
-20.20
-25.97
-27.12
-23.04
-13.96
-0.95
14.06
28.80
41.23
50.16
55.37
57.48
57.37
55.78
53.13
49.51
44.98
39.68
33.89
27.97
22.31
17.24
13.17
10.50
9.64
10.79
13.78
17.93
22.22
25.61
27.45
27.73
26.93
25.70
24.47
23.19
21.46
18.81
15.00
10.02
4.12
-2.37
-9.08
-15.47
-20.86
-24.54
-26.09
-25.72
-24.44
-23.74
-25.11
-29.48
-36.86
-46.38
-56.54
-65.64
-72.12
-74.83
-73.25
-67.62
-58.98
-49.03
-39.69
-32.48
-28.04
-25.82
-24.36
-21.83
-16.71
-8.34
2.92
15.89
29.01
40.82
50.33
57.16
61.50
64.02
65.52
66.83
68.44
70.49
72.71
74.64
75.81
75.89
74.79
72.56
69.25
64.82
59.03
51.66
42.55
31.79
19.69
6.87
-5.95
-17.94
-28.27
-36.23
-41.25
-43.16
-42.12
-38.77
-34.02
-28.90
-24.33
-21.08
-19.68
-20.47
-23.39
-27.87
-32.69
-36.21
-36.88
-33.85
-27.45
-19.18
-11.19
-5.52
-3.49
-5.44
-10.99
-19.30
-29.28
-39.69
-49.04
-55.71
-58.37
-56.35
-49.89
-40.13
-28.65
-17.01
-6.53
1.84
7.34
9.39
7.72
2.60
-4.92
-13.25
-20.58
-25.42
-26.92
-25.00
-20.21
-13.52
-6.08
0.92
6.34
9.30
9.29
6.39
1.25
-5.02
-11.06
-15.61
-17.70
-16.84
-13.01
-6.69
1.34
10.11
18.64
26.02
31.57
34.91
35.95
34.88
32.13
28.20
23.60
18.79
14.10
9.83
6.22
3.48
1.74
0.91
0.81
1.14
1.64
2.22
2.93
3.88
5.06
6.23
6.95
6.84
5.69
3.69
1.34
-0.78
-2.29
-3.22
-3.89
-4.82
-6.32
-8.42
-10.82
-13.02
-14.59
-15.29
-15.14
-14.46
-13.64
-13.03
-12.87
-13.14
-13.61
-13.87
-13.43
-11.83
-8.79
-4.32
1.27
7.31
12.97
17.37
19.87
20.22
18.71
16.06
13.15
10.79
9.42
9.04
9.32
9.81
10.13
10.14
9.90
9.61
9.48
9.62
10.10
10.85
11.75
12.61
13.18
13.21
12.54
11.17
9.27
7.14
5.07
3.28
1.80
0.56
-0.56
-1.70
-2.96
-4.41
-6.08
-7.95
-9.94
-11.85
-13.48
-14.66
-15.40
-15.88
-16.34
-16.96
-17.75
-18.53
-19.06
-19.16
-18.78
-17.99
-16.80
-15.07
-12.56
-9.04
-4.66
0.10
4.47
7.70
9.44
9.86
9.51
8.87
8.11
6.91
4.83
1.64
-2.20
-5.65
-7.39
-6.41
-2.47
3.68
10.62
16.71
20.62
21.79
20.43
17.34
13.63
10.29
7.96
6.90
6.90
7.43
7.79
7.27
5.38
2.01
-2.51
-7.49
-12.06
-15.46
-17.24
-17.31
-15.92
-13.54
-10.76
-8.25
-6.57
-6.14
-7.12
-9.33
-12.40
-15.95
-19.58
-22.97
-25.72
-27.34
-27.37
-25.62
-22.32
-18.19
-14.31
-11.68
-10.91
-12.10
-14.84
-18.48
-22.37
-26.04
-29.21
-31.86
-33.96
-35.61
-36.89
-37.97
-39.13
-40.77
-43.28
-46.91
-51.54
-56.51
-60.79
-63.08
-62.28
-57.72
-49.32
-37.43
-22.70
-5.76
12.89
33.07
54.94
79.10
106.22
136.54
169.16
201.70
230.45
251.30
261.10
258.66
245.09
223.13
196.15
167.04
137.78
109.46
82.55
57.21
33.45
11.14
-9.92
-29.76
-48.10
-64.21
-77.10
-85.79
-89.70
-88.83
-83.86
-76.09
-67.00
-58.14
-50.70
-45.19
-41.51
-39.04
-37.05
-34.97
-32.68
-30.51
-28.96
-28.41
-28.79
-29.50
-29.53
-27.92
-24.20
-18.58
-12.00
-5.86
-1.56
-0.05
-1.54
-5.42
-10.37
-14.83
-17.43
-17.43
-15.05
-11.26
-7.41
-4.71
-3.63
-3.70
-3.65
-1.94
2.61
10.19
19.92
30.11
39.00
45.28
48.52
48.98
47.23
43.78
38.86
32.59
25.21
17.19
9.14
1.59
-5.28
-11.66
-17.91
-24.27
-30.69
-36.81
-42.16
-46.31
-49.02
-50.26
-50.16
-48.91
-46.83
-44.28
-41.61
-39.12
-36.90
-34.84
-32.72
-30.44
-28.01
-25.67
-23.65
-22.12
-20.97
-19.99
-18.87
-17.50
-16.00
-14.64
-13.67
-13.18
-12.99
-12.72
-11.94
-10.37
-8.04
-5.26
-2.56
-0.47
0.62
0.62
-0.28
-1.70
-3.26
-4.63
-5.74
-6.66
-7.61
-8.88
-10.69
-13.13
-16.09
-19.20
-21.87
-23.44
-23.32
-21.20
-17.22
-11.96
-6.28
-1.11
2.88
5.35
6.37
6.30
5.64
4.87
4.38
4.42
5.12
6.42
8.13
9.93
11.53
12.72
13.47
13.95
14.41
15.10
16.14
17.46
18.82
19.90
20.37
20.11
19.16
17.75
16.23
14.82
13.67
12.67
11.60
10.19
8.26
5.72
2.61
-0.86
-4.40
-7.68
-10.37
-12.25
-13.31
-13.78
-14.05
-14.58
-15.70
-17.50
-19.75
-21.95
-23.48
-23.72
-22.30
-19.13
-14.47
-8.85
-2.99
2.42
6.84
10.01
11.90
12.71
12.75
12.39
12.00
11.90
12.31
13.29
14.75
16.40
17.91
18.96
19.36
19.12
18.39
17.39
16.28
15.21
14.18
13.11
11.89
10.34
8.33
5.78
2.74
-0.64
-4.07
-7.28
-10.05
-12.29
-14.08
-15.61
-17.07
-18.57
-20.13
-21.66
-23.04
-24.12
-24.84
-25.27
-25.59
-26.09
-27.02
-28.53
-30.48
-32.49
-33.92
-34.06
-32.42
-28.84
-23.62
-17.41
-11.07
-5.38
-0.87
2.27
4.20
5.36
6.26
7.31
8.68
10.30
11.86
13.09
13.78
13.97
13.86
13.76
13.88
14.25
14.83
15.49
16.14
16.71
17.15
17.29
16.94
15.91
14.16
11.91
9.53
7.45
5.95
5.05
4.47
3.82
2.75
1.09
-1.05
-3.37
-5.54
-7.25
-8.38
-9.00
-9.33
-9.65
-10.25
-11.37
-13.05
-15.12
-17.11
-18.38
-18.26
-16.32
-12.54
-7.39
-1.62
3.97
8.72
12.38
14.93
16.58
17.52
17.94
17.99
17.85
17.71
17.71
17.91
18.19
18.30
17.99
17.10
15.71
14.10
12.62
11.48
10.60
9.65
8.18
5.86
2.68
-0.97
-4.44
-7.06
-8.34
-8.13
-6.69
-4.55
-2.40
-0.89
-0.49
-1.37
-3.39
-6.16
-9.08
-11.57
-13.12
-13.55
-13.00
-11.98
-11.18
-11.24
-12.44
-14.55
-16.83
-18.29
-18.07
-15.78
-11.61
-6.23
-0.52
4.76
9.13
12.47
14.87
16.49
17.50
18.00
18.17
18.18
18.21
18.33
18.49
18.54
18.28
17.57
16.38
14.80
13.02
11.31
9.92
9.11
8.95
9.36
10.06
10.64
10.70
10.03
8.63
6.70
4.54
2.44
0.59
-0.89
-1.97
-2.71
-3.21
-3.67
-4.36
-5.51
-7.17
-9.28
-11.62
-13.99
-16.32
-18.68
-21.16
-23.75
-26.21
-28.06
-28.79
-27.96
-25.43
-21.33
-15.98
-9.82
-3.29
3.10
8.82
13.29
16.03
16.78
15.58
12.83
9.16
5.35
2.07
-0.16
-1.14
-0.95
0.15
1.75
3.50
5.10
6.35
7.16
7.48
7.33
6.76
5.88
4.85
3.79
2.73
1.65
0.50
-0.78
-2.19
-3.76
-5.46
-7.27
-9.15
-10.99
-12.61
-13.85
-14.66
-15.14
-15.55
-16.22
-17.39
-19.09
-21.05
-22.75
-23.53
-22.81
-20.28
-16.02
-10.51
-4.52
1.12
5.75
9.02
10.96
11.89
12.25
12.45
12.79
13.32
13.96
14.49
14.71
14.48
13.87
13.07
12.37
12.06
12.34
13.25
14.64
16.17
17.47
18.16
17.98
16.83
14.84
12.25
9.39
6.62
4.20
2.27
0.79
-0.39
-1.55
-2.96
-4.77
-6.95
-9.24
-11.36
-13.06
-14.37
-15.51
-16.91
-18.88
-21.45
-24.19
-26.32
-26.87
-25.11
-20.82
-14.40
-6.82
0.73
7.19
11.89
14.63
15.61
15.29
14.22
12.94
11.92
11.52
11.87
12.87
14.19
15.41
16.19
16.42
16.23
15.92
15.81
16.09
16.77
17.64
18.37
18.63
18.17
16.92
15.04
12.80
10.57
8.56
6.87
5.39
3.95
2.34
0.40
-1.92
-4.60
-7.48
-10.33
-12.89
-14.92
-16.32
-17.24
-18.03
-19.15
-20.93
-23.39
-26.13
-28.35
-29.12
-27.69
-23.81
-17.84
-10.69
-3.45
2.86
7.66
10.84
12.62
13.40
13.53
13.29
12.91
12.61
12.54
12.79
13.34
14.00
14.60
14.94
14.97
14.70
14.27
13.79
13.40
13.18
13.12
13.19
13.20
12.98
12.35
11.24
9.68
7.83
5.85
3.86
1.95
0.07
-1.78
-3.69
-5.66
-7.68
-9.74
-11.78
-13.78
-15.68
-17.41
-18.93
-20.25
-21.46
-22.77
-24.42
-26.48
-28.85
-31.05
-32.53
-32.67
-31.11
-27.71
-22.69
-16.51
-9.77
-3.22
2.42
6.57
8.98
9.77
9.47
8.72
8.05
7.77
7.85
8.13
8.46
8.85
9.36
10.05
10.85
11.61
12.15
12.36
12.29
12.08
11.92
11.84
11.75
11.50
10.94
10.06
9.01
7.97
7.12
6.46
5.88
5.16
4.15
2.73
0.90
-1.28
-3.68
-6.12
-8.40
-10.33
-11.79
-12.87
-13.81
-14.99
-16.74
-19.15
-21.98
-24.64
-26.35
-26.39
-24.26
-19.95
-13.90
-6.94
-0.01
6.05
10.71
13.84
15.66
16.58
16.94
16.98
16.79
16.36
15.72
14.98
14.30
13.83
13.61
13.58
13.64
13.71
13.75
13.82
13.91
13.95
13.80
13.23
12.11
10.42
8.28
5.92
3.63
1.67
0.19
-0.80
-1.40
-1.80
-2.26
-3.01
-4.24
-6.00
-8.14
-10.41
-12.44
-13.89
-14.59
-14.62
-14.31
-14.16
-14.65
-16.13
-18.59
-21.62
-24.44
-26.13
-25.82
-23.08
-17.98
-11.19
-3.73
3.34
9.17
13.28
15.62
16.41
16.02
14.87
13.38
11.91
10.77
10.07
9.83
9.88
10.06
10.23
10.37
10.55
10.87
11.39
12.07
12.81
13.49
14.02
14.43
14.76
15.04
15.19
15.03
14.25
12.64
10.14
6.92
3.43
0.14
-2.58
-4.60
-6.06
-7.27
-8.55
-10.18
-12.27
-14.86
-17.87
-21.13
-24.41
-27.39
-29.79
-31.44
-32.37
-32.71
-32.60
-31.98
-30.56
-27.92
-23.74
-18.06
-11.34
-4.39
1.86
6.74
9.92
11.57
12.14
12.16
12.07
12.07
12.19
12.31
12.35
12.27
12.14
12.05
12.12
12.29
12.46
12.45
12.13
11.56
10.90
10.42
10.30
10.57
10.99
11.24
11.01
10.23
9.07
7.85
6.88
6.27
5.89
5.40
4.50
3.00
0.94
-1.48
-4.00
-6.37
-8.54
-10.52
-12.40
-14.24
-16.12
-18.13
-20.35
-22.85
-25.49
-27.96
-29.67
-29.98
-28.37
-24.67
-19.19
-12.58
-5.73
0.52
5.56
9.08
11.05
11.69
11.34
10.40
9.19
7.98
6.98
6.29
6.02
6.24
6.95
8.11
9.57
11.11
12.51
13.61
14.27
14.45
14.11
13.21
11.74
9.79
7.56
5.32
3.31
1.67
0.36
-0.83
-2.22
-4.05
-6.38
-9.05
-11.71
-13.88
-15.23
-15.58
-15.13
-14.28
-13.58
-13.53
-14.44
-16.33
-18.94
-21.76
-24.02
-24.91
-23.74
-20.15
-14.38
-7.22
0.16
6.54
11.09
13.58
14.40
14.28
13.95
13.84
14.01
14.21
14.12
13.53
12.49
11.25
10.14
9.43
9.17
9.24
9.41
9.45
9.27
8.82
8.15
7.22
5.96
4.30
2.27
0.09
-1.91
-3.39
-4.20
-4.47
-4.53
-4.84
-5.74
-7.36
-9.60
-12.15
-14.70
-16.98
-18.88
-20.45
-21.83
-23.19
-24.64
-26.21
-27.76
-28.94
-29.23
-28.02
-24.79
-19.40
-12.23
-4.17
3.62
10.07
14.55
17.00
17.84
17.63
16.78
15.45
13.62
11.33
8.84
6.65
5.25
5.01
5.87
7.44
9.11
10.30
10.69
10.30
9.41
8.45
7.77
7.47
7.48
7.52
7.42
7.10
6.72
6.51
6.66
7.19
8.01
8.98
9.97
10.94
11.89
12.73
13.20
12.96
11.63
8.98
5.01
-0.00
-5.57
-11.02
-15.69
-19.05
-20.75
-20.75
-19.20
-16.45
-12.91
-9.08
-5.44
-2.38
-0.17
1.20
1.90
2.30
2.74
3.39
4.28
5.29
6.29
7.24
8.19
9.17
10.15
10.97
11.43
11.37
10.79
9.80
8.58
7.29
6.02
4.81
3.67
2.70
1.97
1.57
1.47
1.57
1.67
1.64
1.45
1.21
1.09
1.23
1.58
1.86
1.69
0.58
-1.83
-5.62
-10.53
-15.99
-21.16
-25.17
-27.30
-27.12
-24.68
-20.42
-15.10
-9.55
-4.52
-0.51
2.27
3.91
4.71
5.08
5.40
5.93
6.76
7.83
9.01
10.11
11.04
11.71
12.12
12.34
12.41
12.40
12.33
12.19
11.87
11.25
10.20
8.72
6.85
4.78
2.70
0.77
-0.95
-2.49
-3.99
-5.60
-7.52
-9.79
-12.36
-15.01
-17.38
-19.16
-20.24
-20.73
-21.05
-21.72
-23.14
-25.38
-28.04
-30.41
-31.58
-30.80
-27.74
-22.54
-15.80
-8.41
-1.32
4.70
9.19
12.03
13.43
13.70
13.22
12.30
11.19
10.11
9.26
8.81
8.87
9.43
10.38
11.57
12.84
14.13
15.40
16.63
17.71
18.46
18.69
18.25
17.19
15.70
14.14
12.84
12.02
11.67
11.51
11.15
10.09
8.06
5.00
1.18
-2.88
-6.60
-9.46
-11.20
-11.85
-11.75
-11.39
-11.31
-11.89
-13.22
-15.08
-16.91
-18.01
-17.59
-15.07
-10.24
-3.43
4.51
12.33
18.80
22.93
24.33
23.22
20.35
16.64
12.96
9.91
7.78
6.63
6.33
6.73
7.66
8.96
10.50
12.11
13.64
14.97
16.08
16.96
17.69
18.27
18.61
18.51
17.76
16.27
14.10
11.52
8.83
6.32
4.12
2.18
0.32
-1.65
-3.88
-6.41
-9.16
-11.93
-14.52
-16.79
-18.76
-20.54
-22.29
-24.17
-26.20
-28.28
-30.16
-31.41
-31.59
-30.25
-27.13
-22.19
-15.71
-8.31
-0.82
5.90
11.12
14.39
15.66
15.24
13.74
11.91
10.49
9.97
10.47
11.78
13.40
14.80
15.54
15.42
14.47
12.91
11.02
9.08
7.39
6.16
5.51
5.42
5.62
5.71
5.29
4.15
2.38
0.30
-1.65
-3.22
-4.42
-5.56
-7.05
-9.18
-11.99
-15.24
-18.50
-21.39
-23.68
-25.32
-26.46
-27.34
-28.18
-29.20
-30.43
-31.80
-32.97
-33.48
-32.73
-30.20
-25.62
-19.13
-11.35
-3.22
4.16
9.95
13.65
15.31
15.35
14.42
13.10
11.72
10.41
9.14
7.87
6.72
5.91
5.66
6.09
7.13
8.53
10.02
11.32
12.23
12.63
12.38
11.45
9.86
7.80
5.61
3.73
2.56
2.31
2.91
4.06
5.26
5.98
5.78
4.48
2.14
-0.80
-3.79
-6.24
-7.79
-8.42
-8.45
-8.41
-8.86
-10.14
-12.18
-14.51
-16.34
-16.84
-15.39
-11.76
-6.20
0.56
7.58
13.88
18.74
21.85
23.31
23.53
23.09
22.42
21.76
21.10
20.39
19.52
18.54
17.56
16.70
16.02
15.51
15.09
14.73
14.38
14.01
13.53
12.83
11.80
10.37
8.63
6.73
4.89
3.33
2.22
1.62
1.43
1.41
1.17
0.31
-1.47
-4.21
-7.65
-11.25
-14.45
-16.81
-18.25
-18.98
-19.39
-19.94
-20.98
-22.74
-25.16
-27.96
-30.56
-32.11
-31.76
-28.88
-23.46
-16.11
-7.99
-0.43
5.52
9.37
11.26
11.79
11.66
11.47
11.53
11.94
12.66
13.61
14.67
15.73
16.59
17.02
16.81
15.87
14.30
12.36
10.52
9.16
8.57
8.79
9.65
10.81
11.89
12.52
12.44
11.53
9.81
7.49
4.91
2.43
0.33
-1.44
-3.20
-5.51
-8.80
-13.17
-18.13
-22.72
-25.85
-26.72
-25.23
-22.06
-18.44
-15.74
-15.04
-16.75
-20.60
-25.68
-30.75
-34.56
-36.10
-34.82
-30.75
-24.49
-17.02
-9.46
-2.81
2.30
5.71
7.67
8.65
9.21
9.73
10.38
11.09
11.67
11.94
11.83
11.41
10.86
10.32
9.87
9.55
9.34
9.24
9.27
9.41
9.59
9.66
9.49
9.00
8.22
7.31
6.39
5.56
4.79
4.03
3.16
2.17
1.07
-0.10
-1.30
-2.55
-3.86
-5.23
-6.62
-7.95
-9.12
-10.07
-10.81
-11.43
-12.10
-12.96
-14.05
-15.15
-15.86
-15.67
-14.10
-10.95
-6.36
-0.84
4.92
10.22
14.54
17.66
19.58
20.49
20.64
20.32
19.73
19.00
18.20
17.33
16.41
15.49
14.72
14.24
14.22
14.65
15.42
16.29
17.01
17.41
17.42
17.06
16.35
15.25
13.74
11.84
9.69
7.50
5.46
3.63
1.89
0.06
-2.07
-4.50
-7.07
-9.54
-11.61
-13.20
-14.32
-15.09
-15.65
-16.12
-16.72
-17.69
-19.29
-21.69
-24.82
-28.21
-31.03
-32.36
-31.42
-27.93
-22.22
-15.20
-7.97
-1.54
3.51
7.14
9.62
11.37
12.63
13.42
13.59
13.05
11.92
10.48
9.21
8.47
8.42
8.99
9.89
10.77
11.36
11.56
11.40
11.05
10.69
10.35
9.99
9.46
8.63
7.44
5.92
4.18
2.37
0.60
-1.10
-2.74
-4.43
-6.25
-8.27
-10.46
-12.69
-14.75
-16.48
-17.84
-18.91
-19.83
-20.77
-21.76
-22.77
-23.70
-24.47
-24.91
-24.83
-23.90
-21.80
-18.33
-13.58
-7.96
-2.14
3.21
7.58
10.77
12.80
13.84
14.06
13.59
12.52
10.92
8.87
6.44
3.77
1.10
-1.24
-2.84
-3.29
-2.45
-0.41
2.41
5.33
7.68
9.00
9.14
8.29
6.90
5.49
4.47
3.99
3.93
4.00
3.78
2.97
1.42
-0.83
-3.56
-6.45
-9.20
-11.58
-13.60
-15.43
-17.36
-19.59
-22.07
-24.43
-26.02
-26.10
-24.15
-20.03
-14.12
-7.13
0.06
6.68
12.25
16.61
19.88
22.26
23.92
24.84
24.95
24.16
22.49
20.30
18.06
16.33
15.49
15.63
16.52
17.73
18.83
19.50
19.68
19.41
18.78
17.77
16.32
14.31
11.78
8.94
6.17
3.85
2.19
1.13
0.39
-0.46
-1.72
-3.50
-5.69
-8.07
-10.38
-12.50
-14.39
-16.11
-17.69
-19.17
-20.56
-21.86
-23.07
-24.13
-24.87
-25.03
-24.20
-22.02
-18.36
-13.38
-7.60
-1.76
3.42
7.38
9.91
11.12
11.29
10.80
9.96
8.99
7.97
7.00
6.18
5.66
5.60
6.05
6.96
8.16
9.46
10.70
11.86
12.90
13.74
14.24
14.11
13.17
11.40
9.10
6.70
4.62
3.04
1.81
0.59
-1.01
-3.13
-5.66
-8.26
-10.53
-12.23
-13.37
-14.22
-15.17
-16.57
-18.59
-21.07
-23.58
-25.43
-25.90
-24.38
-20.62
-14.77
-7.41
0.51
7.86
13.57
16.96
17.86
16.70
14.29
11.50
8.95
6.84
5.00
3.10
1.05
-0.96
-2.47
-3.01
-2.33
-0.51
2.09
4.94
7.54
9.53
10.63
10.67
9.56
7.35
4.29
1.00
-1.73
-3.05
-2.38
0.29
4.35
8.62
11.59
11.85
8.61
2.09
-6.41
-14.85
-21.33
-24.79
-25.53
-24.80
-24.03
-23.88
-23.76
-22.25
-17.89
-10.11
0.44
12.13
23.01
31.33
35.89
36.07
31.92
24.27
14.82
6.02
0.43
-0.25
4.02
11.30
18.34
21.87
19.96
12.80
2.59
-7.57
-14.97
-18.25
-17.70
-14.73
-10.96
-7.54
-5.03
-3.60
-3.40
-4.81
-8.04
-12.92
-18.55
-23.58
-26.74
-27.49
-26.31
-24.55
-23.73
-24.70
-27.27
-30.24
-32.04
-31.47
-28.21
-22.78
-16.15
-9.29
-2.83
2.89
7.66
11.27
13.56
14.51
14.37
13.58
12.60
11.68
10.82
9.83
8.62
7.29
6.20
5.75
6.21
7.53
9.31
11.06
12.35
13.03
13.26
13.36
13.61
14.03
14.39
14.32
13.43
11.56
8.82
5.57
2.25
-0.72
-3.00
-4.46
-5.11
-5.17
-5.09
-5.40
-6.65
-9.05
-12.34
-15.67
-17.87
-17.91
-15.27
-10.20
-3.58
3.46
9.97
15.34
19.35
21.95
23.13
22.87
21.20
18.27
14.32
9.68
4.63
-0.44
-4.97
-8.27
-9.69
-8.95
-6.38
-2.86
0.44
2.49
2.74
1.18
-1.73
-5.35
-9.08
-12.38
-14.91
-16.44
-16.96
-16.61
-15.73
-14.65
-13.64
-12.84
-12.22
-11.72
-11.23
-10.69
-10.06
-9.29
-8.28
-6.87
-4.87
-2.13
1.46
5.79
10.61
15.59
20.38
24.69
28.44
31.92
35.86
41.17
48.45
57.47
66.87
74.59
78.77
78.75
75.55
71.37
68.61
68.84
72.56
79.59
89.71
102.88
118.80
136.08
151.96
162.99
166.39
161.28
148.97
132.31
114.41
97.48
82.56
69.94
59.62
51.75
46.54
43.96
43.44
43.95
44.36
43.94
42.47
40.30
38.28
37.68
39.86
45.82
55.44
67.05
77.35
82.23
78.34
64.40
41.69
12.95
-19.27
-53.79
-90.53
-129.08
-167.24
-200.79
-225.08
-237.45
-238.65
-232.35
-222.93
-213.05
-202.72
-190.46
-175.43
-159.27
-145.98
-139.95
-143.69
-156.54
-175.18
-195.34
-213.48
-227.78
-237.89
-244.05
-246.23
-244.21
-238.04
-228.62
-217.28
-204.96
-191.33
-174.64
-152.53
-123.33
-87.11
-45.59
-1.32
43.48
87.70
131.10
173.42
213.59
249.52
278.71
299.15
309.99
311.64
305.39
292.90
275.85
255.72
233.82
211.37
189.60
169.62
152.09
136.99
123.55
110.45
96.39
80.80
64.16
47.83
33.43
22.09
13.92
7.79
1.75
-6.24
-17.57
-32.50
-50.14
-68.80
-86.60
-101.92
-113.72
-121.65
-126.07
-127.94
-128.60
-129.35
-130.96
-133.34
-135.28
-134.83
-129.85
-118.69
-101.00
-77.80
-51.31
-24.57
-0.62
18.29
31.39
39.76
45.83
52.60
62.26
75.42
90.90
106.43
119.63
128.96
133.96
135.00
132.51
126.66
117.40
104.97
90.41
75.78
63.84
57.21
57.36
63.49
72.39
79.06
78.08
65.18
38.33
-2.03
-53.32
-111.70
-172.59
-231.09
-282.51
-323.35
-352.01
-368.77
-374.98
-371.93
-359.82
-338.02
-306.08
-264.85
-216.85
-165.31
-113.11
-62.21
-14.00
29.80
66.98
95.44
114.46
125.27
130.71
133.73
135.95
137.40
137.21
134.84
130.70
125.91
121.43
117.43
113.21
107.67
100.28
91.23
81.21
70.93
60.92
51.33
42.25
33.79
26.14
19.55
14.32
10.53
8.08
6.54
5.26
3.54
0.91
-2.78
-7.25
-12.03
-16.70
-21.09
-25.29
-29.42
-33.44
-37.03
-39.76
-41.25
-41.30
-39.69
-35.94
-29.22
-18.65
-4.02
13.74
32.33
48.86
60.89
67.51
69.76
69.98
70.80
73.88
79.43
86.42
93.53
99.78
104.72
108.00
108.73
105.41
96.41
81.01
60.21
36.75
14.22
-4.31
-17.40
-25.51
-30.37
-34.07
-38.34
-44.27
-52.39
-62.88
-75.59
-89.89
-104.61
-118.22
-129.26
-136.65
-139.89
-138.94
-134.04
-125.52
-113.85
-99.88
-84.82
-70.16
-57.15
-46.28
-36.91
-27.30
-15.15
1.59
24.21
52.88
86.85
124.75
164.74
204.59
241.90
274.44
300.77
320.80
335.88
348.14
359.22
368.92
374.67
372.15
357.01
326.95
283.02
229.55
172.79
118.82
71.94
33.88
4.27
-18.39
-35.89
-50.03
-62.82
-76.77
-94.71
-119.20
-151.81
-192.60
-240.24
-292.02
-344.15
-392.09
-431.08
-456.92
-467.04
-461.16
-441.50
-411.92
-376.66
-339.05
-301.03
-263.55
-227.42
-193.74
-163.81
-138.23
-116.36
-96.39
-76.22
-54.67
-32.32
-11.21
5.96
17.26
22.45
23.13
21.68
20.29
19.93
20.18
19.57
16.43
10.06
1.43
-6.80
-11.39
-10.21
-3.80
4.12
8.03
2.95
-12.91
-36.98
-63.25
-84.88
-96.94
-98.12
-90.36
-77.11
-61.51
-45.20
-28.58
-11.78
4.73
19.88
32.41
41.28
46.14
47.11
44.86
40.42
35.12
30.69
29.14
32.36
41.57
56.50
74.77
92.02
103.04
103.76
93.36
75.15
55.57
41.65
38.13
45.71
61.52
81.05
100.45
117.71
132.31
143.97
151.76
154.30
150.73
141.75
129.79
118.11
109.41
104.74
103.40
103.68
103.96
103.29
101.47
98.64
94.72
89.16
81.13
69.71
54.25
34.49
10.60
-16.74
-46.22
-75.86
-103.24
-125.93
-142.04
-150.75
-152.49
-148.74
-141.52
-132.82
-124.11
-116.24
-109.26
-102.64
-95.36
-86.21
-74.17
-58.75
-40.21
-19.52
1.93
22.81
42.18
59.54
74.58
86.84
95.56
99.86
99.12
93.23
82.67
68.25
50.82
31.24
10.48
-10.02
-28.37
-42.47
-50.69
-52.49
-48.63
-41.04
-32.01
-23.46
-16.32
-10.44
-4.97
1.08
8.21
16.19
24.18
31.24
36.72
40.48
42.82
44.18
45.03
45.75
46.87
48.80
51.64
54.66
56.19
54.02
46.37
32.83
14.76
-5.00
-23.18
-37.16
-45.60
-48.52
-46.92
-42.38
-36.57
-31.13
-27.30
-25.78
-26.43
-28.47
-30.77
-32.26
-32.41
-31.28
-29.44
-27.84
-27.48
-29.18
-33.29
-39.60
-47.25
-54.97
-61.27
-64.85
-64.82
-60.80
-52.96
-41.80
-28.14
-12.91
2.90
18.27
32.25
44.11
53.50
60.47
65.52
69.31
72.49
75.39
78.04
80.34
82.28
84.12
86.25
89.02
92.51
96.48
100.48
103.92
106.30
107.10
105.94
102.54
96.91
89.33
80.35
70.58
60.52
50.46
40.51
30.69
21.14
12.12
4.09
-2.44
-7.00
-9.17
-8.60
-5.08
1.34
10.09
19.94
29.18
36.01
39.23
38.61
34.98
29.76
24.05
18.16
11.41
2.70
-8.61
-22.16
-36.62
-50.36
-62.32
-72.41
-81.35
-89.95
-98.49
-106.45
-112.90
-117.10
-119.10
-119.68
-119.92
-120.47
-121.17
-121.21
-119.53
-115.56
-109.52
-102.29
-95.01
-88.41
-82.57
-76.85
-70.39
-62.39
-52.51
-40.91
-28.04
-14.59
-1.35
10.73
20.58
27.21
29.91
28.48
23.38
15.62
6.47
-2.88
-11.49
-18.64
-23.81
-26.53
-26.46
-23.43
-17.61
-9.62
-0.35
9.30
18.57
27.00
34.33
40.32
44.63
46.76
46.11
42.36
35.48
25.90
14.42
2.04
-10.08
-20.94
-29.74
-36.07
-39.90
-41.54
-41.43
-39.84
-36.55
-31.03
-22.67
-11.20
2.86
18.24
33.12
45.77
55.10
60.80
63.35
63.59
62.18
59.40
55.14
49.20
41.80
33.72
26.27
20.92
18.74
20.07
24.37
30.57
37.45
44.03
49.73
54.14
56.81
57.14
54.49
48.51
39.47
28.33
16.39
4.89
-5.59
-15.15
-24.35
-33.75
-43.43
-52.91
-61.47
-68.49
-73.80
-77.61
-80.13
-81.24
-80.44
-77.05
-70.75
-61.95
-51.83
-42.08
-34.37
-29.78
-28.55
-30.01
-32.92
-35.91
-37.99
-38.69
-38.07
-36.39
-33.72
-29.78
-24.10
-16.27
-6.40
4.81
16.27
26.82
35.63
42.32
46.82
49.16
49.35
47.32
43.09
36.96
29.50
21.51
13.77
6.86
1.04
-3.74
-7.71
-11.11
-14.04
-16.45
-18.25
-19.40
-20.05
-20.52
-21.11
-21.94
-22.73
-22.88
-21.71
-18.84
-14.46
-9.27
-4.21
0.05
3.31
5.81
7.94
9.80
11.06
11.22
9.97
7.55
4.88
3.18
3.49
6.20
11.03
17.15
23.63
29.77
35.21
39.84
43.49
45.62
45.41
42.10
35.37
25.72
14.51
3.45
-5.85
-12.58
-16.80
-19.25
-20.79
-22.01
-22.97
-23.32
-22.73
-21.21
-19.20
-17.36
-16.30
-16.24
-16.95
-17.95
-18.64
-18.65
-17.73
-15.68
-12.27
-7.31
-0.89
6.41
13.58
19.36
22.83
23.81
22.89
21.13
19.60
18.82
18.76
18.91
18.73
18.03
17.07
16.38
16.39
17.21
18.52
19.70
20.13
19.41
17.55
14.94
12.24
10.17
9.26
9.65
11.03
12.74
13.98
14.13
12.90
10.30
6.53
1.73
-3.97
-10.42
-17.33
-24.17
-30.25
-35.01
-38.14
-39.81
-40.54
-41.03
-41.92
-43.47
-45.41
-46.91
-46.90
-44.44
-39.28
-32.04
-24.11
-17.19
-12.62
-10.93
-11.80
-14.39
-17.82
-21.69
-26.10
-31.50
-38.17
-45.92
-53.94
-61.09
-66.34
-69.20
-69.93
-69.33
-68.25
-67.07
-65.48
-62.49
-56.93
-47.95
-35.52
-20.58
-4.74
10.14
22.68
32.37
39.74
45.91
52.11
58.86
65.75
71.51
74.60
73.86
69.05
60.97
51.10
41.05
32.04
24.64
18.90
14.61
11.53
9.66
9.16
10.25
13.11
17.75
23.95
31.32
39.24
46.88
53.37
57.85
59.77
58.95
55.60
50.15
43.06
34.73
25.48
15.71
5.99
-2.99
-10.47
-15.81
-18.69
-19.07
-17.29
-13.91
-9.45
-4.38
1.13
7.11
13.75
21.11
29.02
36.93
44.02
49.40
52.32
52.45
49.94
45.33
39.35
32.62
25.47
17.89
9.71
0.74
-9.02
-19.26
-29.41
-38.75
-46.54
-52.15
-55.11
-55.23
-52.67
-47.84
-41.32
-33.61
-25.01
-15.61
-5.42
5.30
15.99
25.72
33.56
38.82
41.28
41.24
39.35
36.33
32.84
29.39
26.25
23.57
21.25
18.98
16.25
12.50
7.33
0.79
-6.45
-13.15
-17.81
-19.07
-16.21
-9.52
-0.31
9.37
17.38
22.21
23.40
21.65
18.35
14.96
12.42
10.89
9.84
8.47
6.07
2.19
-3.31
-10.42
-18.98
-28.68
-38.80
-48.17
-55.35
-58.95
-58.14
-52.98
-44.37
-33.73
-22.63
-12.29
-3.46
3.63
9.17
13.50
17.05
20.19
23.07
25.67
27.79
29.34
30.49
31.80
34.05
37.94
43.76
51.15
59.24
66.87
72.95
76.81
78.30
77.77
75.78
72.83
69.07
64.25
57.92
49.77
39.92
29.00
17.97
7.74
-1.11
-8.39
-14.27
-19.24
-23.98
-29.36
-36.14
-44.78
-55.08
-66.14
-76.62
-85.30
-91.55
-95.41
-97.27
-97.36
-95.34
-90.32
-81.34
-67.98
-50.83
-31.49
-12.16
4.99
18.36
27.33
32.19
33.87
33.50
32.09
30.41
29.01
28.25
28.44
29.68
31.68
33.79
35.12
35.14
34.11
33.26
34.31
38.62
46.24
55.49
63.43
67.03
64.50
56.00
43.51
29.83
17.37
7.49
0.47
-4.06
-6.57
-7.54
-7.51
-7.23
-7.54
-8.95
-11.44
-14.35
-16.89
-18.68
-20.25
-22.82
-27.84
-36.23
-47.93
-61.77
-75.84
-88.05
-96.80
-101.39
-102.15
-100.14
-96.58
-92.16
-86.74
-79.65
-70.16
-58.09
-44.02
-29.17
-14.74
-1.50
10.35
20.95
30.33
38.21
44.06
47.41
48.21
46.92
44.37
41.30
38.17
35.05
31.75
28.13
24.21
20.24
16.52
13.26
10.39
7.64
4.67
1.28
-2.43
-6.01
-8.81
-10.26
-10.17
-8.92
-7.43
-6.90
-8.36
-12.27
-18.16
-24.69
-30.00
-32.21
-30.16
-23.66
-13.60
-1.54
10.87
22.34
32.02
39.33
43.75
44.70
41.89
35.64
27.17
18.33
11.04
6.52
4.81
4.92
5.25
4.38
1.57
-3.12
-9.15
-15.84
-22.63
-29.13
-34.89
-39.21
-41.20
-39.95
-35.00
-26.64
-15.98
-4.58
6.02
14.72
21.17
25.67
29.10
32.49
36.85
42.91
50.99
60.91
71.81
82.18
89.98
93.19
90.43
81.58
67.81
51.24
34.24
18.64
5.43
-5.34
-13.99
-20.89
-26.16
-29.87
-32.29
-34.07
-36.07
-38.89
-42.62
-46.64
-50.05
-51.97
-52.07
-50.61
-48.17
-45.32
-42.28
-38.94
-35.07
-30.61
-25.76
-20.84
-16.03
-11.47
-7.27
-3.68
-1.05
0.55
1.65
3.46
7.59
15.28
26.89
41.85
58.95
77.00
95.20
113.07
130.10
145.38
157.65
165.70
168.83
167.08
161.10
151.62
139.24
124.28
107.16
88.58
69.55
51.16
34.02
18.11
2.89
-12.30
-27.68
-42.78
-56.54
-67.66
-75.10
-78.55
-78.53
-76.25
-73.13
-70.28
-68.10
-66.26
-64.08
-61.05
-57.15
-52.90
-48.91
-45.41
-42.07
-38.10
-32.77
-25.89
-17.95
-9.98
-3.03
2.26
5.83
8.03
9.46
10.68
12.07
13.76
15.66
17.51
18.91
19.49
18.89
16.91
13.42
8.45
2.11
-5.42
-13.87
-22.86
-31.92
-40.49
-47.94
-53.72
-57.44
-59.05
-58.83
-57.32
-55.08
-52.48
-49.60
-46.26
-42.29
-37.80
-33.25
-29.31
-26.50
-24.84
-23.73
-22.13
-19.02
-13.87
-6.89
1.06
8.92
15.83
21.43
25.88
29.54
32.76
35.59
37.86
39.31
39.80
39.38
38.24
36.72
35.11
33.64
32.43
31.49
30.73
29.99
29.11
27.94
26.41
24.52
22.23
19.49
16.16
12.20
7.69
2.93
-1.59
-5.36
-7.99
-9.37
-9.58
-8.83
-7.30
-5.09
-2.25
1.11
4.77
8.40
11.61
14.06
15.52
15.85
15.06
13.19
10.42
6.97
3.12
-0.83
-4.62
-7.92
-10.39
-11.70
-11.57
-9.88
-6.71
-2.37
2.66
7.76
12.31
15.76
17.68
17.87
16.38
13.52
9.73
5.43
0.92
-3.71
-8.39
-12.96
-17.06
-20.19
-21.94
-22.16
-21.12
-19.42
-17.70
-16.41
-15.69
-15.33
-15.13
-14.93
-14.76
-14.66
-14.62
-14.47
-14.05
-13.27
-12.28
-11.43
-11.13
-11.68
-13.13
-15.35
-18.11
-21.14
-24.29
-27.37
-30.26
-32.82
-34.99
-36.77
-38.23
-39.32
-39.88
-39.55
-37.87
-34.48
-29.30
-22.64
-15.20
-7.82
-1.40
3.37
6.10
6.80
5.82
3.81
1.49
-0.47
-1.71
-2.20
-2.09
-1.53
-0.49
1.19
3.59
6.60
9.77
12.50
14.26
14.89
14.56
13.66
12.59
11.49
10.30
8.78
6.75
4.20
1.29
-1.70
-4.40
-6.50
-7.79
-8.19
-7.81
-6.94
-5.98
-5.36
-5.55
-6.86
-9.47
-13.19
-17.50
-21.51
-24.18
-24.63
-22.44
-17.86
-11.70
-5.15
0.71
5.19
8.14
9.77
10.48
10.58
10.29
9.74
9.10
8.57
8.39
8.64
9.22
9.89
10.37
10.47
10.19
9.68
9.12
8.64
8.26
7.87
7.39
6.72
5.86
4.82
3.57
2.09
0.34
-1.68
-3.86
-6.00
-7.84
-9.16
-9.87
-10.06
-9.90
-9.62
-9.45
-9.65
-10.45
-12.04
-14.38
-17.10
-19.41
-20.26
-18.73
-14.43
-7.80
0.07
7.75
14.01
18.26
20.59
21.60
21.93
22.06
22.13
22.08
21.82
21.34
20.77
20.23
19.74
19.12
18.17
16.71
14.76
12.46
10.09
7.84
5.72
3.61
1.29
-1.31
-4.12
-6.90
-9.41
-11.50
-13.25
-14.91
-16.75
-18.90
-21.25
-23.46
-25.09
-25.75
-25.29
-23.93
-22.20
-20.83
-20.41
-21.20
-22.79
-24.26
-24.41
-22.29
-17.55
-10.64
-2.56
5.53
12.79
18.86
23.80
27.81
30.94
33.06
33.94
33.47
31.81
29.42
26.84
24.63
23.16
22.59
22.91
23.95
25.46
27.20
28.94
30.43
31.50
31.97
31.81
31.04
29.84
28.39
26.87
25.28
23.57
21.68
19.61
17.51
15.59
14.01
12.78
11.70
10.49
8.81
6.47
3.40
-0.28
-4.33
-8.38
-12.02
-14.95
-17.05
-18.55
-19.95
-21.81
-24.46
-27.71
-30.83
-32.74
-32.43
-29.39
-23.77
-16.38
-8.37
-0.86
5.35
9.82
12.48
13.47
13.13
11.90
10.34
8.94
8.12
8.03
8.61
9.70
11.09
12.69
14.45
16.34
18.19
19.77
20.78
20.99
20.27
18.59
16.06
12.90
9.38
5.82
2.52
-0.33
-2.68
-4.59
-6.21
-7.65
-8.99
-10.25
-11.46
-12.60
-13.68
-14.68
-15.54
-16.29
-16.97
-17.66
-18.43
-19.30
-20.20
-21.14
-22.13
-23.28
-24.68
-26.21
-27.50
-28.00
-27.07
-24.38
-19.95
-14.22
-7.85
-1.49
4.37
9.48
13.69
16.89
18.93
19.74
19.37
18.16
16.64
15.32
14.54
14.24
14.16
13.98
13.56
13.00
12.61
12.58
12.87
13.13
12.93
12.03
10.53
8.85
7.52
6.81
6.68
6.71
6.46
5.64
4.32
2.86
1.70
1.11
1.09
1.36
1.50
1.15
0.16
-1.42
-3.39
-5.47
-7.48
-9.36
-11.18
-13.05
-15.08
-17.31
-19.69
-22.13
-24.43
-26.28
-27.30
-27.06
-25.24
-21.77
-16.98
-11.52
-6.21
-1.79
1.30
2.96
3.41
3.03
2.22
1.23
0.12
-1.14
-2.65
-4.46
-6.47
-8.38
-9.87
-10.59
-10.37
-9.24
-7.41
-5.21
-2.96
-0.95
0.63
1.62
1.95
1.67
0.96
0.09
-0.68
-1.14
-1.27
-1.15
-0.99
-0.95
-1.18
-1.72
-2.62
-3.88
-5.46
-7.26
-9.11
-10.78
-12.10
-13.02
-13.60
-14.04
-14.56
-15.35
-16.51
-18.02
-19.67
-21.09
-21.73
-20.99
-18.46
-14.04
-8.14
-1.59
4.63
9.68
13.11
14.93
15.44
15.09
14.30
13.42
12.69
12.30
12.36
12.83
13.61
14.54
15.47
16.27
16.85
17.06
16.80
15.99
14.74
13.30
11.97
10.96
10.29
9.75
9.08
8.14
6.99
5.82
4.82
4.08
3.54
3.06
2.54
2.02
1.59
1.37
1.35
1.42
1.34
0.96
0.16
-0.98
-2.35
-3.75
-5.02
-6.06
-6.88
-7.58
-8.40
-9.57
-11.26
-13.34
-15.43
-16.90
-17.12
-15.78
-12.92
-8.98
-4.64
-0.49
3.01
5.59
7.17
7.81
7.67
7.07
6.40
6.05
6.25
6.95
7.95
9.05
10.11
11.19
12.41
13.80
15.31
16.74
17.84
18.49
18.70
18.56
18.20
17.66
16.89
15.77
14.22
12.27
10.04
7.73
5.47
3.32
1.22
-0.97
-3.35
-5.97
-8.77
-11.62
-14.43
-17.07
-19.48
-21.66
-23.71
-25.80
-28.13
-30.81
-33.80
-36.87
-39.62
-41.60
-42.39
-41.69
-39.34
-35.37
-29.98
-23.57
-16.68
-9.94
-3.89
1.07
4.77
7.25
8.68
9.24
9.17
8.70
8.09
7.56
7.32
7.52
8.25
9.57
11.45
13.77
16.27
18.67
20.65
22.03
22.76
22.88
22.52
21.68
20.36
18.54
16.21
13.50
10.58
7.69
5.03
2.79
0.99
-0.40
-1.54
-2.66
-3.97
-5.57
-7.40
-9.28
-10.97
-12.34
-13.35
-14.09
-14.77
-15.61
-16.81
-18.46
-20.52
-22.68
-24.40
-25.00
-23.91
-20.87
-16.07
-10.11
-3.82
2.00
6.81
10.36
12.61
13.66
13.69
12.96
11.80
10.58
9.61
9.10
9.04
9.36
9.93
10.69
11.61
12.71
13.97
15.31
16.59
17.59
18.18
18.22
17.68
16.53
14.84
12.68
10.13
7.28
4.22
1.16
-1.68
-4.10
-6.00
-7.46
-8.64
-9.74
-10.83
-11.85
-12.69
-13.31
-13.78
-14.20
-14.71
-15.36
-16.16
-17.18
-18.56
-20.47
-22.96
-25.75
-28.20
-29.48
-28.77
-25.70
-20.44
-13.78
-6.78
-0.52
4.23
7.19
8.50
8.62
8.03
7.15
6.23
5.42
4.76
4.23
3.87
3.69
3.80
4.32
5.34
6.80
8.48
10.02
11.06
11.39
11.04
10.14
8.91
7.42
5.71
3.77
1.78
0.05
-1.06
-1.35
-0.90
-0.11
0.56
0.71
0.22
-0.80
-2.09
-3.46
-4.77
-5.98
-7.09
-8.04
-8.78
