1545408431.00
64.000000
-0.00
-0.00
-0.00
-0.00
-0.00
-0.00
-0.00
-0.00
-0.00
-0.00
0.00
0.01
0.01
-0.00
-0.03
-0.05
-0.05
0.00
0.13
0.36
0.66
1.01
1.37
1.72
2.06
2.40
2.79
3.24
3.80
4.42
5.06
5.66
6.20
6.68
7.15
7.68
8.31
9.14
10.09
11.04
11.88
12.56
13.14
13.76
14.65
15.96
17.91
20.32
22.90
25.38
27.58
29.57
31.68
34.32
37.81
42.54
48.15
54.10
59.83
64.97
69.58
74.14
79.34
85.71
93.76
103.00
112.62
121.73
129.77
136.75
143.30
150.75
157.77
166.64
177.95
191.79
206.97
220.57
228.25
225.36
208.53
176.87
132.76
80.05
23.07
-34.94
-92.44
-149.16
-205.23
-260.37
-313.74
-363.87
-409.83
-450.91
-486.50
-515.74
-537.23
-549.22
-549.96
-538.37
-514.21
-478.67
-433.88
-382.45
-327.02
-269.84
-212.63
-156.66
-102.95
-52.37
-5.90
35.58
71.43
101.35
125.50
144.38
158.69
169.15
176.37
180.75
182.57
182.07
179.51
175.23
169.66
163.18
156.15
148.81
141.29
133.69
126.05
118.41
110.83
103.35
95.99
88.79
81.79
75.02
68.56
62.45
56.73
51.37
46.36
41.66
37.24
33.12
29.29
25.79
22.57
19.62
16.88
14.32
11.94
9.77
7.87
6.30
5.12
4.29
3.75
3.30
2.79
2.08
1.16
0.15
-0.75
-1.31
-1.43
-1.21
-0.91
-0.88
-1.31
-2.18
-3.22
-4.04
-4.32
-4.04
-3.51
-3.24
-3.61
-4.65
-5.94
-6.83
-6.79
-5.77
-4.45
-3.80
-4.56
-6.73
-9.29
-10.90
-11.02
-10.72
-12.39
-18.11
-27.43
-36.59
-39.47
-30.56
-8.02
24.74
60.37
91.00
111.18
118.98
114.69
99.21
73.51
39.99
4.36
-24.28
-35.86
-24.43
7.86
50.23
87.06
104.51
96.04
64.88
21.54
-21.36
-54.51
-74.37
-82.53
-82.96
-79.24
-73.06
-64.54
-53.69
-41.60
-30.36
-22.76
-19.90
-20.57
-21.67
-20.14
-14.88
-7.77
-3.05
-5.50
-18.26
-41.20
-70.73
-100.17
-121.61
-128.71
-118.82
-92.65
-57.34
-21.83
6.84
25.95
37.62
47.63
61.42
81.64
106.40
130.87
148.17
152.61
142.01
117.58
86.28
56.20
33.65
20.79
15.74
14.78
15.03
15.79
18.29
23.94
32.10
40.24
45.05
44.33
38.35
29.71
21.80
17.21
16.27
16.53
14.57
7.37
-6.19
-24.79
-45.22
-63.97
-78.47
-87.23
-92.02
-95.29
-99.40
-105.91
-115.39
-127.25
-139.44
-148.28
-149.18
-138.28
-114.08
-79.05
-39.26
-2.32
25.64
42.26
49.26
50.83
50.91
51.59
52.72
53.02
51.71
49.21
46.82
45.75
46.27
47.54
48.28
47.24
43.98
39.00
33.42
28.58
25.52
24.67
25.74
27.91
30.14
31.54
31.61
30.37
28.37
26.56
25.90
26.97
29.84
33.88
37.95
40.91
42.03
41.26
39.38
37.48
36.64
37.72
41.43
48.10
57.19
66.56
72.25
69.31
53.51
23.70
-16.93
-61.52
-101.87
-131.49
-147.75
-152.51
-149.24
-141.50
-131.42
-119.76
-106.76
-93.19
-80.70
-71.21
-65.91
-64.59
-65.96
-68.24
-69.91
-70.35
-69.86
-69.20
-69.01
-69.28
-69.18
-67.53
-63.23
-55.79
-45.58
-33.74
-21.77
-11.07
-2.47
3.86
8.27
11.37
13.77
15.92
18.04
20.29
22.94
26.42
31.24
37.90
46.51
56.87
68.40
80.31
91.77
101.96
110.25
116.31
119.98
121.29
120.34
117.32
112.54
106.23
98.71
90.34
81.50
72.55
63.80
55.64
48.37
42.15
37.08
33.17
30.31
28.32
27.01
25.92
24.63
22.69
19.81
15.91
10.94
5.14
-1.21
-7.76
-14.20
-20.33
-26.04
-31.34
-36.28
-40.86
-44.96
-48.33
-50.73
-51.98
-52.01
-50.86
-48.72
-45.68
-41.74
-36.63
-29.92
-21.52
-11.70
-1.12
9.03
17.44
23.06
25.55
25.45
23.81
21.61
19.62
17.84
15.53
11.58
5.16
-3.73
-14.20
-24.73
-34.13
-41.74
-47.72
-53.23
-59.84
-69.30
-83.48
-104.20
-130.20
-159.37
-187.03
-206.43
-210.80
-196.08
-163.35
-119.01
-72.42
-32.28
-3.60
13.65
23.08
29.09
35.01
42.60
53.00
68.71
91.88
122.92
159.88
198.49
233.32
260.17
276.84
283.30
281.09
272.63
260.50
246.89
234.60
222.88
210.50
196.45
180.55
163.13
145.13
127.75
111.79
97.33
83.18
67.76
49.05
28.00
5.45
-17.31
-38.75
-57.70
-73.97
-88.75
-103.67
-120.44
-140.09
-163.04
-188.85
-216.15
-243.73
-271.36
-300.05
-331.42
-367.16
-408.58
-456.67
-511.01
-567.97
-621.55
-664.10
-687.99
-687.33
-659.70
-607.21
-535.78
-452.99
-363.80
-271.16
-176.53
-81.15
13.34
104.98
192.06
273.47
349.07
421.46
492.34
560.90
623.11
673.17
705.61
717.04
706.68
662.63
582.14
472.92
351.23
233.98
132.12
49.45
-14.93
-63.69
-99.70
-123.20
-135.46
-138.22
-134.82
-129.66
-126.41
-127.28
-133.12
-143.85
-156.97
-169.18
-177.61
-179.50
-173.22
-157.41
-131.48
-96.05
-53.16
-4.65
47.90
102.26
155.31
202.77
240.36
264.47
272.65
263.72
232.56
178.68
106.21
23.61
-59.62
-135.06
-197.25
-243.91
-274.98
-291.08
-292.78
-282.95
-263.27
-235.72
-202.06
-164.12
-123.41
-81.20
-37.52
8.12
55.15
102.05
143.34
175.06
196.11
208.84
218.03
229.93
248.82
274.57
303.15
327.69
342.64
345.63
338.30
318.31
288.12
252.65
217.32
185.85
158.75
134.68
111.33
87.02
60.95
35.02
11.70
-7.09
-18.91
-26.37
-33.09
-42.65
-57.96
-81.01
-110.90
-144.46
-176.13
-198.73
-205.91
-192.93
-159.20
-106.53
-43.12
19.91
71.97
106.86
124.74
130.13
130.20
130.26
131.09
127.63
112.49
79.98
29.99
-31.37
-96.34
-158.44
-216.07
-272.08
-330.66
-392.34
-452.22
-501.50
-522.42
-505.87
-455.11
-385.13
-314.50
-256.54
-214.27
-182.90
-155.50
-127.58
-100.05
-76.49
-60.34
-52.72
-52.25
-55.06
-57.00
-54.90
-46.96
-35.32
-21.68
-7.89
4.99
17.19
30.50
47.06
68.85
97.09
131.46
171.33
216.15
265.84
315.98
361.69
396.07
411.20
401.22
365.07
308.35
241.65
176.85
122.78
83.25
56.59
38.52
25.15
14.49
6.34
0.73
-3.21
-7.24
-12.74
-20.07
-28.17
-35.12
-38.90
-38.59
-34.81
-29.43
-24.68
-22.05
-21.92
-23.52
-25.40
-26.19
-25.14
-22.45
-19.09
-16.24
-14.64
-14.44
-15.13
-15.88
-15.93
-14.90
-12.93
-10.52
-8.22
-6.42
-5.16
-4.24
-3.37
-2.29
-0.92
0.68
2.37
4.07
5.76
7.54
9.42
11.45
13.35
14.86
15.89
16.56
17.22
18.31
20.15
22.73
25.63
28.15
29.57
29.47
27.85
25.12
21.89
18.55
14.92
10.32
3.74
-5.75
-18.30
-33.11
-48.68
-63.30
-75.64
-85.20
-92.32
-97.89
-102.92
-108.27
-114.57
-122.20
-130.74
-138.25
-141.36
-135.97
-119.14
-90.64
-54.00
-15.45
18.19
42.34
55.88
60.85
60.76
58.69
56.06
53.11
49.61
45.89
42.74
40.89
40.45
40.94
41.60
41.99
42.46
43.97
47.20
52.14
57.87
62.93
65.94
66.43
64.81
62.75
61.80
62.68
64.68
66.15
65.46
61.83
56.11
50.46
47.83
50.66
60.09
75.66
95.73
117.58
137.72
152.71
156.93
147.95
126.98
98.82
69.43
42.55
16.87
-13.95
-56.77
-114.84
-183.89
-252.49
-306.55
-334.98
-333.33
-303.99
-254.53
-194.82
-134.77
-81.76
-39.97
-10.51
7.84
17.52
20.70
19.08
14.49
8.98
5.30
5.59
10.29
17.75
25.08
29.52
29.57
25.80
20.27
15.69
14.00
15.61
19.41
23.43
25.81
25.54
22.86
18.95
15.36
13.28
13.04
14.15
15.64
16.51
16.20
14.73
12.59
10.48
8.93
8.10
7.88
7.92
7.87
7.51
6.80
5.82
4.76
3.74
2.78
1.89
1.04
0.20
-0.64
-1.53
-2.74
-4.24
-6.07
-8.30
-10.89
-13.76
-16.80
-19.84
-22.85
-25.94
-29.30
-33.23
-37.96
-43.49
-49.59
-55.88
-61.93
-67.60
-73.11
-78.92
-85.67
-93.88
-103.46
-113.79
-123.87
-132.57
-139.18
-143.56
-146.23
-147.85
-148.63
-147.86
-144.01
-135.33
-119.96
-97.00
-67.17
-32.63
3.85
39.60
73.10
104.03
133.08
161.51
190.69
221.70
254.80
288.54
317.94
336.85
339.02
320.79
283.77
235.08
185.20
143.90
116.51
102.33
96.33
92.65
87.72
81.30
75.27
71.45
69.09
65.15
56.05
39.09
13.80
-18.36
-54.67
-92.19
-128.00
-158.98
-181.79
-192.69
-190.23
-175.71
-152.94
-126.88
-101.97
-80.81
-64.14
-51.70
-43.44
-39.45
-39.37
-41.64
-43.28
-40.89
-31.76
-15.07
8.07
34.85
60.94
80.86
89.13
82.18
60.66
30.47
1.28
-17.12
-19.16
-6.05
15.22
35.86
49.71
55.68
56.98
58.07
61.48
66.57
70.51
70.59
66.03
58.14
49.22
40.73
32.43
22.50
8.55
-10.94
-35.82
-64.13
-92.82
-119.08
-141.16
-159.00
-173.89
-187.72
-201.88
-216.80
-231.70
-245.10
-255.14
-260.42
-260.32
-254.98
-245.64
-233.01
-217.51
-199.26
-178.12
-154.13
-127.71
-99.91
-72.28
-46.61
-24.51
-7.21
5.07
12.95
17.91
21.64
25.53
30.20
35.42
40.40
44.36
47.02
48.96
51.61
56.56
64.87
76.48
89.98
103.60
115.63
125.36
133.38
141.52
152.23
168.06
191.16
222.92
263.00
308.17
352.00
384.81
397.82
386.30
351.58
300.96
244.66
191.94
147.99
113.36
85.68
62.32
41.89
24.51
10.64
-0.15
-9.42
-19.12
-30.43
-43.08
-55.59
-65.82
-72.25
-74.64
-74.05
-72.36
-71.36
-72.02
-74.22
-76.87
-78.55
-78.20
-75.64
-71.49
-66.89
-62.93
-60.22
-58.70
-57.77
-56.62
-54.66
-51.73
-48.12
-44.38
-41.03
-38.35
-36.22
-34.44
-32.68
-30.70
-28.44
-25.99
-23.54
-21.26
-19.27
-17.58
-16.15
-14.91
-13.79
-12.74
-11.75
-10.82
-9.95
-9.16
-8.47
-7.91
-7.46
-7.08
-6.71
-6.31
-5.86
-5.37
-4.91
-4.53
-4.27
-4.14
-4.08
-4.01
-3.85
-3.59
-3.25
-2.91
-2.70
-2.68
-2.83
-3.08
-3.26
-3.21
-2.89
-2.36
-1.83
-1.59
-1.81
-2.48
-3.36
-4.04
-4.14
-3.52
-2.37
-1.20
-0.66
-1.13
-2.57
-4.46
-5.95
-6.29
-5.20
-3.08
-0.90
0.22
-0.42
-2.74
-5.81
-8.26
-8.90
-7.41
-4.49
-1.35
0.62
0.70
-1.04
-4.11
-8.00
-12.07
-14.99
-14.52
-8.24
4.84
22.78
40.64
52.25
53.19
43.17
26.29
8.91
-3.67
-9.48
-10.17
-9.04
-8.67
-9.48
-10.17
-9.21
-6.31
-2.65
-0.08
0.21
-1.85
-5.16
-7.92
-8.86
-7.59
-4.78
-1.72
0.28
0.51
-0.89
-3.04
-4.81
-5.36
-4.50
-2.67
-0.74
0.51
0.69
-0.11
-1.34
-2.33
-2.64
-2.16
-1.18
-0.17
0.48
0.59
0.25
-0.25
-0.59
-0.55
-0.18
0.39
0.88
1.12
1.08
0.88
0.75
0.88
1.37
2.12
2.84
3.27
3.23
2.75
2.13
1.77
2.05
3.10
4.65
6.19
7.09
6.99
5.97
4.58
3.62
3.80
5.36
7.89
10.46
12.04
12.03
10.58
8.60
7.26
7.43
9.34
12.27
14.83
15.60
13.35
7.27
-3.09
-17.55
-34.61
-51.16
-62.88
-65.53
-57.49
-40.61
-19.83
-1.23
10.61
14.46
12.30
7.71
3.63
1.10
-0.51
-2.31
-4.72
-7.08
-8.25
-7.54
-5.37
-2.91
-1.53
-2.25
-4.91
-8.58
-11.94
-13.96
-14.32
-13.53
-12.58
-12.55
-13.95
-16.62
-19.81
-22.65
-24.51
-25.38
-25.77
-26.41
-27.94
-30.52
-33.70
-36.73
-38.86
-39.67
-39.14
-37.56
-35.06
-31.51
-26.37
-18.86
-8.39
5.12
20.97
37.74
53.41
66.77
77.21
85.07
90.99
95.84
100.08
103.67
106.47
108.72
110.43
111.42
110.59
106.55
98.06
85.89
73.11
63.13
57.39
53.57
46.05
28.81
-0.89
-40.60
-83.63
-121.95
-150.27
-167.01
-173.01
-169.34
-156.26
-133.99
-104.51
-72.58
-44.52
-25.52
-17.60
-18.95
-25.38
-32.73
-38.29
-41.38
-42.75
-43.40
-43.81
-44.04
-43.81
-42.99
-41.46
-39.10
-35.68
-30.92
-24.59
-16.59
-7.13
3.32
14.09
24.44
33.31
40.59
46.24
50.35
53.21
55.02
55.89
55.87
54.87
52.90
50.14
47.09
43.83
40.67
37.80
35.25
33.08
31.13
29.19
27.22
25.18
23.10
21.12
19.33
17.85
16.69
15.85
15.21
14.74
14.32
13.78
13.13
12.42
11.84
11.60
11.84
12.54
13.62
14.83
15.85
16.60
17.15
17.82
18.93
20.87
23.25
25.60
27.21
27.46
26.13
23.51
20.43
17.87
16.62
16.84
18.04
19.26
19.42
17.78
14.24
9.38
4.25
0.07
-2.08
-1.47
1.76
6.31
9.80
9.39
3.07
-9.26
-25.36
-41.30
-53.03
-57.74
-54.91
-46.05
-33.81
-20.87
-9.12
0.52
7.80
12.65
15.04
14.97
12.51
7.90
1.67
-5.36
-12.11
-17.37
-20.36
-20.90
-19.50
-17.13
-14.76
-12.74
-10.71
-7.69
-2.66
4.66
13.47
21.89
27.66
29.18
26.17
19.98
12.74
7.23
5.01
6.07
8.87
11.15
11.08
8.10
3.17
-1.73
-4.37
-3.21
2.13
10.88
21.10
30.33
36.11
36.82
32.25
23.67
13.12
2.50
-7.44
-17.12
-27.57
-39.47
-52.24
-63.98
-72.10
-74.19
-69.13
-57.45
-41.36
-24.05
-8.71
2.51
9.05
11.85
12.54
12.52
12.40
12.02
11.33
11.10
13.21
19.96
32.76
50.89
71.25
89.20
100.36
102.43
96.22
85.40
74.86
68.80
68.84
73.71
80.00
84.06
83.64
78.90
72.07
66.03
62.93
63.22
65.77
68.79
70.93
71.77
71.73
71.41
70.94
69.78
66.96
61.65
53.88
44.75
36.31
30.94
30.54
35.65
45.02
55.07
61.76
62.18
55.62
43.62
29.35
16.46
7.99
5.79
10.26
21.64
40.49
67.00
99.76
135.45
169.23
195.80
210.52
208.78
188.31
149.99
97.10
34.24
-33.12
-99.30
-159.56
-211.22
-257.74
-302.04
-342.90
-375.64
-395.16
-397.66
-381.25
-346.22
-294.87
-238.83
-186.72
-140.27
-98.45
-63.74
-42.14
-39.35
-57.42
-93.72
-154.21
-236.42
-325.13
-400.32
-448.78
-467.39
-461.02
-439.67
-415.71
-416.46
-456.21
-526.88
-607.49
-681.18
-741.22
-789.08
-830.20
-767.79
-572.61
-304.98
-55.16
131.24
254.32
332.19
384.57
427.66
472.13
506.16
520.33
517.28
507.01
496.51
488.44
483.73
482.08
480.98
462.97
417.03
347.31
268.88
196.07
138.09
99.25
79.40
75.22
73.97
68.15
59.72
55.80
61.04
74.03
89.70
102.08
106.91
99.04
78.13
48.41
15.20
-14.49
-39.05
-59.79
-79.33
-100.13
-124.57
-151.43
-176.08
-192.02
-191.57
-172.28
-137.75
-96.60
-59.08
-34.22
-22.23
-20.04
-22.83
-22.77
-15.70
-1.34
18.07
40.00
61.05
80.27
100.43
120.82
143.00
166.46
189.16
208.95
224.73
237.31
249.83
266.56
268.74
250.30
212.95
164.11
112.05
62.26
17.45
-21.12
-53.33
-79.48
-97.43
-106.85
-110.04
-110.58
-111.70
-114.80
-118.78
-121.12
-118.58
-107.34
-85.87
-55.65
-19.07
22.18
67.27
115.20
163.48
209.97
244.74
260.89
255.86
232.66
197.58
156.01
109.32
48.47
-25.91
-101.88
-160.58
-187.62
-179.95
-146.09
-101.30
-60.37
-31.85
-15.33
-6.43
-0.27
4.71
7.52
6.90
2.93
-1.60
-2.56
4.78
21.74
45.29
68.45
82.62
80.91
60.94
25.63
-17.10
-55.92
-79.52
-82.92
-69.00
-45.45
-20.23
2.57
21.21
38.46
55.67
71.08
80.47
79.63
66.88
43.16
13.85
-16.08
-42.73
-63.72
-78.19
-86.22
-88.72
-91.70
-96.94
-103.79
-111.91
-120.07
-126.36
-129.39
-128.39
-123.61
-106.47
-85.97
-63.99
-41.64
-20.77
-1.51
12.02
15.16
4.21
-22.74
-62.30
-106.71
-146.93
-173.68
-179.65
-162.20
-124.02
-73.17
-20.72
22.63
51.80
66.70
71.18
70.30
67.10
62.47
55.90
47.21
37.13
28.20
22.26
19.58
18.91
17.72
13.64
5.68
-5.56
-18.43
-30.42
-39.64
-45.42
-47.79
-47.58
-45.49
-41.64
-35.43
-25.94
-12.09
6.41
27.96
50.47
71.37
88.33
99.85
105.64
106.51
104.32
101.02
98.09
96.19
94.84
92.91
89.25
83.45
76.05
68.83
63.76
62.30
64.68
69.58
74.57
77.31
77.33
73.85
68.10
62.00
57.39
55.49
56.45
59.54
62.68
62.46
54.66
36.34
7.54
-27.49
-61.15
-85.27
-94.58
-89.13
-73.90
-56.31
-42.20
-33.50
-28.25
-22.97
-15.36
-5.91
2.50
6.43
3.54
-5.99
-19.73
-33.57
-43.13
-44.86
-36.99
-20.30
2.13
25.57
45.18
57.86
63.05
62.44
58.76
54.18
49.17
43.84
37.34
28.60
17.32
4.63
-6.69
-12.98
-11.38
-1.52
13.66
28.70
38.32
40.45
37.52
35.31
39.57
52.88
73.28
95.58
114.14
125.45
128.87
125.30
115.35
98.17
72.09
36.32
-7.71
-56.04
-103.17
-143.64
-173.89
-192.98
-202.67
-206.60
-209.00
-213.41
-221.59
-232.92
-244.71
-253.28
-255.27
-248.94
-234.85
-215.74
-195.73
-178.82
-167.54
-162.18
-160.90
-160.64
-158.22
-150.94
-136.90
-115.22
-86.35
-52.24
-15.77
20.26
53.95
84.33
110.67
131.58
144.68
147.46
138.86
120.60
97.18
74.45
57.65
49.84
51.58
61.21
75.71
91.36
104.36
111.40
110.54
101.73
86.61
67.66
47.07
26.46
6.89
-10.39
-23.58
-30.51
-29.28
-19.08
-0.73
23.18
48.85
71.87
88.22
95.18
92.08
80.47
63.40
44.30
25.91
9.89
-2.97
-12.27
-17.56
-18.74
-16.44
-12.12
-7.56
-3.88
-1.06
1.91
6.20
12.51
20.66
30.14
40.68
52.56
66.04
80.50
93.80
102.75
104.47
97.71
83.49
64.46
43.55
22.87
3.34
-14.79
-31.19
-44.87
-54.45
-58.73
-57.39
-51.29
-42.15
-31.94
-22.31
-14.30
-8.37
-4.64
-3.17
-3.80
-6.33
-10.35
-14.97
-18.89
-21.06
-21.78
-23.18
-28.41
-39.66
-56.15
-73.54
-85.56
-87.03
-76.62
-57.63
-36.11
-17.75
-5.01
3.54
11.50
21.82
34.77
47.70
56.81
58.97
52.92
39.55
21.20
0.81
-18.95
-36.41
-50.73
-61.31
-67.50
-68.54
-63.66
-52.62
-36.41
-17.52
0.70
15.38
25.73
32.96
39.33
46.95
56.57
67.04
75.76
80.16
78.93
73.22
65.12
56.48
48.65
42.80
40.04
41.16
46.54
56.03
69.58
85.52
100.48
111.05
115.78
115.30
111.20
105.28
98.96
94.74
94.46
98.73
107.03
117.96
127.85
130.74
120.96
89.68
40.78
-10.16
-47.63
-69.23
-84.04
-100.80
-123.69
-148.85
-169.68
-179.11
-175.33
-163.22
-150.92
-144.10
-143.93
-147.28
-149.16
-146.07
-137.15
-125.82
-118.36
-120.38
-127.56
-134.02
-134.25
-125.37
-108.09
-85.20
-61.07
-40.12
-24.81
-14.28
-5.98
2.92
14.14
27.38
41.01
52.90
61.64
67.29
71.44
76.07
81.32
86.01
88.19
86.08
78.73
66.42
50.67
33.93
18.71
7.49
2.57
5.88
17.22
33.33
49.27
60.60
65.29
64.05
59.45
54.09
48.86
41.90
30.06
11.25
-13.75
-40.98
-64.86
-80.56
-86.62
-83.84
-75.23
-64.46
-54.30
-45.94
-39.35
-34.07
-30.10
-28.12
-28.91
-32.87
-39.26
-46.01
-50.23
-49.36
-42.41
-30.71
-17.57
-6.64
-0.57
0.38
-1.65
-3.15
-2.00
3.10
11.55
21.20
29.55
34.75
36.27
34.75
31.42
27.40
23.54
20.22
17.47
15.50
14.62
15.10
16.85
19.31
21.49
22.65
22.53
21.65
21.18
22.37
25.79
30.92
36.25
39.96
40.83
38.76
34.79
30.52
27.33
25.80
25.54
25.57
24.87
22.92
19.97
17.02
15.45
16.45
20.53
27.32
35.63
43.81
50.26
53.80
53.89
50.50
43.88
34.25
21.81
6.85
-10.14
-28.24
-46.16
-62.54
-76.25
-86.80
-94.34
-99.43
-102.77
-104.80
-105.62
-105.07
-103.02
-99.44
-94.43
-88.05
-80.26
-70.90
-59.86
-47.41
-34.23
-21.17
-8.99
2.03
12.25
22.44
33.28
45.04
57.35
69.30
79.95
88.79
95.98
102.47
109.57
118.48
129.93
143.79
159.02
173.77
185.75
192.82
193.63
188.07
177.22
163.15
148.29
134.95
125.00
119.70
119.55
124.09
131.49
138.61
141.51
136.57
122.01
99.09
72.32
48.37
34.10
34.38
50.25
78.39
111.76
141.11
157.21
152.97
125.19
76.10
13.86
-48.53
-96.20
-116.70
-103.92
-60.00
5.44
78.72
146.35
198.37
229.78
240.00
231.46
208.11
174.52
135.00
92.84
49.57
4.66
-43.66
-96.87
-154.97
-216.14
-277.28
-335.07
-386.41
-428.13
-456.99
-469.96
-465.23
-443.76
-409.74
-369.68
-330.19
-295.64
-267.06
-242.69
-219.83
-196.88
-174.21
-153.65
-137.05
-124.90
-115.92
-107.65
-97.83
-85.44
-71.21
-57.00
-44.76
-35.63
-29.48
-25.33
-22.04
-19.11
-16.76
-15.63
-16.21
-18.33
-21.19
-23.68
-24.87
-24.31
-22.06
-18.42
-13.71
-8.27
-2.52
2.78
6.61
7.96
6.19
1.48
-5.15
-12.12
-17.93
-21.76
-23.81
-25.19
-27.46
-31.87
-38.52
-45.91
-50.85
-49.04
-36.25
-9.51
31.69
84.96
145.23
205.89
260.49
304.25
335.10
353.61
362.23
363.90
360.87
353.98
343.00
327.43
307.47
284.33
259.78
234.94
209.40
180.93
146.24
102.61
49.36
-11.11
-73.52
-131.01
-177.24
-208.25
-223.44
-225.25
-217.83
-205.51
-191.75
-178.67
-167.35
-158.34
-151.91
-147.86
-145.34
-142.84
-138.60
-131.36
-120.91
-108.26
-95.26
-83.93
-75.74
-71.29
-70.23
-71.49
-73.60
-75.27
-75.68
-74.68
-72.61
-70.06
-67.57
-65.47
-63.83
-62.49
-61.20
-59.70
-57.61
-54.47
-49.84
-43.37
-34.97
-24.89
-13.77
-2.42
8.36
17.93
25.90
31.99
35.99
37.78
37.41
35.23
31.94
28.50
25.79
24.34
24.15
24.78
25.54
25.83
25.33
23.96
21.75
18.63
14.41
8.88
1.95
-6.26
-15.34
-24.64
-33.43
-41.04
-46.98
-51.03
-53.21
-53.74
-52.96
-51.16
-48.55
-45.07
-40.56
-34.72
-27.42
-18.74
-9.09
0.87
10.33
18.53
24.93
29.30
31.69
32.38
31.73
30.17
28.19
26.25
24.76
24.08
24.42
25.81
28.08
30.86
33.71
36.15
37.82
38.48
38.11
36.77
34.57
31.57
27.82
23.36
18.28
12.75
7.03
1.40
-3.87
-8.60
-12.73
-16.41
-19.80
-22.98
-25.80
-27.74
-28.06
-26.04
-21.27
-13.93
-4.77
5.05
14.31
22.02
27.64
31.09
32.55
32.35
30.76
28.05
24.54
20.68
17.09
14.42
13.20
13.60
15.38
17.97
20.67
22.88
24.23
24.63
24.20
23.09
21.39
19.13
16.29
12.87
9.03
5.01
1.24
-1.93
-4.31
-6.01
-7.34
-8.76
-10.66
-13.22
-16.41
-19.98
-23.49
-26.40
-28.03
-27.72
-24.99
-19.75
-12.38
-3.76
5.02
12.97
19.46
24.31
27.72
29.97
31.32
31.93
31.92
31.52
31.10
31.04
31.63
32.84
34.35
35.67
36.32
36.10
35.07
33.51
31.69
29.71
27.45
24.63
21.03
16.63
11.74
6.87
2.56
-0.85
-3.35
-5.26
-7.15
-9.56
-12.88
-17.12
-22.04
-27.11
-31.66
-34.94
-36.25
-35.05
-31.11
-24.64
-16.34
-7.23
1.55
9.05
14.74
18.54
20.68
21.50
21.33
20.40
19.00
17.50
16.37
16.04
16.70
18.17
19.90
21.25
21.68
21.06
19.62
17.87
16.29
15.12
14.18
13.09
11.42
8.96
5.86
2.55
-0.47
-2.84
-4.54
-5.86
-7.22
-9.03
-11.55
-14.83
-18.77
-23.07
-27.30
-30.86
-33.10
-33.35
-31.21
-26.63
-19.99
-12.03
-3.70
4.08
10.57
15.33
18.28
19.60
19.67
18.99
18.02
17.18
16.76
16.97
17.88
19.42
21.41
23.52
25.34
26.52
26.81
26.15
24.66
22.57
20.18
17.68
15.14
12.54
9.79
6.89
3.93
1.10
-1.39
-3.40
-4.95
-6.23
-7.53
-9.17
-11.46
-14.60
-18.56
-23.08
-27.64
-31.44
-33.64
-33.49
-30.64
-25.30
-18.15
-10.17
-2.40
4.37
9.71
13.52
15.87
16.91
16.77
15.71
14.13
12.55
11.51
11.34
12.07
13.43
15.00
16.36
17.26
17.58
17.35
16.68
15.67
14.41
12.92
11.19
9.13
6.67
3.81
0.69
-2.46
-5.39
-7.92
-10.08
-12.07
-14.17
-16.65
-19.68
-23.29
-27.33
-31.44
-35.01
-37.33
-37.74
-35.83
-31.62
-25.60
-18.53
-11.24
-4.46
1.40
6.12
9.67
12.05
13.39
13.83
13.64
13.19
12.84
12.85
13.34
14.19
15.11
15.81
16.00
15.56
14.53
13.09
11.43
9.75
8.16
6.65
5.18
3.60
1.77
-0.46
-3.11
-6.12
-9.35
-12.56
-15.58
-18.31
-20.85
-23.42
-26.33
-29.88
-34.14
-38.86
-43.40
-46.85
-48.24
-46.96
-42.92
-36.66
-29.18
-21.58
-14.71
-9.04
-4.73
-1.67
0.22
0.96
0.51
-1.10
-3.67
-6.79
-10.01
-13.00
-15.60
-17.81
-19.66
-21.14
-22.01
-21.90
-20.40
-17.21
-12.27
-5.81
1.72
9.74
17.58
24.59
30.25
34.17
36.16
36.31
34.87
32.20
28.69
24.62
20.11
15.22
9.92
4.23
-1.71
-7.47
-12.47
-15.87
-16.88
-15.01
-10.39
-3.74
3.78
10.92
16.72
20.80
23.26
24.50
24.95
24.85
24.25
23.14
21.61
19.94
18.57
17.91
18.17
19.22
20.57
21.61
21.90
21.31
20.06
18.52
17.01
15.59
14.09
12.27
10.02
7.39
4.59
1.79
-0.92
-3.55
-6.17
-8.79
-11.36
-13.83
-16.25
-18.77
-21.62
-24.99
-28.90
-33.16
-37.19
-40.17
-41.16
-39.47
-34.87
-27.83
-19.37
-10.76
-3.14
2.89
7.22
10.13
12.00
13.08
13.56
13.54
13.28
13.12
13.46
14.51
16.24
18.35
20.36
21.84
22.56
22.49
21.80
20.68
19.29
17.69
15.91
13.89
11.62
9.13
6.45
3.65
0.81
-1.99
-4.65
-7.14
-9.51
-11.89
-14.45
-17.36
-20.75
-24.68
-29.05
-33.65
-38.02
-41.44
-43.10
-42.24
-38.52
-32.17
-23.99
-15.15
-6.77
0.37
6.00
10.22
13.32
15.54
17.03
17.86
18.12
17.98
17.75
17.74
18.15
19.06
20.32
21.64
22.66
23.11
22.88
21.99
20.60
18.89
16.93
14.78
12.47
10.09
7.75
5.55
3.51
1.50
-0.62
-2.99
-5.64
-8.48
-11.38
-14.22
-16.96
-19.74
-22.76
-26.25
-30.28
-34.60
-38.58
-41.32
-41.85
-39.53
-34.32
-26.82
-18.12
-9.42
-1.68
4.60
9.31
12.62
14.76
15.91
16.23
15.93
15.35
14.90
14.98
15.81
17.34
19.26
21.09
22.37
22.83
22.44
21.39
19.95
18.33
16.62
14.81
12.88
10.83
8.68
6.45
4.10
1.55
-1.26
-4.30
-7.48
-10.60
-13.53
-16.23
-18.81
-21.51
-24.55
-28.04
-31.86
-35.52
-38.31
-39.35
-37.99
-33.93
-27.48
-19.39
-10.72
-2.45
4.65
10.19
14.06
16.39
17.41
17.41
16.77
15.94
15.34
15.27
15.85
16.94
18.20
19.24
19.70
19.40
18.43
16.98
15.32
13.64
12.03
10.47
8.85
7.05
4.92
2.39
-0.51
-3.60
-6.57
-9.14
-11.20
-12.91
-14.71
-17.12
-20.57
-25.19
-30.68
-36.34
-41.28
-44.51
-45.17
-42.69
-36.99
-28.54
-18.33
-7.73
1.89
9.44
14.40
16.82
17.20
16.20
14.50
12.61
10.87
9.48
8.66
8.60
9.48
11.34
14.02
17.12
20.09
22.37
23.62
23.77
23.01
21.65
19.91
17.81
15.12
11.58
7.03
1.66
-4.06
-9.45
-13.96
-17.27
-19.52
-21.14
-22.63
-24.42
-26.73
-29.54
-32.64
-35.59
-37.81
-38.61
-37.30
-33.54
-27.46
-19.70
-11.25
-3.10
4.04
9.88
14.41
17.79
20.12
21.50
22.08
22.16
22.14
22.46
23.37
24.87
26.67
28.32
29.38
29.51
28.67
26.97
24.76
22.38
20.12
18.07
16.15
14.22
12.13
9.83
7.33
4.70
1.98
-0.83
-3.73
-6.66
-9.47
-12.02
-14.30
-16.51
-19.03
-22.16
-25.95
-29.95
-33.29
-34.87
-33.82
-29.77
-23.10
-14.79
-6.11
1.79
8.21
12.97
16.30
18.60
20.21
21.32
22.00
22.39
22.73
23.32
24.47
26.22
28.31
30.23
31.35
31.21
29.70
27.06
23.81
20.52
17.66
15.37
13.60
12.08
10.50
8.68
6.49
4.03
1.45
-1.08
-3.46
-5.68
-7.85
-10.10
-12.64
-15.67
-19.29
-23.48
-27.91
-31.97
-34.77
-35.44
-33.37
-28.45
-21.20
-12.55
-3.59
4.73
11.78
17.29
21.26
23.76
24.96
25.01
24.13
22.71
21.24
20.19
19.88
20.32
21.17
21.85
21.83
20.85
19.04
16.83
14.71
12.95
11.51
10.08
8.27
5.84
2.76
-0.81
-4.62
-8.40
-11.93
-15.08
-17.79
-20.14
-22.36
-24.81
-27.86
-31.69
-36.18
-40.79
-44.65
-46.76
-46.28
-42.81
-36.54
-28.21
-18.95
-9.89
-1.88
4.65
9.71
13.49
16.23
18.07
19.13
19.66
20.09
20.95
22.59
24.99
27.62
29.66
30.34
29.23
26.45
22.51
18.10
13.79
9.88
6.38
3.15
-0.00
-3.17
-6.33
-9.38
-12.14
-14.43
-16.16
-17.42
-18.45
-19.64
-21.40
-24.06
-27.77
-32.39
-37.40
-41.95
-44.90
-45.21
-42.19
-35.81
-26.77
-16.28
-5.67
3.99
12.11
18.52
23.28
26.47
28.09
28.24
27.17
25.36
23.38
21.80
20.95
20.91
21.46
22.27
22.95
23.21
22.86
21.87
20.42
18.76
17.13
15.64
14.12
12.27
9.76
6.43
2.44
-1.84
-5.95
-9.63
-12.86
-15.89
-19.07
-22.64
-26.64
-30.94
-35.27
-39.23
-42.25
-43.64
-42.71
-38.99
-32.48
-23.75
-13.86
-4.04
4.70
11.75
16.99
20.57
22.73
23.68
23.59
22.67
21.29
19.92
19.02
18.89
19.53
20.61
21.62
22.06
21.56
20.06
17.70
14.76
11.55
8.33
5.20
2.14
-0.99
-4.32
-7.92
-11.75
-15.63
-19.40
-22.95
-26.32
-29.71
-33.42
-37.80
-43.18
-49.70
-57.29
-65.54
-73.62
-80.34
-84.35
-84.46
-80.09
-71.30
-58.91
-44.14
-28.28
-12.45
2.57
16.22
28.13
37.98
45.63
51.10
54.66
56.76
57.95
58.63
59.05
59.26
59.19
58.68
57.62
55.95
53.65
50.77
47.35
43.44
39.13
34.49
29.59
24.50
19.29
14.12
9.13
4.45
0.18
-3.68
-7.24
-10.68
-14.24
-18.14
-22.56
-27.48
-32.65
-37.44
-40.95
-42.29
-40.74
-36.07
-28.67
-19.46
-9.65
-0.43
7.42
13.50
17.81
20.62
22.20
22.87
22.91
22.66
22.46
22.67
23.48
24.88
26.65
28.34
29.50
29.75
28.91
27.04
24.38
21.26
17.98
14.75
11.65
8.65
5.71
2.78
-0.15
-3.02
-5.75
-8.24
-10.47
-12.49
-14.49
-16.69
-19.31
-22.48
-26.15
-30.14
-34.05
-37.37
-39.44
-39.62
-37.42
-32.75
-26.03
-18.10
-10.08
-2.96
2.67
6.67
9.22
10.63
11.15
10.99
10.37
9.64
9.18
9.33
10.24
11.77
13.59
15.39
16.90
18.04
18.80
19.21
19.28
18.98
18.29
17.09
15.32
12.84
9.66
5.90
1.88
-2.03
-5.54
-8.55
-11.20
-13.80
-16.67
-19.94
-23.57
-27.33
-30.78
-33.44
-34.80
-34.36
-31.81
-27.19
-20.82
-13.42
-5.87
0.95
6.32
9.87
11.60
11.75
10.79
9.26
7.71
6.56
6.08
6.37
7.30
8.67
10.16
11.45
12.27
12.42
11.81
10.51
8.75
6.81
4.94
3.27
1.74
0.11
-1.85
-4.29
-7.11
-10.02
-12.71
-15.01
-17.00
-18.98
-21.42
-24.75
-29.11
-34.28
-39.49
-43.61
-45.42
-44.04
-39.19
-31.40
-21.84
-11.82
-2.54
5.28
11.38
15.82
18.79
20.47
21.04
20.73
19.90
18.98
18.43
18.51
19.26
20.42
21.51
22.05
21.74
20.61
18.89
16.95
15.06
13.23
11.31
9.05
6.24
2.84
-1.00
-4.99
-8.81
-12.19
-15.01
-17.25
-19.10
-20.83
-22.84
-25.44
-28.70
-32.37
-35.73
-37.81
-37.62
-34.59
-28.70
-20.68
-11.65
-2.87
4.71
10.64
14.92
17.79
19.55
20.43
20.57
20.21
19.67
19.32
19.47
20.18
21.30
22.46
23.34
23.67
23.40
22.59
21.37
19.91
18.31
16.63
14.81
12.80
10.50
7.88
4.99
1.92
-1.19
-4.25
-7.16
-9.98
-12.81
-15.83
-19.22
-23.08
-27.26
-31.32
-34.51
-35.90
-34.74
-30.68
-24.00
-15.46
-6.17
2.78
10.52
16.54
20.66
23.03
23.91
23.66
22.67
21.32
19.94
18.80
18.04
17.67
17.60
17.61
17.50
17.04
16.18
14.98
13.55
12.10
10.70
9.29
7.69
5.65
3.01
-0.23
-3.84
-7.51
-10.91
-13.92
-16.66
-19.41
-22.49
-26.07
-30.07
-34.05
-37.35
-39.16
-38.79
-35.90
-30.60
-23.50
-15.49
-7.48
-0.22
5.84
10.55
13.89
15.93
16.87
16.94
16.53
16.05
15.85
16.07
16.65
17.33
17.82
17.94
17.62
16.97
16.19
15.44
14.76
14.06
13.06
11.43
8.98
5.66
1.65
-2.67
-6.94
-10.86
-14.28
-17.28
-20.11
-23.11
-26.60
-30.67
-35.01
-38.84
-41.10
-40.74
-37.15
-30.49
-21.62
-11.83
-2.40
5.75
12.21
16.98
20.25
22.17
22.94
22.77
22.04
21.27
20.99
21.55
22.95
24.85
26.65
27.70
27.61
26.25
23.86
20.87
17.73
14.70
11.83
9.01
6.10
3.03
-0.14
-3.30
-6.29
-9.07
-11.59
-13.92
-16.19
-18.59
-21.49
-25.17
-29.77
-34.92
-39.75
-43.02
-43.54
-40.66
-34.46
-25.78
-15.86
-5.93
3.13
10.84
17.05
21.78
25.05
26.92
27.54
27.23
26.47
25.84
25.84
26.68
28.24
30.07
31.58
32.16
31.52
29.71
27.04
24.04
21.15
18.56
16.18
13.70
10.73
7.11
2.90
-1.61
-6.09
-10.29
-14.19
-17.96
-21.76
-25.72
-29.84
-34.13
-38.54
-42.97
-46.97
-49.83
-50.55
-48.21
-42.35
-33.34
-22.31
-10.84
-0.39
8.11
14.43
18.82
21.78
23.68
24.71
24.90
24.38
23.51
22.76
22.58
23.18
24.40
25.76
26.73
26.83
25.92
24.10
21.72
19.13
16.59
14.14
11.63
8.87
5.71
2.13
-1.69
-5.48
-8.93
-11.83
-14.19
-16.26
-18.36
-20.79
-23.70
-27.10
-30.89
-34.84
-38.58
-41.57
-43.07
-42.27
-38.54
-31.78
-22.56
-12.10
-1.85
6.91
13.51
17.88
20.49
21.94
22.72
23.17
23.38
23.47
23.58
23.92
24.65
25.75
26.99
27.94
28.16
27.36
25.55
23.04
20.27
17.62
15.23
12.95
10.47
7.47
3.83
-0.30
-4.53
-8.41
-11.65
-14.15
-16.11
-17.86
-19.73
-21.99
-24.76
-28.02
-31.68
-35.40
-38.67
-40.66
-40.53
-37.66
-31.98
-24.08
-14.98
-5.85
2.33
9.07
14.24
17.99
20.53
22.05
22.73
22.82
22.69
22.74
23.33
24.63
26.50
28.55
30.20
30.85
30.17
28.12
25.00
21.30
17.49
13.89
10.59
7.52
4.50
1.46
-1.58
-4.53
-7.30
-9.85
-12.30
-14.78
-17.47
-20.49
-23.92
-27.86
-32.33
-37.21
-42.05
-46.03
-48.09
-47.22
-42.90
-35.30
-25.35
-14.43
-3.93
5.02
11.81
16.33
18.73
19.35
18.50
16.49
13.73
10.73
8.01
6.12
5.38
5.78
6.91
8.17
8.98
9.04
8.37
7.32
6.26
5.38
4.59
3.55
2.00
-0.13
-2.64
-5.07
-7.06
-8.43
-9.33
-10.16
-11.30
-12.97
-15.08
-17.47
-20.01
-22.73
-25.68
-28.72
-31.20
-32.02
-29.99
-24.36
-15.35
-4.08
7.68
18.20
26.29
31.53
34.09
34.34
32.65
29.36
24.95
20.12
15.81
12.89
11.92
12.91
15.35
18.41
21.30
23.47
24.80
25.39
25.49
25.19
24.37
22.72
19.96
16.06
11.23
5.91
0.54
-4.58
-9.36
-13.81
-17.95
-21.74
-25.06
-27.98
-30.70
-33.53
-36.74
-40.25
-43.48
-45.50
-45.26
-42.05
-35.79
-27.13
-17.20
-7.30
1.54
8.68
13.94
17.39
19.16
19.42
18.38
16.41
14.06
11.96
10.70
10.59
11.55
13.18
14.86
16.04
16.36
15.73
14.30
12.40
10.27
8.05
5.75
3.27
0.48
-2.65
-6.00
-9.33
-12.40
-15.04
-17.32
-19.42
-21.62
-24.20
-27.34
-31.08
-35.39
-39.92
-44.09
-46.99
-47.58
-45.02
-39.12
-30.41
-20.08
-9.52
0.14
8.29
14.84
19.92
23.64
25.97
26.92
26.71
25.88
25.15
25.11
25.99
27.45
28.83
29.37
28.59
26.45
23.31
19.77
16.35
13.34
10.70
8.20
5.63
2.93
0.25
-2.22
-4.31
-6.12
-7.91
-10.02
-12.70
-15.99
-19.81
-24.03
-28.54
-33.08
-37.16
-40.04
-40.82
-38.80
-33.76
-26.16
-16.99
-7.44
1.42
8.91
14.74
18.93
21.63
23.02
23.34
22.91
22.14
21.54
21.48
22.14
23.37
24.76
25.78
26.02
25.28
23.65
21.37
18.67
15.68
12.38
8.72
4.69
0.48
-3.60
-7.20
-10.05
-12.20
-13.99
-15.97
-18.73
-22.64
-27.61
-33.04
-37.93
-41.11
-41.65
-39.05
-33.44
-25.52
-16.35
-7.08
1.31
8.16
13.19
16.33
17.72
17.63
16.46
14.76
13.16
12.26
12.39
13.60
15.53
17.64
19.36
20.27
20.24
19.37
17.81
15.67
12.97
9.64
5.70
1.31
-3.19
-7.34
-10.79
-13.48
-15.64
-17.75
-20.33
-23.75
-28.12
-33.13
-38.13
-42.21
-44.41
-43.98
-40.49
-34.13
-25.56
-15.82
-6.01
2.84
10.02
15.13
18.06
19.02
18.52
17.27
16.05
15.52
15.98
17.41
19.40
21.43
23.00
23.82
23.86
23.24
22.11
20.53
18.53
16.01
12.91
9.28
5.25
1.04
-3.11
-6.99
-10.43
-13.33
-15.71
-17.80
-19.95
-22.63
-26.15
-30.40
-34.71
-37.99
-39.00
-36.82
-31.27
-22.98
-13.18
-3.31
5.45
12.47
17.66
21.25
23.57
24.83
25.21
24.93
24.31
23.81
23.83
24.61
26.04
27.68
28.95
29.37
28.71
26.98
24.39
21.18
17.48
13.30
8.57
3.33
-2.18
-7.56
-12.41
-16.48
-19.77
-22.58
-25.32
-28.43
-32.15
-36.48
-41.04
-45.09
-47.62
-47.58
-44.25
-37.50
-27.94
-16.72
-5.30
5.10
13.64
20.02
24.29
26.71
27.67
27.62
27.00
26.31
25.97
26.24
27.15
28.45
29.69
30.43
30.38
29.47
27.90
25.94
23.81
21.54
18.97
15.90
12.21
8.00
3.55
-0.79
-4.71
-8.14
-11.15
-14.02
-17.05
-20.52
-24.59
-29.21
-34.02
-38.42
-41.53
-42.42
-40.39
-35.18
-27.15
-17.23
-6.66
3.33
11.81
18.34
22.93
25.85
27.49
28.23
28.42
28.42
28.62
29.33
30.66
32.41
34.09
35.07
34.87
33.33
30.63
27.22
23.60
20.09
16.74
13.41
9.88
6.04
1.94
-2.21
-6.09
-9.46
-12.27
-14.73
-17.27
-20.38
-24.44
-29.51
-35.20
-40.74
-45.02
-46.93
-45.61
-40.73
-32.64
-22.28
-10.96
0.01
9.60
17.24
22.81
26.46
28.43
28.99
28.43
27.16
25.67
24.49
23.96
24.12
24.76
25.43
25.73
25.41
24.43
22.84
20.73
18.12
14.91
11.06
6.65
1.88
-2.89
-7.27
-11.04
-14.11
-16.68
-19.13
-21.90
-25.44
-29.97
-35.40
-41.23
-46.53
-50.09
-50.73
-47.69
-40.97
-31.39
-20.28
-9.11
1.02
9.53
16.32
21.47
24.94
26.66
26.62
25.14
22.98
21.07
20.17
20.53
21.76
23.10
23.85
23.66
22.62
21.15
19.57
17.98
16.12
13.65
10.35
6.33
1.92
-2.42
-6.33
-9.62
-12.36
-14.69
-16.91
-19.36
-22.43
-26.46
-31.56
-37.43
-43.26
-47.91
-50.13
-49.02
-44.33
-36.57
-26.82
-16.42
-6.58
1.88
8.58
13.48
16.67
18.31
18.55
17.71
16.33
15.09
14.63
15.28
16.83
18.55
19.48
18.78
16.12
11.78
6.52
1.25
-3.35
-7.05
-10.05
-12.79
-15.59
-18.51
-21.32
-23.66
-25.20
-25.85
-25.73
-25.14
-24.49
-24.25
-24.93
-26.90
-30.24
-34.44
-38.47
-40.98
-40.75
-37.22
-30.77
-22.50
-13.85
-5.97
0.65
6.19
11.29
16.58
22.34
28.36
34.22
39.51
44.14
48.41
52.75
57.42
62.18
66.29
68.74
68.81
66.35
61.96
56.62
51.27
46.37
41.71
36.64
30.46
22.91
14.31
5.50
-2.56
-9.23
-14.48
-18.85
-23.15
-28.12
-34.05
-40.74
-47.54
-53.52
-57.69
-59.19
-57.45
-52.29
-44.05
-33.63
-22.24
-11.23
-1.78
5.39
10.00
12.11
12.03
10.15
7.01
3.16
-0.84
-4.53
-7.69
-10.40
-12.94
-15.67
-18.97
-23.26
-29.16
-37.37
-48.46
-62.43
-78.30
-94.28
-108.24
-118.54
-124.65
-127.12
-127.08
-125.40
-122.27
-117.34
-110.23
-101.03
-90.46
-79.38
-68.24
-56.80
-44.34
-30.29
-14.83
0.85
15.03
26.31
34.36
40.27
46.08
53.79
64.46
77.72
92.13
105.97
118.19
128.82
138.77
149.18
160.75
173.43
186.48
198.79
209.21
216.51
219.54
217.26
209.20
195.73
178.21
158.69
139.16
120.89
104.00
87.62
70.41
51.24
29.68
6.13
-18.28
-42.05
-63.44
-80.79
-92.72
-98.44
-97.96
-92.23
-83.02
-72.41
-62.31
-54.03
-48.10
-44.33
-42.12
-40.75
-39.53
-37.98
-35.82
-32.94
-29.45
-25.64
-21.94
-18.76
-16.32
-14.60
-13.32
-12.19
-11.07
-10.15
-9.93
-10.91
-13.41
-17.25
-21.82
-26.32
-30.05
-32.73
-34.48
-35.74
-37.07
-38.95
-41.65
-45.23
-49.46
-53.67
-56.83
-57.70
-55.15
-48.71
-38.72
-26.44
-13.60
-1.89
7.62
14.60
19.29
22.29
24.16
25.33
26.14
26.90
27.94
29.52
31.65
34.03
36.15
37.37
37.22
35.54
32.57
28.87
25.13
21.79
18.93
16.17
12.90
8.65
3.38
-2.46
-8.18
-13.18
-17.35
-21.13
-25.24
-30.38
-36.75
-43.86
-50.65
-55.67
-57.50
-55.19
-48.56
-38.32
-25.92
-13.10
-1.36
8.39
16.02
21.92
26.62
30.46
33.42
35.36
36.11
35.79
34.75
33.48
32.39
31.66
31.22
30.84
30.23
29.25
27.88
26.25
24.48
22.58
20.35
17.46
13.59
8.61
2.77
-3.42
-9.25
-14.20
-18.06
-21.09
-23.83
-26.89
-30.81
-35.80
-41.75
-48.14
-54.07
-58.35
-59.77
-57.42
-51.00
-41.01
-28.64
-15.52
-3.18
7.27
15.43
21.43
25.74
28.79
30.83
31.98
32.33
32.13
31.84
31.94
32.75
34.24
35.96
37.26
37.59
36.67
34.68
32.06
29.27
26.58
23.92
21.03
17.61
13.43
8.48
2.87
-3.30
-9.89
-16.70
-23.50
-30.02
-36.13
-41.90
-47.50
-53.00
-58.11
-62.01
-63.48
-61.45
-55.42
-45.78
-33.69
-20.71
-8.26
2.63
11.44
18.02
22.38
24.61
25.01
24.09
22.60
21.33
20.90
21.58
23.19
25.18
26.88
27.75
27.47
26.09
23.82
20.97
17.82
14.55
11.20
7.75
4.17
0.46
-3.27
-6.86
-10.13
-12.95
-15.37
-17.60
-20.06
-23.26
-27.61
-33.17
-39.45
-45.39
-49.48
-50.27
-46.79
-38.97
-27.72
-14.64
-1.51
10.15
19.45
26.08
30.17
32.00
31.94
30.40
27.97
25.35
23.27
22.23
22.42
23.58
25.21
26.83
28.04
28.70
28.74
28.07
26.48
23.75
19.75
14.61
8.81
2.91
-2.48
-7.03
-10.70
-13.79
-16.75
-20.13
-24.31
-29.53
-35.65
-42.17
-48.15
-52.34
-53.47
-50.65
-43.75
-33.55
-21.51
-9.46
1.04
9.07
14.43
17.55
18.98
19.24
18.62
17.31
15.53
13.69
12.36
12.00
12.88
14.82
17.33
19.65
21.11
21.21
19.77
16.88
12.73
7.67
2.02
-3.86
-9.69
-15.20
-20.26
-24.88
-29.29
-33.87
-38.94
-44.56
-50.32
-55.28
-58.12
-57.60
-52.95
-44.15
-32.09
-18.20
-4.16
8.50
18.67
25.76
29.63
30.49
28.87
25.44
21.09
16.67
12.93
10.38
9.25
9.47
10.77
12.78
15.04
17.15
18.64
19.09
18.19
15.79
12.04
7.31
2.14
-3.02
-7.82
-12.20
-16.34
-20.58
-25.34
-30.92
-37.36
-44.24
-50.62
-55.17
-56.55
-53.82
-46.77
-36.10
-23.27
-9.99
2.13
12.04
19.33
24.12
26.86
28.09
28.27
27.82
27.10
26.36
25.83
25.59
25.64
25.92
26.29
26.52
26.29
25.27
23.19
19.96
15.75
10.96
6.06
1.47
-2.62
-6.26
-9.65
-13.08
-16.82
-21.12
-26.12
-31.77
-37.62
-42.78
-46.01
-46.00
-41.93
-33.75
-22.39
-9.46
3.19
14.06
22.30
27.78
30.88
32.13
32.08
31.13
29.60
27.85
26.25
25.20
25.00
25.78
27.39
29.44
31.39
32.70
33.05
32.37
30.93
29.15
27.53
26.46
26.13
26.56
27.56
28.80
29.83
30.10
29.28
27.30
24.60
22.17
21.29
23.25
28.88
38.25
50.63
64.66
78.63
90.90
100.20
105.76
107.22
104.34
96.82
84.30
66.67
44.52
19.41
-6.28
-29.93
-49.67
-65.01
-76.82
-86.78
-96.51
-106.79
-117.53
-128.06
-137.79
-146.33
-153.33
-158.09
-159.44
-156.28
-148.33
-136.65
-123.59
-111.94
-103.73
-99.38
-97.61
-96.11
-92.58
-85.55
-74.73
-60.73
-44.65
-27.64
-10.71
5.25
19.52
31.52
40.94
47.67
51.95
54.22
55.09
55.26
55.31
55.65
56.40
57.46
58.50
59.08
58.83
57.41
54.66
50.57
45.29
39.01
32.04
24.67
17.21
9.97
3.26
-2.75
-8.06
-12.97
-17.99
-23.66
-30.27
-37.61
-44.86
-50.67
-53.53
-52.31
-46.62
-37.04
-24.96
-12.16
-0.22
9.77
17.38
22.66
25.92
27.46
27.63
26.86
25.73
24.93
25.02
26.26
28.43
30.94
33.05
34.16
34.06
32.89
31.02
28.72
26.04
22.86
18.92
14.19
8.92
3.60
-1.30
-5.52
-9.24
-12.98
-17.35
-22.87
-29.58
-36.97
-44.01
-49.34
-51.65
-50.05
-44.40
-35.41
-24.38
-12.85
-2.17
6.80
13.70
18.49
21.31
22.40
22.15
21.08
19.92
19.36
19.81
21.37
23.71
26.29
28.53
30.06
30.68
30.34
29.01
26.61
23.07
18.46
13.00
7.15
1.45
-3.72
-8.20
-12.11
-15.77
-19.58
-23.83
-28.75
-34.29
-40.18
-45.73
-49.87
-51.36
-49.19
-42.95
-33.04
-20.69
-7.45
5.03
15.56
23.50
28.65
31.23
31.66
30.60
28.82
27.12
26.18
26.29
27.34
28.76
29.89
30.15
29.28
27.32
24.59
21.34
17.71
13.66
9.07
3.96
-1.47
-6.81
-11.63
-15.60
-18.66
-21.01
-23.01
-25.15
-27.89
-31.56
-36.25
-41.62
-46.74
-50.24
-50.64
-46.80
-38.50
-26.58
-12.70
1.16
13.34
22.86
29.54
33.63
35.60
35.91
35.01
33.44
31.79
30.66
30.44
31.17
32.38
33.42
33.64
32.72
30.73
28.01
24.98
21.90
18.70
15.15
11.03
6.29
1.16
-3.98
-8.83
-13.23
-17.20
-21.04
-25.11
-29.80
-35.45
-42.10
-49.35
-56.22
-61.29
-63.03
-60.35
-53.01
-41.73
-27.99
-13.52
0.13
11.86
21.03
27.38
30.83
31.59
30.21
27.46
24.38
21.95
20.77
20.99
22.27
23.89
25.16
25.61
25.08
23.73
21.81
19.54
17.00
14.14
10.81
6.88
2.41
-2.45
-7.34
-11.82
-15.54
-18.39
-20.56
-22.59
-25.13
-28.74
-33.62
-39.35
-45.02
-49.31
-50.92
-48.94
-43.12
-33.94
-22.46
-10.07
1.97
12.64
21.29
27.51
31.20
32.50
31.85
30.07
28.14
27.02
27.24
28.74
30.92
32.93
34.03
33.81
32.37
30.08
27.46
24.82
22.23
19.54
16.54
13.05
8.99
4.52
-0.11
-4.60
-8.67
-12.19
-15.20
-17.94
-20.79
-24.21
-28.63
-34.31
-41.07
-48.19
-54.38
-58.01
-57.62
-52.45
-42.74
-29.80
-15.59
-2.06
9.38
18.09
24.09
27.72
29.45
29.67
28.80
27.37
25.99
25.25
25.49
26.66
28.30
29.76
30.38
29.83
28.11
25.54
22.54
19.51
16.62
13.83
10.95
7.76
4.13
0.06
-4.25
-8.53
-12.44
-15.74
-18.41
-20.69
-23.07
-26.14
-30.40
-35.96
-42.40
-48.66
-53.28
-54.75
-52.10
-45.12
-34.60
-22.03
-9.17
2.46
11.92
18.92
23.53
26.02
26.68
25.88
24.19
22.37
21.22
21.30
22.69
24.90
27.12
28.55
28.67
27.45
25.16
22.23
19.03
15.80
12.55
9.20
5.62
1.71
-2.51
-6.93
-11.35
-15.54
-19.33
-22.68
-25.71
-28.76
-32.25
-36.63
-42.04
-48.21
-54.24
-58.73
-60.14
-57.27
-49.80
-38.39
-24.60
-10.32
2.77
13.60
21.84
27.65
31.40
33.43
33.96
33.22
31.62
29.78
28.37
27.87
28.39
29.56
30.72
31.22
30.68
29.14
26.97
24.61
22.28
19.96
17.32
14.01
9.85
4.99
-0.19
-5.23
-9.77
-13.72
-17.24
-20.66
-24.38
-28.67
-33.74
-39.62
-46.08
-52.49
-57.79
-60.59
-59.62
-54.15
-44.39
-31.52
-17.32
-3.58
8.40
18.02
25.31
30.55
33.99
35.78
36.02
35.00
33.23
31.46
30.35
30.32
31.28
32.69
33.81
33.97
32.87
30.67
27.80
24.75
21.81
18.86
15.55
11.46
6.38
0.49
-5.78
-11.82
-17.14
-21.59
-25.30
-28.71
-32.33
-36.65
-42.00
-48.37
-55.37
-62.07
-67.12
-69.01
-66.52
-59.13
-47.41
-32.77
-17.16
-2.44
10.13
20.01
27.27
32.20
35.22
36.59
36.63
35.76
34.54
33.59
33.30
33.74
34.58
35.32
35.45
34.78
33.39
31.58
29.67
27.71
25.48
22.52
18.40
12.88
6.12
-1.36
-8.79
-15.41
-20.68
-24.45
-27.00
-28.95
-31.10
-34.18
-38.61
-44.34
-50.65
-56.21
-59.37
-58.55
-52.94
-42.73
-29.21
-14.30
-0.04
12.14
21.57
28.23
32.47
34.68
35.13
34.18
32.33
30.33
28.89
28.54
29.26
30.60
31.80
32.20
31.43
29.53
26.84
23.75
20.48
16.97
13.06
8.55
3.50
-1.79
-6.85
-11.25
-14.82
-17.72
-20.45
-23.60
-27.73
-33.08
-39.43
-45.98
-51.48
-54.49
-53.74
-48.62
-39.36
-27.00
-13.22
0.27
12.06
21.24
27.53
31.04
32.19
31.50
29.62
27.24
25.03
23.53
22.99
23.33
24.19
25.09
25.61
25.51
24.69
23.16
20.87
17.76
13.76
8.92
3.45
-2.27
-7.79
-12.79
-17.09
-20.80
-24.24
-27.87
-32.21
-37.57
-43.90
-50.50
-56.11
-59.08
-57.94
-51.91
-41.28
-27.34
-12.08
2.50
14.84
24.12
30.21
33.37
34.16
33.20
31.17
28.81
26.72
25.38
24.90
25.15
25.83
26.57
27.11
27.20
26.69
25.35
23.00
19.50
14.86
9.34
3.33
-2.71
-8.40
-13.46
-17.86
-21.73
-25.39
-29.26
-33.75
-39.13
-45.23
-51.30
-55.98
-57.70
-55.11
-47.68
-35.99
-21.61
-6.64
7.00
17.98
25.86
30.84
33.52
34.53
34.42
33.62
32.53
31.59
31.14
31.37
32.21
33.37
34.39
34.79
34.15
32.24
29.09
24.85
19.81
14.30
8.58
2.87
-2.71
-8.01
-12.94
-17.41
-21.51
-25.54
-30.01
-35.38
-41.69
-48.31
-53.83
-56.57
-54.98
-48.46
-37.51
-23.62
-8.71
5.38
17.38
26.61
32.94
36.56
37.88
37.51
36.19
34.67
33.64
33.41
33.98
35.06
36.20
36.96
36.97
36.09
34.24
31.45
27.79
23.32
18.14
12.40
6.33
0.24
-5.54
-10.90
-15.85
-20.65
-25.69
-31.28
-37.53
-44.21
-50.67
-55.96
-58.91
-58.36
-53.55
-44.34
-31.48
-16.46
-1.21
12.39
23.05
30.27
34.32
35.94
36.00
35.19
34.01
32.71
31.49
30.53
29.99
29.96
30.38
31.01
31.44
31.13
29.65
26.77
22.55
17.27
11.39
5.31
-0.62
-6.25
-11.54
-16.53
-21.36
-26.26
-31.48
-37.21
-43.32
-49.30
-54.10
-56.42
-55.11
-49.57
-40.15
-28.05
-15.02
-2.88
7.04
14.11
18.39
20.32
20.47
19.34
17.37
15.00
12.75
11.14
10.63
11.35
13.09
15.25
17.12
18.07
17.70
15.90
12.87
8.92
4.39
-0.43
-5.32
-10.11
-14.76
-19.23
-23.70
-28.45
-33.83
-40.09
-47.04
-53.97
-59.62
-62.49
-61.27
-55.29
-44.77
-30.79
-15.00
0.83
15.17
26.93
35.50
40.74
42.92
42.61
40.72
38.18
35.92
34.51
34.15
34.69
35.76
36.87
37.55
37.41
36.17
33.63
29.82
24.90
19.23
13.20
7.13
1.18
-4.67
-10.53
-16.57
-22.94
-29.70
-36.74
-43.70
-49.86
-54.21
-55.58
-53.02
-46.20
-35.59
-22.48
-8.50
4.72
16.05
24.96
31.48
35.88
38.52
39.67
39.61
38.66
37.18
35.56
34.09
32.89
31.90
30.94
29.81
28.26
26.11
23.20
19.40
14.71
9.31
3.57
-2.08
-7.23
-11.78
-15.81
-19.67
-23.78
-28.50
-34.07
-40.45
-47.20
-53.45
-58.00
-59.49
-56.84
-49.68
-38.55
-24.85
-10.47
2.78
13.71
21.81
27.30
30.72
32.63
33.47
33.52
32.99
32.18
31.38
30.84
30.63
30.61
30.49
29.94
28.69
26.59
23.66
20.02
15.86
11.34
6.65
1.91
-2.79
-7.32
-11.62
-15.61
-19.38
-23.22
-27.58
-32.92
-39.35
-46.41
-52.91
-57.21
-57.73
-53.54
-44.72
-32.43
-18.47
-4.79
7.19
16.72
23.76
28.64
31.80
33.63
34.41
34.45
34.10
33.74
33.67
33.95
34.34
34.47
33.93
32.50
30.21
27.31
24.00
20.42
16.56
12.36
7.84
3.15
-1.50
-5.89
-9.91
-13.62
-17.19
-20.94
-25.22
-30.35
-36.37
-42.83
-48.69
-52.41
-52.48
-47.96
-38.96
-26.67
-12.98
0.11
11.13
19.41
25.02
28.41
30.14
30.60
30.09
29.02
27.82
26.99
26.87
27.48
28.54
29.52
29.86
29.20
27.44
24.74
21.33
17.45
13.18
8.49
3.42
-1.91
-7.28
-12.37
-16.94
-20.88
-24.29
-27.53
-31.12
-35.51
-40.89
-46.95
-52.78
-56.95
-57.95
-54.73
-47.15
-36.08
-23.18
-10.23
1.33
10.68
17.67
22.43
25.25
26.38
26.09
24.82
23.13
21.62
20.72
20.52
20.78
21.16
21.32
21.09
20.49
19.56
18.28
16.49
13.99
10.63
6.49
1.81
-3.03
-7.65
-11.83
-15.61
-19.29
-23.27
-28.00
-33.74
-40.40
-47.38
-53.62
-57.74
-58.42
-54.80
-46.77
-35.10
-21.28
-7.08
5.81
16.23
23.63
28.05
29.96
30.05
29.05
27.64
26.38
25.60
25.39
25.62
25.94
25.95
25.30
23.79
21.40
18.27
14.62
10.69
6.68
2.73
-1.04
-4.57
-7.79
-10.68
-13.26
-15.65
-18.08
-20.90
-24.56
-29.39
-35.50
-42.47
-49.28
-54.50
-56.59
-54.44
-47.80
-37.37
-24.64
-11.43
0.70
10.73
18.31
23.56
26.82
28.45
28.77
28.10
26.88
25.58
24.69
24.49
24.96
25.77
26.40
26.35
25.32
23.33
20.60
17.44
14.04
10.47
6.63
2.42
-2.12
-6.81
-11.35
-15.48
-19.11
-22.43
-25.84
-29.84
-34.77
-40.50
-46.29
-50.86
-52.72
-50.61
-44.09
-33.66
-20.74
-7.19
5.23
15.32
22.57
27.08
29.30
29.73
28.86
27.18
25.26
23.71
23.04
23.51
24.93
26.76
28.35
29.09
28.72
27.27
24.96
22.00
18.48
14.44
9.87
4.93
-0.12
-4.89
-9.09
-12.59
-15.53
-18.32
-21.47
-25.45
-30.48
-36.41
-42.65
-48.15
-51.65
-51.87
-47.95
-39.80
-28.20
-14.74
-1.37
10.20
18.87
24.37
27.17
28.01
27.67
26.69
25.41
24.04
22.87
22.24
22.47
23.70
25.69
27.89
29.52
29.83
28.46
25.51
21.52
17.15
12.92
9.03
5.32
1.53
-2.52
-6.84
-11.29
-15.85
-20.67
-26.12
-32.68
-40.47
-49.04
-57.30
-63.67
-66.47
-64.55
-57.72
-46.89
-33.84
-20.66
-9.09
-0.17
5.95
9.71
11.77
12.74
13.00
12.82
12.40
12.09
12.21
13.08
14.76
16.98
19.21
20.94
21.71
21.33
19.83
17.32
13.95
9.87
5.27
0.42
-4.30
-8.59
-12.27
-15.41
-18.38
-21.66
-25.73
-30.85
-36.79
-42.78
-47.55
-49.64
-47.82
-41.60
-31.45
-18.72
-5.21
7.32
17.64
25.21
30.06
32.60
33.31
32.70
31.27
29.52
27.96
26.97
26.69
27.00
27.55
27.89
27.62
26.53
24.55
21.76
18.26
14.16
9.58
4.69
-0.32
-5.19
-9.73
-13.74
-17.17
-20.09
-22.79
-25.68
-29.23
-33.76
-39.15
-44.67
-49.07
-50.83
-48.72
-42.28
-32.08
-19.52
-6.43
5.52
15.24
22.35
26.96
29.48
30.30
29.82
28.51
26.94
25.78
25.58
26.52
28.37
30.47
32.12
32.77
32.25
30.72
28.53
25.97
23.07
19.75
15.82
11.26
6.31
1.36
-3.17
-6.93
-9.93
-12.49
-15.12
-18.47
-22.99
-28.81
-35.53
-42.17
-47.34
-49.52
-47.55
-41.03
-30.58
-17.66
-4.20
8.02
17.84
24.82
29.11
31.17
31.44
30.35
28.32
25.94
23.90
22.84
23.11
24.58
26.70
28.76
30.06
30.19
29.07
26.82
23.67
19.85
15.57
10.98
6.19
1.34
-3.47
-8.07
-12.34
-16.17
-19.55
-22.62
-25.73
-29.37
-33.95
-39.58
-45.77
-51.47
-55.18
-55.47
-51.52
-43.43
-32.23
-19.55
-7.06
3.99
12.91
19.55
24.00
26.40
26.97
26.08
24.30
22.37
21.03
20.76
21.58
23.11
24.72
25.82
26.05
25.33
23.78
21.62
18.96
15.79
11.98
7.51
2.51
-2.68
-7.59
-11.82
-15.21
-17.95
-20.41
-23.12
-26.56
-31.01
-36.45
-42.43
-48.05
-52.01
-52.98
-49.96
-42.73
-32.08
-19.54
-6.95
4.14
12.82
18.88
22.54
24.22
24.32
23.28
21.67
20.13
19.39
19.83
21.44
23.70
25.88
27.25
27.46
26.54
24.75
22.47
19.90
17.09
13.87
10.10
5.82
1.22
-3.33
-7.55
-11.32
-14.76
-18.21
-22.10
-26.76
-32.37
-38.83
-45.67
-52.10
-56.96
-59.04
-57.28
-51.23
-41.24
-28.48
-14.65
-1.48
9.70
18.22
23.98
27.32
28.65
28.41
27.04
25.04
23.08
21.81
21.67
22.75
24.67
26.74
28.26
28.75
28.16
26.79
24.96
22.90
20.56
17.68
13.97
9.33
3.96
-1.68
-7.06
-11.79
-15.70
-18.97
-21.96
-25.22
-29.29
-34.53
-40.83
-47.50
-53.22
-56.40
-55.64
-50.31
-40.85
-28.65
-15.63
-3.52
6.52
14.07
19.31
22.58
24.19
24.39
23.48
21.99
20.62
20.07
20.71
22.43
24.65
26.60
27.63
27.46
26.20
24.22
21.88
19.36
16.59
13.38
9.54
5.09
0.25
-4.60
-9.13
-13.15
-16.72
-20.11
-23.68
-27.80
-32.67
-38.23
-43.99
-49.07
-52.26
-52.36
-48.58
-40.81
-29.85
-17.13
-4.29
7.22
16.48
23.19
27.49
29.75
30.38
29.77
28.40
26.77
25.37
24.56
24.41
24.73
25.12
25.17
24.55
23.20
21.20
18.71
15.91
12.86
9.57
6.03
2.29
-1.50
-5.14
-8.46
-11.42
-14.17
-17.03
-20.46
-24.92
-30.63
-37.47
-44.76
-51.40
-55.93
-57.07
-54.03
-46.86
-36.44
-24.24
-11.82
-0.43
9.17
16.74
22.32
26.08
28.22
29.01
28.87
28.43
28.29
28.86
30.16
31.80
33.08
33.41
32.48
30.51
28.00
25.47
23.11
20.75
17.90
14.09
9.28
3.89
-1.38
-5.96
-9.64
-12.69
-15.64
-19.03
-23.23
-28.33
-34.18
-40.35
-45.98
-49.86
-50.59
-47.10
-39.18
-27.71
-14.52
-1.78
8.81
16.48
21.42
24.42
26.29
27.55
28.34
28.65
28.55
28.35
28.55
29.45
31.03
32.81
34.01
33.90
32.12
28.82
24.49
19.84
15.31
11.09
7.04
2.93
-1.36
-5.71
-9.86
-13.57
-16.83
-19.96
-23.51
-28.06
-33.86
-40.62
-47.29
-52.36
-54.22
-51.76
-44.80
-34.18
-21.55
-8.82
2.42
11.19
17.25
20.88
22.57
22.83
22.13
20.92
19.64
18.74
18.52
19.05
20.15
21.44
22.44
22.74
22.09
20.41
17.81
14.53
10.85
7.00
3.14
-0.67
-4.49
-8.34
-12.26
-16.27
-20.48
-25.08
-30.29
-36.21
-42.49
-48.24
-52.09
-52.58
-48.73
-40.49
-28.82
-15.44
-2.21
9.41
18.71
25.67
30.65
34.07
36.15
36.96
36.62
35.41
33.80
32.44
31.79
31.99
32.83
33.74
34.09
33.38
31.44
28.43
24.77
20.93
17.29
14.11
11.54
9.63
8.38
7.63
7.00
5.92
3.78
0.17
-4.80
-10.44
-15.60
-18.94
-19.46
-16.70
-10.95
-2.99
6.12
15.41
24.13
31.81
38.18
43.00
46.09
47.30
46.59
44.11
40.25
35.52
30.48
25.64
21.31
17.52
14.03
10.40
6.14
0.87
-5.67
-13.51
-22.49
-32.22
-42.17
-51.68
-60.07
-66.78
-71.49
-74.23
-75.40
-75.70
-75.94
-76.79
-78.50
-80.67
-82.39
-82.36
-79.41
-72.82
-62.72
-49.99
-36.02
-22.29
-10.01
0.10
7.83
13.35
17.06
19.52
21.36
23.26
25.78
29.21
33.55
38.43
43.31
47.58
50.72
52.39
52.41
50.76
47.56
43.11
37.85
32.31
26.94
22.07
17.77
13.94
10.36
6.75
2.84
-1.65
-6.94
-13.12
-20.05
-27.20
-33.62
-38.07
-39.30
-36.53
-29.75
-19.87
-8.41
2.89
12.61
20.04
25.09
28.11
29.56
29.83
29.25
28.15
26.91
25.96
25.63
26.03
26.96
27.99
28.65
28.50
27.32
25.09
22.02
18.34
14.31
10.16
6.01
1.98
-1.82
-5.26
-8.24
-10.80
-13.17
-15.80
-19.19
-23.71
-29.27
-35.20
-40.28
-43.06
-42.41
-37.90
-30.04
-20.05
-9.50
0.22
8.24
14.25
18.31
20.71
21.72
21.65
20.83
19.64
18.51
17.76
17.54
17.81
18.38
18.93
19.17
18.79
17.64
15.65
12.90
9.60
5.98
2.23
-1.55
-5.33
-9.10
-12.82
-16.43
-19.90
-23.38
-27.18
-31.57
-36.58
-41.69
-45.82
-47.63
-45.96
-40.35
-31.28
-20.06
-8.35
2.37
11.15
17.66
21.98
24.39
25.20
24.69
23.28
21.51
19.95
19.05
18.90
19.28
19.79
20.05
19.78
18.97
17.63
15.78
13.38
10.36
6.72
2.60
-1.77
-6.11
-10.19
-13.88
-17.17
-20.11
-22.93
-25.96
-29.66
-34.38
-40.11
-46.24
-51.60
-54.73
-54.33
-49.84
-41.61
-30.83
-19.09
-7.87
1.83
9.55
15.28
19.23
21.69
23.02
23.65
24.05
24.69
25.91
27.74
29.94
32.00
33.44
33.88
33.26
31.75
29.67
27.26
24.62
21.70
18.36
14.51
10.24
5.79
1.44
-2.62
-6.35
-9.95
-13.68
-17.88
-22.77
-28.37
-34.44
-40.45
-45.52
-48.68
-48.97
-45.82
-39.20
-29.80
-18.79
-7.57
2.59
10.83
16.78
20.52
22.38
22.82
22.33
21.38
20.44
19.91
20.04
20.83
22.03
23.21
23.91
23.81
22.78
20.96
18.65
16.17
13.72
11.35
8.93
6.27
3.27
-0.05
-3.50
-6.82
-9.82
-12.51
-15.16
-18.18
-22.01
-26.89
-32.71
-38.91
-44.52
-48.34
-49.17
-46.30
-39.67
-29.98
-18.52
-6.75
4.06
13.06
19.93
24.62
27.26
28.10
27.54
26.21
24.89
24.33
24.95
26.67
28.96
31.05
32.21
32.04
30.53
28.05
25.07
22.02
19.06
16.15
13.02
9.44
5.23
0.40
-4.79
-9.99
-14.86
-19.14
-22.74
-25.81
-28.67
-31.86
-35.88
-40.99
-46.93
-52.80
-57.12
-58.33
-55.30
-47.86
-36.88
-24.13
-11.50
-0.55
7.99
14.06
18.06
20.32
21.10
20.60
19.18
17.56
16.60
17.03
19.06
22.16
25.24
27.21
27.42
25.94
23.55
21.12
19.25
17.84
16.25
13.66
9.63
4.34
-1.53
-7.08
-11.70
-15.35
-18.39
-21.37
-24.75
-28.70
-33.27
-38.44
-44.16
-50.31
-56.37
-61.37
-64.03
-63.21
-58.33
-49.76
-38.68
-26.72
-15.42
-5.74
2.00
7.93
12.37
15.54
17.59
18.70
19.24
19.81
21.02
23.26
26.44
30.00
33.10
34.86
34.77
32.82
29.50
25.63
21.97
18.94
16.57
14.44
12.07
9.12
5.58
1.73
-2.06
-5.53
-8.68
-11.72
-15.01
-18.95
-23.89
-29.97
-36.95
-44.10
-50.13
-53.53
-53.08
-48.26
-39.54
-28.21
-15.94
-4.29
5.72
13.67
19.55
23.50
25.70
26.33
25.72
24.43
23.21
22.77
23.56
25.49
27.96
30.05
30.96
30.30
28.26
25.44
22.48
19.82
17.49
15.26
12.92
10.39
7.85
5.55
3.65
2.09
0.56
-1.31
-3.85
-7.27
-11.63
-16.90
-22.91
-29.30
-35.39
-40.22
-42.68
-41.85
-37.31
-29.45
-19.31
-8.28
2.26
11.35
18.50
23.62
26.84
28.35
28.39
27.32
25.70
24.18
23.31
23.39
24.29
25.61
26.80
27.42
27.31
26.55
25.29
23.65
21.60
18.93
15.42
11.03
5.94
0.56
-4.59
-9.07
-12.67
-15.50
-17.95
-20.57
-23.90
-28.30
-33.76
-39.84
-45.59
-49.75
-51.06
-48.65
-42.34
-32.81
-21.37
-9.61
1.07
9.74
16.05
20.05
22.01
22.32
21.40
19.77
18.06
16.79
16.29
16.60
17.44
18.41
19.16
19.42
19.09
18.11
16.42
13.91
10.59
6.62
2.33
-1.86
-5.60
-8.79
-11.60
-14.31
-17.29
-20.77
-24.94
-29.84
-35.34
-41.04
-46.15
-49.55
-50.01
-46.67
-39.43
-29.10
-17.17
-5.36
4.89
12.74
17.95
20.69
21.36
20.39
18.28
15.60
13.02
11.14
10.34
10.70
11.95
13.60
15.09
15.94
15.77
14.44
12.02
8.77
5.05
1.26
-2.35
-5.66
-8.76
-11.80
-14.94
-18.25
-21.83
-25.77
-30.16
-34.98
-39.93
-44.29
-47.03
-47.07
-43.69
-36.84
-27.20
-16.13
-5.12
4.50
12.03
17.35
20.77
22.87
24.12
24.90
25.42
25.85
26.39
27.20
28.36
29.74
30.98
31.60
31.10
29.19
25.85
21.39
16.32
11.18
6.46
2.44
-0.87
-3.67
-6.32
-9.16
-12.50
-16.63
-21.66
-27.50
-33.77
-39.73
-44.33
-46.41
-45.07
-39.94
-31.44
-20.62
-8.92
2.28
11.94
19.59
25.16
28.93
31.21
32.33
32.66
32.52
32.30
32.30
32.70
33.44
34.24
34.72
34.48
33.27
31.01
27.75
23.67
18.94
13.77
8.37
2.99
-2.14
-6.82
-10.99
-14.75
-18.30
-21.95
-25.96
-30.42
-35.10
-39.46
-42.59
-43.46
-41.16
-35.18
-25.76
-13.82
-0.86
11.54
22.05
29.93
34.98
37.45
37.83
36.63
34.43
31.84
29.49
27.94
27.55
28.32
29.87
31.66
33.02
33.47
32.66
30.49
27.09
22.74
17.84
12.73
7.59
2.39
-3.05
-8.90
-15.14
-21.59
-27.95
-34.03
-39.71
-44.90
-49.26
-52.06
-52.32
-49.19
-42.45
-32.82
-21.76
-11.03
-1.99
4.69
9.13
11.84
13.32
13.82
13.32
11.78
9.28
6.20
3.07
0.45
-1.36
-2.33
-2.72
-2.90
-3.24
-3.96
-5.03
-6.27
-7.47
-8.54
-9.57
-10.84
-12.63
-15.08
-18.14
-21.62
-25.35
-29.27
-33.40
-37.60
-41.38
-43.79
-43.58
-39.62
-31.45
-19.59
-5.51
8.83
21.65
31.86
39.24
44.21
47.37
49.17
49.72
49.04
47.25
44.78
42.25
40.31
39.35
39.32
39.88
40.49
40.61
39.87
38.13
35.43
31.95
27.99
23.78
19.51
15.20
10.74
5.86
0.21
-6.50
-14.36
-23.09
-32.10
-40.36
-46.66
-49.77
-48.80
-43.53
-34.53
-23.14
-11.07
0.01
8.97
15.36
19.23
20.92
20.70
18.74
15.18
10.48
5.40
1.02
-1.84
-2.98
-2.84
-2.46
-2.90
-4.93
-8.72
-13.92
-19.90
-26.01
-31.76
-36.69
-40.53
-43.10
-44.46
-45.08
-45.91
-48.08
-52.55
-59.76
-69.24
-79.80
-89.65
-96.95
-100.39
-99.41
-94.28
-85.87
-75.50
-64.45
-53.79
-44.15
-35.66
-28.17
-21.21
-14.20
-6.50
2.37
12.77
24.75
38.05
52.18
66.39
79.90
91.98
102.01
109.51
114.19
115.87
114.58
110.64
104.63
97.34
89.55
81.87
74.60
67.65
60.67
53.12
44.60
35.03
24.66
14.17
4.55
-2.99
-7.31
-7.64
-3.89
3.22
12.31
21.68
29.84
35.83
39.40
40.78
40.46
39.02
36.94
34.70
32.70
31.27
30.57
30.49
30.70
30.68
29.97
28.19
25.25
21.22
16.35
10.94
5.30
-0.36
-5.93
-11.34
-16.56
-21.47
-25.95
-29.87
-33.30
-36.52
-39.96
-44.04
-48.83
-53.91
-58.26
-60.59
-59.70
-54.96
-46.61
-35.66
-23.69
-12.25
-2.53
4.97
10.33
13.98
16.43
18.02
18.95
19.35
19.48
19.69
20.34
21.63
23.42
25.28
26.59
26.80
25.60
22.93
19.01
14.19
8.82
3.24
-2.34
-7.78
-13.03
-18.15
-23.28
-28.67
-34.60
-41.28
-48.80
-56.88
-64.82
-71.53
-75.73
-76.26
-72.47
-64.58
-53.53
-40.88
-28.25
-16.90
-7.49
-0.09
5.62
10.05
13.47
16.07
17.96
19.33
20.47
21.67
23.07
24.68
26.34
27.86
29.12
30.07
30.67
30.81
30.31
28.87
26.32
22.64
18.10
13.16
8.29
3.83
-0.22
-4.14
-8.40
-13.44
-19.46
-26.21
-32.85
-38.11
-40.60
-39.25
-33.75
-24.74
-13.66
-2.27
7.86
15.84
21.51
25.25
27.62
29.01
29.61
29.55
28.96
28.14
27.45
27.14
27.30
27.75
28.14
28.04
27.15
25.33
22.65
19.30
15.53
11.50
7.34
3.07
-1.31
-5.77
-10.28
-14.78
-19.25
-23.70
-28.15
-32.46
-36.32
-39.14
-40.12
-38.62
-34.35
-27.66
-19.46
-11.00
-3.51
2.20
5.76
7.25
6.86
4.89
1.62
-2.54
-7.04
-11.22
-14.50
-16.46
-16.88
-15.72
-13.00
-8.90
-3.85
1.33
5.55
7.71
7.13
3.94
-0.95
-6.11
-10.21
-12.44
-12.87
-12.21
-11.53
-11.90
-14.08
-18.47
-24.97
-32.94
-41.15
-47.88
-51.37
-50.31
-44.41
-34.55
-22.54
-10.44
0.10
8.19
13.85
17.56
19.91
21.30
21.85
21.57
20.56
19.16
17.96
17.66
18.85
21.72
25.95
30.73
34.89
37.27
37.04
33.92
28.21
20.70
12.38
4.25
-2.94
-8.75
-13.15
-16.49
-19.48
-23.07
-28.18
-35.32
-44.22
-53.61
-61.52
-65.74
-64.58
-57.48
-45.13
-29.34
-12.45
3.30
16.22
25.40
30.73
32.71
32.14
30.01
27.21
24.45
22.21
20.79
20.27
20.58
21.44
22.51
23.40
23.73
23.21
21.66
18.98
15.15
10.24
4.43
-2.02
-8.77
-15.45
-21.80
-27.75
-33.54
-39.66
-46.61
-54.68
-63.63
-72.47
-79.63
-83.38
-82.44
-76.45
-66.04
-52.55
-37.53
-22.21
-7.37
6.55
19.19
30.14
38.98
45.46
49.78
52.45
54.21
55.61
56.86
57.78
58.05
57.33
55.49
52.60
48.80
44.24
38.99
33.15
26.84
20.36
14.07
8.27
3.18
-1.25
-5.24
-9.18
-13.49
-18.44
-24.03
-29.89
-35.22
-38.97
-40.13
-38.04
-32.66
-24.64
-15.10
-5.34
3.47
10.52
15.44
18.20
19.10
18.61
17.39
16.14
15.51
15.93
17.50
19.96
22.68
24.92
26.01
25.56
23.65
20.76
17.69
15.20
13.77
13.35
13.46
13.35
12.32
9.98
6.29
1.51
-4.07
-10.26
-16.91
-23.81
-30.44
-35.89
-39.11
-39.25
-36.05
-30.04
-22.41
-14.68
-8.20
-3.79
-1.58
-1.14
-1.73
-2.65
-3.39
-3.65
-3.31
-2.33
-0.71
1.46
3.95
6.42
8.47
9.69
9.86
8.89
6.87
4.03
0.70
-2.78
-6.08
-9.06
-11.75
-14.29
-16.83
-19.44
-22.05
-24.61
-27.14
-29.76
-32.53
-35.18
-36.94
-36.74
-33.57
-27.05
-17.73
-6.97
3.50
12.23
18.47
22.32
24.30
25.00
24.75
23.52
21.25
18.12
14.70
11.66
9.57
8.47
7.92
7.03
4.91
1.04
-4.50
-11.10
-17.81
-23.65
-27.79
-29.69
-29.09
-26.02
-20.78
-14.01
-6.68
-0.01
4.82
6.97
6.30
3.58
0.34
-1.60
-0.73
3.66
11.27
20.91
31.02
40.15
47.34
52.19
54.81
55.53
54.80
53.13
51.05
48.99
47.33
46.23
45.62
45.20
44.54
43.20
40.84
37.34
32.80
27.53
21.91
16.33
11.06
6.26
1.91
-2.06
-5.86
-9.72
-13.94
-18.80
-24.46
-30.82
-37.40
-43.33
-47.44
-48.62
-46.15
-39.96
-30.77
-19.83
-8.64
1.46
9.59
15.34
18.74
20.07
19.76
18.31
16.27
14.18
12.49
11.45
11.08
11.22
11.59
11.91
11.88
11.27
9.83
7.37
3.87
-0.52
-5.38
-10.28
-14.83
-18.92
-22.66
-26.41
-30.60
-35.59
-41.54
-48.25
-55.03
-60.67
-63.67
-62.66
-56.92
-46.74
-33.41
-18.88
-5.09
6.47
15.03
20.48
23.10
23.43
22.14
20.10
18.20
17.21
17.53
19.03
21.12
23.04
24.10
23.94
22.47
19.79
16.10
11.59
6.56
1.38
-3.49
-7.67
-10.99
-13.55
-15.76
-18.15
-21.28
-25.48
-30.74
-36.70
-42.54
-47.16
-49.38
-48.28
-43.44
-35.17
-24.40
-12.44
-0.57
10.22
19.41
26.84
32.56
36.67
39.17
40.08
39.56
37.98
35.95
34.16
33.12
32.93
33.28
33.46
32.77
30.76
27.43
23.15
18.44
13.77
9.34
5.13
1.00
-3.19
-7.57
-12.29
-17.60
-23.78
-30.89
-38.53
-45.67
-50.76
-52.23
-49.02
-41.08
-29.53
-16.25
-3.33
7.63
15.87
21.39
24.67
26.21
26.38
25.39
23.47
21.05
18.70
17.04
16.46
17.01
18.36
19.99
21.34
22.00
21.77
20.63
18.66
15.96
12.65
8.92
5.03
1.26
-2.15
-5.26
-8.41
-12.10
-16.69
-22.02
-27.27
-31.19
-32.48
-30.38
-24.96
-17.01
-7.73
1.68
10.35
17.72
23.39
27.03
28.43
27.58
24.91
21.33
17.98
15.93
15.74
17.36
20.09
22.88
24.69
24.74
22.80
19.02
13.89
7.94
1.64
-4.68
-10.80
-16.54
-21.79
-26.54
-30.94
-35.22
-39.56
-43.81
-47.42
-49.44
-48.84
-44.96
-37.80
-28.13
-17.23
-6.52
2.82
10.01
14.70
16.78
16.37
13.78
9.54
4.44
-0.55
-4.51
-6.73
-6.97
-5.50
-3.09
-0.77
0.47
0.05
-2.03
-5.22
-8.70
-11.73
-13.98
-15.60
-17.05
-18.82
-21.16
-24.05
-27.24
-30.23
-32.43
-33.09
-31.42
-26.84
-19.21
-8.98
2.79
14.74
25.65
34.74
41.83
47.16
51.13
53.97
55.69
56.15
55.31
53.37
50.78
48.10
45.74
43.80
42.01
39.88
36.87
32.66
27.19
20.76
13.83
6.90
0.32
-5.77
-11.45
-16.99
-22.65
-28.63
-34.97
-41.46
-47.61
-52.67
-55.74
-56.00
-53.02
-46.92
-38.44
-28.74
-19.06
-10.32
-3.04
2.73
7.12
10.35
12.63
14.15
15.20
16.16
17.45
19.39
22.13
25.52
29.15
32.43
34.77
35.77
35.35
33.78
31.55
29.15
26.85
24.57
22.02
18.78
14.57
9.30
3.15
-3.45
-9.85
-15.20
-18.62
-19.38
-17.15
-12.22
-5.42
2.04
8.99
14.59
18.50
20.71
21.45
20.92
19.21
16.48
12.96
9.18
5.72
3.14
1.66
1.21
1.41
1.90
2.44
2.99
3.59
4.18
4.48
4.04
2.46
-0.48
-4.76
-10.15
-16.44
-23.50
-31.15
-38.99
-46.29
-51.98
-55.08
-55.00
-51.87
-46.48
-39.89
-33.09
-26.63
-20.67
-15.15
-10.09
-5.72
-2.39
-0.41
0.16
-0.35
-1.37
-2.30
-2.72
-2.61
-2.31
-2.34
-3.09
-4.62
-6.66
-8.78
-10.55
-11.70
-12.17
-12.08
-11.66
-11.34
-11.62
-13.05
-15.89
-19.85
-23.91
-26.59
-26.40
-22.50
-15.11
-5.43
4.83
14.17
21.79
27.73
32.56
36.86
40.83
44.12
46.22
46.76
45.92
44.36
43.01
42.51
42.99
43.86
44.20
43.17
40.39
36.10
31.00
25.88
21.29
17.32
13.63
9.78
5.51
0.82
-4.12
-9.22
-14.55
-20.19
-25.93
-31.05
-34.39
-34.66
-31.12
-24.01
-14.60
-4.72
4.04
10.85
15.75
19.33
22.24
24.76
26.63
27.21
26.07
23.36
19.88
16.63
14.38
13.52
13.95
14.89
15.08
13.43
9.56
3.97
-2.31
-8.20
-12.64
-15.02
-15.65
-15.88
-17.28
-20.77
-26.50
-34.26
-43.66
-53.34
-60.55
-61.91
-54.66
-37.80
-12.74
16.54
44.71
64.63
71.03
64.82
52.49
40.22
29.46
18.13
4.61
-9.63
-20.43
-23.48
-16.95
-2.93
13.04
24.72
28.07
22.13
8.27
-11.42
-35.17
-60.02
-81.76
-96.66
-102.91
-100.78
-92.09
-79.25
-64.56
-49.71
-35.59
-22.98
-12.86
-5.98
-2.38
-1.25
-1.36
-1.64
-1.33
-0.01
2.12
4.34
5.88
6.34
5.93
5.15
4.52
4.32
4.71
5.57
6.50
7.14
7.30
7.14
6.89
6.81
7.04
7.64
8.59
9.71
10.72
11.31
11.32
10.75
9.95
9.37
9.41
10.22
11.54
12.98
14.20
15.05
15.69
16.16
16.39
16.18
15.48
14.20
12.43
10.20
7.61
4.72
2.07
0.53
1.14
4.62
10.53
17.65
24.39
29.45
32.30
33.34
33.48
33.69
34.89
37.20
41.02
46.63
54.26
63.68
74.14
84.49
93.65
101.28
107.29
112.82
119.30
127.38
136.10
142.95
144.81
139.67
128.04
111.81
94.91
81.10
72.27
67.80
65.00
60.22
49.28
36.28
22.06
7.42
-7.28
-22.12
-37.46
-53.53
-70.11
-86.68
-102.55
-118.68
-136.17
-156.09
-178.79
-203.08
-226.04
-243.68
-252.12
-248.94
-234.95
-212.68
-185.71
-157.50
-130.60
-106.54
-86.01
-69.27
-56.20
-46.70
-39.83
-34.02
-27.54
-19.20
-8.82
2.63
13.36
21.51
25.68
25.73
22.77
18.50
14.63
12.30
11.97
13.52
16.56
20.50
24.78
28.72
31.53
32.42
30.86
26.78
20.70
13.63
6.90
1.70
-1.20
-1.72
-0.54
1.23
2.48
2.50
1.30
-0.51
-1.95
-2.07
-0.27
3.43
8.36
13.51
17.84
20.75
22.25
22.84
23.16
23.59
23.92
23.58
22.07
19.20
15.23
10.61
5.72
0.83
-4.00
-8.66
-12.88
-16.34
-18.79
-20.02
-19.88
-18.37
-15.76
-12.72
-10.02
-8.20
-7.35
-7.11
-6.76
-5.46
-2.78
1.30
6.22
11.24
15.64
18.63
19.36
17.26
12.28
5.31
-1.98
-8.02
-11.41
-11.37
-8.22
-3.19
2.13
6.79
11.00
15.88
21.45
27.67
34.01
38.77
38.80
30.58
11.95
-16.85
-52.93
-93.46
-132.65
-162.26
-174.99
-167.73
-142.78
-106.87
-69.28
-39.29
-27.48
-37.49
-64.62
-99.51
-133.22
-159.85
-176.97
-184.99
-185.99
-187.02
-191.26
-196.39
-198.64
-196.91
-193.05
-189.53
-187.37
-155.18
-85.29
2.87
83.30
142.90
179.35
194.22
190.93
175.03
153.25
127.40
100.93
79.36
66.79
62.99
64.61
67.93
70.83
73.11
71.26
64.77
56.34
48.87
43.05
38.09
33.28
29.34
27.36
25.91
25.59
28.14
34.26
42.92
53.42
62.38
69.65
76.03
81.02
86.01
92.29
99.21
104.39
105.80
102.83
96.58
88.31
78.81
71.90
71.72
80.11
96.16
117.74
142.59
168.83
194.53
200.89
177.81
130.96
75.90
24.77
-18.60
-55.60
-88.60
-119.21
-146.36
-167.79
-180.55
-184.23
-181.38
-175.58
-169.86
-166.00
-164.46
-164.79
-164.15
-159.64
-150.75
-139.38
-128.16
-119.15
-113.45
-111.29
-112.18
-113.92
-114.03
-111.15
-104.81
-94.44
-79.13
-58.19
-32.11
-3.00
26.33
52.80
73.49
86.72
92.76
93.43
91.10
87.65
84.08
80.94
78.71
77.81
78.61
81.28
85.44
90.05
93.65
94.82
92.70
87.31
79.27
69.60
59.22
48.62
37.90
26.75
14.71
1.41
-13.28
-29.07
-45.08
-59.96
-71.88
-78.86
-79.23
-72.13
-57.90
-38.19
-15.73
6.30
25.16
39.19
48.14
53.09
55.91
58.57
62.56
68.42
75.87
84.11
92.49
100.85
109.46
118.70
128.49
138.12
146.40
152.34
155.60
156.64
156.16
154.40
150.68
143.37
130.81
111.99
87.24
58.26
27.74
-1.27
-25.88
-43.85
-53.93
-56.13
-51.66
-42.65
-31.51
-20.41
-10.77
-3.39
1.47
3.65
3.06
-0.11
-5.18
-10.97
-16.03
-19.14
-19.77
-18.31
-15.88
-13.83
-13.26
-14.59
-17.63
-21.77
-26.31
-30.72
-34.79
-38.59
-42.42
-46.67
-51.67
-57.61
-64.30
-71.04
-76.61
-79.42
-77.91
-71.02
-58.63
-41.68
-21.97
-1.71
17.02
32.70
44.49
52.19
56.02
56.41
53.99
49.57
44.20
39.05
35.19
33.21
33.09
34.07
34.91
34.42
31.74
26.71
19.81
11.88
3.82
-3.74
-10.54
-16.73
-22.70
-28.99
-36.12
-44.35
-53.48
-62.66
-70.35
-74.58
-73.52
-66.11
-52.52
-34.26
-13.74
6.47
24.34
38.75
49.52
56.92
61.40
63.29
62.92
60.77
57.58
54.31
51.79
50.45
50.10
50.07
49.47
47.60
44.09
39.00
32.72
25.70
18.39
11.11
4.05
-2.71
-9.22
-15.68
-22.39
-29.81
-38.28
-47.84
-57.95
-67.32
-74.15
-76.56
-73.28
-64.13
-50.23
-33.68
-16.94
-2.19
9.22
16.85
20.94
22.11
21.13
18.70
15.59
12.57
10.35
9.47
10.05
11.83
14.16
16.29
17.54
17.39
15.70
12.52
8.10
2.81
-2.93
-8.76
-14.41
-19.80
-24.95
-29.98
-35.08
-40.40
-46.11
-52.34
-58.94
-65.37
-70.58
-73.02
-71.12
-63.85
-51.21
-34.49
-15.90
2.03
17.21
28.44
35.52
38.99
39.69
38.47
36.06
33.04
29.98
27.37
25.54
24.57
24.24
24.08
23.58
22.24
19.78
16.12
11.38
5.79
-0.38
-6.82
-13.20
-19.14
-24.35
-28.70
-32.31
-35.63
-39.23
-43.71
-49.37
-56.03
-62.83
-68.36
-70.84
-68.70
-61.02
-47.96
-30.83
-11.81
6.61
22.38
34.24
41.84
45.52
45.93
43.82
39.94
35.04
29.91
25.38
22.04
20.13
19.47
19.53
19.67
19.29
17.99
15.56
12.06
7.64
2.62
-2.60
-7.65
-12.28
-16.45
-20.26
-24.00
-28.05
-32.80
-38.51
-45.12
-52.02
-57.94
-61.18
-60.04
-53.44
-41.50
-25.53
-7.79
9.24
23.57
34.08
40.55
43.34
43.06
40.33
35.84
30.32
24.66
19.65
15.96
13.83
13.08
13.24
13.69
13.87
13.30
11.63
8.69
4.44
-0.90
-6.85
-12.86
-18.38
-23.12
-27.07
-30.50
-33.86
-37.69
-42.42
-48.20
-54.75
-61.14
-65.88
-67.15
-63.41
-53.91
-39.14
-20.75
-1.11
17.36
32.79
44.17
51.26
54.38
54.10
51.12
46.28
40.53
34.84
29.96
26.23
23.47
21.18
18.80
15.99
12.79
9.44
6.21
3.12
-0.05
-3.65
-7.91
-12.84
-18.23
-23.66
-28.78
-33.32
-37.16
-40.46
-43.56
-47.02
-51.39
-56.94
-63.29
-69.24
-72.93
-72.37
-66.16
-54.08
-37.38
-18.32
0.46
16.75
29.28
37.80
42.73
44.77
44.51
42.39
38.92
34.73
30.66
27.57
25.99
25.95
26.92
28.04
28.49
27.75
25.78
22.85
19.39
15.66
11.67
7.22
2.14
-3.53
-9.36
-14.78
-19.19
-22.42
-24.77
-26.98
-30.00
-34.64
-41.21
-49.26
-57.60
-64.39
-67.53
-65.28
-56.73
-42.32
-23.75
-3.54
15.62
31.61
43.26
50.38
53.37
53.02
50.22
45.94
41.28
37.32
34.90
34.36
35.36
37.01
38.30
38.43
37.09
34.48
31.05
27.25
23.29
19.15
14.60
9.44
3.60
-2.80
-9.47
-16.01
-22.00
-27.14
-31.34
-34.81
-38.02
-41.64
-46.26
-52.05
-58.54
-64.37
-67.65
-66.41
-59.37
-46.48
-29.13
-9.69
9.23
25.49
37.98
46.49
51.42
53.34
52.75
50.14
46.20
41.89
38.29
36.20
35.87
36.88
38.34
39.33
39.23
37.91
35.59
32.52
28.83
24.46
19.31
13.41
6.94
0.19
-6.54
-13.12
-19.47
-25.52
-31.16
-36.26
-40.82
-45.13
-49.69
-55.11
-61.58
-68.50
-74.35
-76.98
-74.34
-65.38
-50.56
-31.93
-12.40
5.20
19.00
28.38
33.78
36.04
35.98
34.16
31.05
27.33
24.01
22.14
22.41
24.80
28.54
32.37
35.13
36.08
35.12
32.58
28.92
24.43
19.21
13.26
6.69
-0.12
-6.71
-12.55
-17.34
-21.06
-23.99
-26.63
-29.60
-33.44
-38.43
-44.41
-50.48
-55.14
-56.56
-53.12
-44.10
-30.02
-12.70
5.36
21.63
34.31
42.61
46.59
46.90
44.33
39.68
33.75
27.48
21.86
17.79
15.76
15.71
17.07
18.94
20.48
21.09
20.54
18.80
16.00
12.24
7.61
2.30
-3.44
-9.22
-14.66
-19.45
-23.54
-27.07
-30.45
-34.16
-38.70
-44.26
-50.53
-56.53
-60.75
-61.45
-57.26
-47.74
-33.65
-16.82
0.43
15.93
28.23
36.71
41.46
42.95
41.77
38.60
34.20
29.47
25.34
22.57
21.42
21.65
22.67
23.71
24.14
23.62
22.05
19.48
16.00
11.70
6.66
1.05
-4.84
-10.56
-15.71
-20.03
-23.59
-26.81
-30.31
-34.80
-40.68
-47.74
-55.05
-60.99
-63.67
-61.47
-53.67
-40.81
-24.60
-7.43
8.30
20.84
29.37
33.93
35.06
33.45
29.80
24.84
19.46
14.69
11.45
10.32
11.29
13.83
16.99
19.85
21.64
21.91
20.41
17.15
12.30
6.18
-0.72
-7.84
-14.62
-20.74
-26.11
-30.99
-35.79
-40.99
-46.94
-53.62
-60.42
-66.09
-68.87
-67.01
-59.39
-46.09
-28.57
-9.32
8.85
23.68
34.01
39.78
41.71
40.82
37.99
33.97
29.36
24.82
20.99
18.44
17.42
17.79
19.08
20.54
21.42
21.11
19.29
15.97
11.40
6.01
0.25
-5.43
-10.70
-15.36
-19.35
-22.82
-26.17
-29.92
-34.65
-40.69
-47.85
-55.24
-61.28
-64.01
-61.70
-53.49
-39.76
-22.15
-3.00
15.25
30.68
42.20
49.50
52.81
52.74
50.17
46.19
41.95
38.42
36.23
35.41
35.61
36.29
36.95
37.25
37.01
36.05
34.18
31.17
26.90
21.50
15.37
9.07
3.18
-1.93
-6.16
-9.72
-13.05
-16.64
-20.99
-26.47
-33.18
-40.63
-47.74
-52.86
-54.15
-50.13
-40.32
-25.60
-8.05
9.66
25.07
36.54
43.49
46.23
45.67
42.91
38.93
34.67
30.94
28.41
27.43
28.00
29.73
31.96
33.97
35.18
35.30
34.28
32.21
29.24
25.50
21.10
16.17
10.94
5.71
0.81
-3.58
-7.52
-11.28
-15.33
-20.25
-26.55
-34.44
-43.58
-52.94
-60.81
-65.21
-64.43
-57.66
-45.43
-29.53
-12.45
3.22
15.63
23.91
28.14
29.06
27.64
24.85
21.65
18.85
17.15
16.98
18.35
20.75
23.34
25.27
25.90
25.05
22.92
19.93
16.50
12.85
9.00
4.81
0.24
-4.63
-9.50
-13.91
-17.46
-19.97
-21.69
-23.27
-25.52
-29.16
-34.48
-41.08
-47.86
-53.16
-55.11
-52.26
-43.98
-30.72
-14.07
3.70
20.27
33.76
43.06
47.93
48.73
46.24
41.54
35.86
30.46
26.45
24.51
24.65
26.26
28.35
29.87
30.14
28.93
26.44
23.09
19.18
14.82
9.98
4.56
-1.34
-7.42
-13.21
-18.28
-22.37
-25.57
-28.24
-30.90
-34.20
-38.68
-44.58
-51.65
-58.96
-64.95
-67.72
-65.62
-57.81
-44.76
-28.16
-10.49
5.75
18.70
27.54
32.38
33.92
33.04
30.57
27.24
23.73
20.75
18.90
18.53
19.58
21.52
23.54
24.71
24.35
22.03
17.73
11.74
4.62
-2.97
-10.36
-17.01
-22.61
-27.08
-30.59
-33.51
-36.37
-39.73
-44.03
-49.41
-55.42
-60.97
-64.41
-63.96
-58.31
-47.17
-31.54
-13.49
4.45
20.00
31.70
39.24
43.04
43.98
42.88
40.30
36.74
32.73
28.96
26.09
24.49
24.06
24.25
24.34
23.72
22.18
19.72
16.53
12.64
8.02
2.65
-3.25
-9.20
-14.63
-19.12
-22.65
-25.66
-28.93
-33.17
-38.87
-45.87
-53.35
-59.96
-63.99
-63.99
-59.02
-49.10
-35.08
-18.58
-1.46
14.48
27.91
37.97
44.41
47.46
47.72
46.11
43.68
41.43
40.09
39.87
40.51
41.39
41.83
41.39
39.94
37.69
35.01
32.11
28.96
25.34
20.98
15.73
9.65
3.08
-3.44
-9.36
-14.26
-18.07
-21.08
-23.99
-27.71
-33.03
-40.31
-49.19
-58.46
-66.17
-70.22
-68.86
-61.42
-48.46
-31.67
-13.39
4.12
19.18
30.86
38.94
43.55
45.03
43.87
40.84
36.97
33.37
30.97
30.15
30.68
31.83
32.73
32.66
31.40
29.10
26.14
22.93
19.61
16.09
12.08
7.30
1.67
-4.58
-10.96
-16.89
-21.87
-25.79
-28.89
-31.81
-35.34
-40.13
-46.52
-54.19
-62.15
-68.78
-72.15
-70.56
-63.11
-50.13
-33.13
-14.43
3.57
18.99
30.93
39.39
44.88
48.00
49.18
48.76
47.08
44.72
42.46
41.08
40.99
42.07
43.65
44.75
44.53
42.57
38.99
34.33
29.22
24.06
18.85
13.29
7.00
-0.11
-7.80
-15.40
-22.22
-27.73
-31.91
-35.17
-38.25
-41.90
-46.76
-53.12
-60.84
-69.17
-76.78
-81.86
-82.57
-77.56
-66.59
-50.67
-31.90
-12.79
4.47
18.51
28.92
36.02
40.46
42.82
43.56
43.15
42.11
41.09
40.70
41.30
42.79
44.62
45.94
45.98
44.37
41.22
37.09
32.66
28.41
24.41
20.31
15.60
9.91
3.30
-3.75
-10.49
-16.26
-20.86
-24.56
-28.07
-32.15
-37.41
-44.07
-51.91
-60.21
-67.80
-73.11
-74.42
-70.32
-60.22
-44.72
-25.57
-5.28
13.64
29.33
40.95
48.62
53.00
54.85
54.76
53.20
50.60
47.55
44.74
42.86
42.25
42.78
43.82
44.47
43.92
41.80
38.29
33.98
29.49
25.13
20.79
16.02
10.27
3.33
-4.59
-12.91
-20.85
-27.81
-33.53
-38.11
-41.92
-45.51
-49.48
-54.29
-60.15
-66.80
-73.41
-78.54
-80.42
-77.47
-68.84
-54.86
-37.03
-17.61
1.04
17.10
29.60
38.38
43.77
46.27
46.46
44.92
42.45
39.96
38.39
38.32
39.76
42.13
44.46
45.72
45.25
42.94
39.20
34.75
30.18
25.79
21.41
16.64
11.13
4.79
-2.02
-8.68
-14.56
-19.30
-22.97
-26.04
-29.14
-32.79
-37.34
-42.86
-49.26
-56.24
-63.23
-69.22
-72.77
-72.27
-66.46
-55.11
-39.18
-20.77
-2.40
13.77
26.51
35.65
41.63
45.05
46.27
45.48
42.90
39.12
35.12
31.99
30.51
30.76
32.08
33.35
33.48
31.86
28.61
24.43
20.19
16.49
13.34
10.29
6.62
1.77
-4.32
-11.15
-17.87
-23.64
-28.01
-31.10
-33.44
-35.80
-38.87
-43.08
-48.50
-54.85
-61.42
-67.01
-70.06
-68.97
-62.59
-50.83
-34.82
-16.69
1.12
16.62
28.78
37.55
43.40
46.90
48.41
48.15
46.39
43.69
40.86
38.70
37.72
37.92
38.83
39.66
39.62
38.17
35.16
30.86
25.80
20.57
15.60
10.96
6.43
1.58
-3.87
-9.90
-16.05
-21.70
-26.29
-29.71
-32.32
-34.91
-38.31
-43.13
-49.55
-57.24
-65.40
-72.80
-77.90
-79.16
-75.42
-66.30
-52.46
-35.58
-17.85
-1.36
12.34
22.50
28.98
32.09
32.28
30.17
26.61
22.60
19.22
17.29
17.18
18.65
21.00
23.36
24.93
25.21
24.07
21.70
18.52
15.03
11.55
8.15
4.57
0.49
-4.34
-9.72
-15.10
-19.72
-22.99
-24.81
-25.61
-26.23
-27.55
-30.23
-34.57
-40.39
-47.06
-53.42
-57.91
-58.81
-54.70
-44.94
-29.94
-11.22
9.04
28.57
45.58
59.06
68.76
75.06
78.61
80.13
80.30
79.75
79.02
78.61
78.80
79.61
80.65
81.25
80.64
78.22
73.80
67.56
60.05
51.86
43.52
35.33
27.39
19.64
12.00
4.46
-2.83
-9.51
-15.14
-19.42
-22.33
-24.28
-26.04
-28.52
-32.46
-38.26
-45.75
-54.26
-62.55
-69.08
-72.23
-70.70
-63.96
-52.42
-37.50
-21.15
-5.41
7.98
17.99
24.29
27.19
27.44
26.01
23.79
21.54
19.64
18.24
17.29
16.58
15.86
14.83
13.24
10.98
8.07
4.78
1.42
-1.69
-4.45
-6.92
-9.26
-11.59
-13.98
-16.35
-18.44
-19.97
-20.67
-20.52
-19.84
-19.37
-20.16
-23.15
-28.72
-36.36
-44.69
-51.78
-55.74
-55.28
-50.18
-41.29
-30.23
-18.88
-8.81
-0.81
5.07
9.30
12.43
14.83
16.59
17.73
18.45
19.22
20.56
22.80
25.76
28.83
31.15
32.01
31.14
28.77
25.50
22.01
18.78
15.89
13.06
9.79
5.65
0.51
-5.35
-11.35
-16.85
-21.49
-25.33
-28.78
-32.44
-36.81
-42.14
-48.43
-55.39
-62.34
-68.19
-71.55
-70.97
-65.54
-55.29
-41.31
-25.51
-10.06
3.31
13.64
20.74
24.93
26.63
26.29
24.36
21.42
18.30
15.94
15.13
16.24
19.05
22.79
26.42
28.98
29.93
29.22
27.24
24.59
21.78
19.13
16.55
13.74
10.28
5.90
0.61
-5.25
-11.14
-16.55
-21.16
-25.08
-28.74
-32.80
-37.86
-44.28
-51.88
-59.87
-66.85
-71.11
-71.07
-65.80
-55.40
-41.07
-24.78
-8.74
5.20
15.95
23.20
27.22
28.54
27.68
25.19
21.70
17.92
14.67
12.66
12.23
13.25
15.13
17.00
18.06
17.87
16.49
14.36
12.02
9.93
8.20
6.63
4.79
2.31
-0.91
-4.62
-8.36
-11.64
-14.16
-15.89
-17.12
-18.35
-20.06
-22.70
-26.53
-31.45
-36.92
-41.90
-44.83
-44.13
-38.64
-28.16
-13.70
2.73
18.72
32.15
41.74
47.10
48.62
46.99
43.00
37.42
31.04
24.88
19.98
17.23
16.99
18.94
22.16
25.49
27.86
28.69
27.92
25.97
23.47
20.97
18.77
16.82
14.91
12.77
10.30
7.58
4.84
2.34
0.20
-1.66
-3.55
-5.85
-8.96
-13.21
-18.82
-25.93
-34.33
-43.34
-51.72
-57.83
-59.97
-57.02
-48.86
-36.55
-22.09
-7.78
4.40
13.40
19.03
21.79
22.44
21.72
20.23
18.52
17.20
16.89
18.16
21.19
25.69
30.87
35.79
39.59
41.87
42.73
42.69
42.46
42.50
42.94
43.52
43.91
43.90
43.62
43.53
44.20
46.00
48.80
51.94
54.30
54.53
51.43
44.26
32.98
18.29
1.61
-15.28
-30.58
-42.92
-51.84
-57.89
-62.43
-67.36
-74.26
-83.96
-96.16
-109.40
-121.62
-130.83
-135.88
-136.78
-134.82
-131.85
-129.72
-129.63
-131.86
-135.92
-141.02
-146.30
-151.05
-154.57
-155.90
-153.96
-147.76
-136.90
-121.77
-103.51
-83.53
-63.07
-42.92
-23.43
-4.80
12.60
28.24
41.36
51.27
57.38
59.37
57.39
52.37
46.28
41.78
41.72
47.97
60.79
78.64
98.81
118.34
134.96
147.34
154.87
157.37
154.94
148.07
137.83
125.98
114.46
104.84
97.79
92.91
89.11
85.20
80.40
74.59
68.16
61.67
55.39
49.24
42.73
35.32
26.70
16.98
6.72
-3.30
-12.37
-20.14
-26.68
-32.44
-38.00
-43.88
-50.37
-57.49
-64.82
-71.51
-76.26
-77.54
-74.17
-65.76
-53.07
-37.89
-22.46
-8.76
2.01
9.47
13.84
15.51
14.89
12.43
8.84
5.23
2.87
2.86
5.72
11.32
19.02
27.92
37.08
45.68
52.97
58.24
60.78
59.97
55.44
47.14
35.36
20.60
3.51
-15.11
-34.42
-53.41
-70.96
-85.95
-97.59
-105.62
-110.44
-112.86
-113.56
-112.69
-109.65
-103.17
-91.87
-74.95
-52.73
-26.75
0.63
26.90
50.16
69.41
84.53
95.85
103.68
108.15
109.39
107.81
104.18
99.53
94.74
90.11
85.25
79.45
72.10
63.17
53.39
43.85
35.68
29.63
26.03
24.91
26.30
30.30
36.80
45.20
54.14
61.68
65.69
64.67
58.20
47.25
33.87
20.52
9.36
1.81
-1.62
-1.26
1.97
6.86
12.29
17.47
22.08
26.27
30.45
34.99
39.80
44.32
47.57
48.55
46.57
41.40
33.40
23.27
11.63
-1.11
-14.91
-29.69
-44.93
-59.55
-72.11
-81.33
-86.75
-88.90
-89.14
-88.87
-88.97
-89.34
-89.23
-87.79
-84.81
-81.04
-78.05
-77.60
-80.93
-88.22
-98.34
-109.15
-118.07
-122.97
-122.79
-117.63
-108.45
-96.44
-82.53
-67.21
-50.79
-33.80
-17.22
-2.27
10.25
20.47
29.57
39.27
50.93
64.71
79.23
92.04
100.60
103.31
100.21
92.78
83.28
73.71
65.02
57.00
48.71
39.16
27.96
15.64
3.35
-7.43
-15.42
-19.85
-20.58
-18.22
-14.18
-10.53
-9.70
-13.71
-23.33
-37.53
-53.36
-66.85
-74.14
-72.91
-63.07
-46.65
-26.88
-7.04
10.46
24.33
34.08
39.50
40.45
36.98
29.72
20.10
10.00
1.11
-5.80
-11.17
-16.31
-22.60
-30.69
-40.12
-49.64
-57.79
-63.64
-67.05
-68.48
-68.61
-67.82
-66.08
-63.09
-58.59
-52.65
-45.76
-38.74
-32.41
-27.35
-23.70
-21.12
-18.88
-15.98
-11.36
-4.05
6.59
20.61
37.40
55.64
73.61
89.54
102.18
111.08
116.60
119.60
121.04
121.63
121.63
120.98
119.32
116.22
111.17
103.77
93.75
81.26
67.08
52.68
39.90
30.37
24.80
22.61
22.08
21.08
18.05
12.60
5.64
-1.31
-6.92
-10.91
-14.12
-18.01
-23.77
-31.64
-40.75
-49.48
-56.09
-59.10
-57.58
-51.14
-39.96
-24.92
-7.73
9.24
23.47
33.16
37.95
39.10
38.88
39.54
42.18
46.37
50.59
53.10
53.01
50.64
47.25
44.31
42.69
42.37
42.73
43.04
42.96
42.50
41.79
40.63
38.42
34.46
28.41
20.59
11.99
3.79
-3.24
-9.02
-14.21
-19.77
-26.45
-34.34
-42.68
-49.99
-54.40
-54.19
-48.42
-37.32
-22.38
-5.90
9.76
22.92
33.00
40.40
45.85
49.87
52.39
52.99
51.30
47.48
42.28
36.72
31.65
27.34
23.46
19.35
14.38
8.31
1.37
-5.95
-13.07
-19.55
-25.16
-29.92
-34.02
-37.73
-41.26
-44.70
-48.03
-51.17
-54.18
-57.35
-61.10
-65.89
-71.82
-78.49
-84.85
-89.34
-90.26
-86.27
-76.80
-62.25
-43.99
-23.89
-3.84
14.64
30.67
43.81
53.91
60.91
64.90
66.17
65.29
63.05
60.24
57.42
54.83
52.38
49.75
46.49
42.18
36.56
29.62
21.69
13.30
4.95
-3.09
-10.88
-18.65
-26.57
-34.49
-42.03
-48.86
-54.88
-60.37
-65.68
-71.00
-76.09
-80.47
-83.71
-85.83
-87.35
-88.94
-90.94
-92.87
-93.40
-90.83
-83.80
-72.01
-56.38
-38.72
-21.00
-4.75
9.30
21.09
30.84
38.64
44.38
48.00
49.74
50.35
50.93
52.57
55.85
60.58
65.85
70.45
73.31
73.94
72.45
69.36
65.25
60.52
55.27
49.44
43.02
36.19
29.30
22.72
16.67
11.19
6.14
1.35
-3.29
-7.81
-12.31
-16.97
-22.18
-28.29
-35.43
-43.19
-50.56
-56.04
-58.17
-55.97
-49.36
-39.15
-26.81
-13.92
-1.71
9.17
18.55
26.50
33.06
38.06
41.23
42.39
41.70
39.73
37.26
35.09
33.66
32.93
32.42
31.45
29.50
26.36
22.18
17.37
12.37
7.45
2.68
-2.10
-7.16
-12.71
-18.80
-25.18
-31.40
-36.91
-41.32
-44.58
-47.01
-49.26
-52.00
-55.74
-60.62
-66.37
-72.35
-77.63
-81.11
-81.67
-78.38
-70.80
-59.13
-44.34
-27.98
-11.84
2.42
13.77
21.84
27.01
30.04
31.77
32.87
33.72
34.52
35.43
36.66
38.38
40.58
42.92
44.76
45.37
44.26
41.30
36.89
31.70
26.45
21.60
17.25
13.12
8.75
3.76
-1.94
-8.11
-14.23
-19.80
-24.52
-28.42
-31.86
-35.27
-39.02
-43.28
-48.05
-53.18
-58.35
-62.95
-66.08
-66.62
-63.55
-56.41
-45.62
-32.41
-18.53
-5.62
5.21
13.63
19.87
24.40
27.63
29.77
30.95
31.44
31.71
32.42
34.14
37.08
40.91
44.82
47.81
49.07
48.31
45.86
42.50
39.11
36.23
33.91
31.74
29.11
25.54
20.91
15.45
9.60
3.79
-1.77
-7.12
-12.41
-17.84
-23.52
-29.52
-35.99
-43.00
-50.47
-57.85
-64.05
-67.60
-67.12
-61.92
-52.41
-40.04
-26.70
-14.12
-3.36
5.29
11.98
16.95
20.20
21.68
21.50
20.17
18.60
17.76
18.35
20.44
23.42
26.32
28.15
28.34
26.93
24.44
21.57
18.84
16.27
13.50
10.02
5.53
0.19
-5.39
-10.50
-14.60
-17.61
-19.89
-22.00
-24.40
-27.31
-30.73
-34.60
-38.90
-43.71
-48.91
-54.04
-58.07
-59.66
-57.58
-51.27
-41.08
-28.33
-14.83
-2.34
7.95
15.59
20.71
23.76
25.19
25.37
24.63
23.37
22.14
21.49
21.84
23.25
25.37
27.58
29.23
29.86
29.34
27.86
25.77
23.45
21.14
18.91
16.62
14.06
10.99
7.33
3.12
-1.42
-6.03
-10.51
-14.78
-18.89
-22.97
-27.21
-31.74
-36.71
-42.22
-48.24
-54.46
-60.15
-64.20
-65.41
-62.82
-56.22
-46.21
-34.09
-21.39
-9.39
1.17
10.07
17.43
23.35
27.85
30.87
32.47
32.96
32.90
32.90
33.43
34.59
36.12
37.53
38.28
37.92
36.33
33.59
30.04
26.04
21.93
17.83
13.66
9.22
4.27
-1.26
-7.21
-13.22
-18.87
-23.81
-27.95
-31.45
-34.67
-38.09
-42.18
-47.23
-53.22
-59.67
-65.54
-69.42
-69.85
-65.76
-56.95
-44.18
-28.99
-13.28
1.27
13.48
22.84
29.35
33.33
35.22
35.55
34.93
34.06
33.61
34.05
35.54
37.78
40.19
42.02
42.68
41.91
39.82
36.84
33.49
30.20
27.12
24.18
21.04
17.37
12.92
7.74
2.11
-3.49
-8.59
-12.90
-16.38
-19.27
-21.98
-25.02
-28.82
-33.66
-39.55
-46.06
-52.32
-57.06
-58.89
-56.72
-50.15
-39.69
-26.62
-12.61
0.72
12.23
21.38
28.10
32.63
35.29
36.39
36.26
35.30
33.98
32.72
31.85
31.46
31.37
31.31
30.91
29.95
28.40
26.39
24.12
21.76
19.35
16.84
14.13
11.05
7.50
3.39
-1.23
-6.16
-11.14
-15.90
-20.26
-24.34
-28.44
-33.06
-38.60
-45.18
-52.48
-59.64
-65.43
-68.42
-67.41
-61.83
-51.94
-38.89
-24.36
-10.18
2.23
12.04
19.06
23.50
25.72
26.13
25.11
23.13
20.80
18.79
17.65
17.56
18.33
19.42
20.17
20.10
19.06
17.24
14.97
12.56
10.11
7.51
4.58
1.27
-2.29
-5.76
-8.83
-11.27
-13.11
-14.58
-16.00
-17.76
-20.22
-23.67
-28.29
-34.07
-40.60
-47.08
-52.38
-55.19
-54.45
-49.61
-40.91
-29.32
-16.33
-3.54
7.72
16.65
23.03
27.01
28.99
29.36
28.56
27.09
25.59
24.73
25.05
26.67
29.22
31.92
33.85
34.33
33.06
30.21
26.22
21.62
16.85
12.12
7.43
2.67
-2.22
-7.21
-12.14
-16.83
-21.23
-25.52
-30.03
-35.10
-40.92
-47.40
-54.22
-60.98
-67.37
-73.23
-78.38
-82.46
-84.94
-85.30
-83.21
-78.82
-72.67
-65.64
-58.61
-52.12
-46.35
-41.17
-36.40
-31.96
-27.85
-23.96
-19.97
-15.20
-8.91
-0.57
9.87
21.80
34.18
45.87
55.96
64.04
70.25
75.06
79.02
82.52
85.72
88.52
90.83
92.72
94.54
96.84
100.14
104.51
109.45
113.98
116.96
117.49
115.32
110.87
105.03
98.87
93.26
88.82
85.75
83.81
82.36
80.38
76.68
70.19
60.28
46.90
30.63
12.37
-6.71
-25.28
-41.84
-54.76
-62.66
-64.82
-61.64
-54.66
-46.25
-38.87
-34.30
-33.27
-35.47
-40.03
-45.96
-52.48
-59.04
-65.18
-70.48
-74.50
-76.95
-77.71
-76.82
-74.37
-70.47
-65.26
-59.07
-52.39
-45.90
-40.32
-36.18
-33.69
-32.68
-32.54
-32.36
-31.00
-27.46
-21.27
-12.76
-3.02
6.41
14.22
19.75
23.12
24.97
26.02
26.63
26.83
26.53
25.82
25.08
24.88
25.69
27.59
30.16
32.69
34.45
35.08
34.64
33.54
32.29
31.21
30.27
29.12
27.31
24.55
20.86
16.56
12.16
8.08
4.60
1.79
-0.50
-2.51
-4.59
-7.13
-10.50
-14.82
-19.81
-24.65
-28.11
-28.86
-25.94
-19.10
-8.88
3.54
16.70
29.33
40.49
49.70
56.76
61.64
64.37
65.05
63.91
61.26
57.49
53.03
48.16
43.09
37.90
32.63
27.36
22.19
17.28
12.75
8.60
4.70
0.83
-3.26
-7.70
-12.49
-17.43
-22.23
-26.63
-30.49
-33.80
-36.70
-39.36
-41.99
-44.89
-48.37
-52.79
-58.31
-64.62
-70.79
-75.31
-76.50
-73.07
-64.65
-52.02
-36.91
-21.37
-7.15
4.81
14.39
22.04
28.28
33.34
37.14
39.45
40.23
39.77
38.69
37.64
37.10
37.14
37.48
37.63
37.17
35.88
33.86
31.38
28.78
26.23
23.65
20.73
17.04
12.29
6.52
0.15
-6.16
-11.78
-16.38
-20.04
-23.24
-26.64
-30.84
-36.20
-42.75
-50.14
-57.69
-64.33
-68.81
-69.91
-66.81
-59.37
-48.29
-34.93
-20.89
-7.64
3.89
13.35
20.81
26.51
30.71
33.61
35.42
36.45
37.10
37.78
38.64
39.54
40.08
39.74
38.13
35.21
31.27
26.86
22.53
18.61
15.04
11.45
7.33
2.28
-3.77
-10.53
-17.46
-24.00
-29.73
-34.53
-38.50
-41.88
-44.96
-48.06
-51.50
-55.45
-59.80
-63.98
-67.00
-67.65
-64.92
-58.42
-48.56
-36.47
-23.65
-11.52
-1.03
7.32
13.49
17.70
20.22
21.43
21.79
21.88
22.29
23.49
25.58
28.27
30.96
32.95
33.78
33.30
31.67
29.18
26.08
22.53
18.52
14.10
9.36
4.46
-0.39
-5.06
-9.41
-13.37
-16.83
-19.70
-21.96
-23.74
-25.37
-27.34
-30.15
-34.15
-39.25
-44.88
-49.93
-53.00
-52.89
-48.90
-41.16
-30.55
-18.37
-5.99
5.55
15.62
23.95
30.51
35.36
38.56
40.26
40.73
40.37
39.65
38.98
38.60
38.55
38.61
38.44
37.71
36.30
34.28
31.91
29.43
26.94
24.35
21.45
17.98
13.78
8.88
3.43
-2.26
-7.84
-12.97
-17.47
-21.36
-24.91
-28.59
-32.87
-37.99
-43.78
-49.53
-54.15
-56.45
-55.44
-50.69
-42.50
-31.81
-19.98
-8.39
1.88
10.25
16.62
21.22
24.36
26.26
27.12
27.17
26.75
26.31
26.27
26.78
27.67
28.43
28.55
27.68
25.85
23.43
20.87
18.48
16.25
13.84
10.86
7.04
2.46
-2.51
-7.34
-11.53
-14.90
-17.55
-19.85
-22.34
-25.51
-29.76
-35.17
-41.42
-47.69
-52.79
-55.38
-54.48
-49.76
-41.68
-31.34
-20.07
-9.07
0.87
9.34
16.20
21.34
24.72
26.43
26.74
26.19
25.44
25.10
25.46
26.47
27.71
28.62
28.72
27.78
25.88
23.38
20.66
17.96
15.26
12.38
9.07
5.23
0.99
-3.34
-7.38
-10.92
-13.90
-16.51
-19.07
-21.96
-25.57
-30.18
-35.87
-42.37
-48.95
-54.41
-57.33
-56.47
-51.26
-42.05
-30.06
-16.97
-4.41
6.56
15.52
22.53
27.75
31.24
32.96
33.00
31.77
30.03
28.69
28.42
29.37
31.10
32.81
33.71
33.37
31.80
29.38
26.63
23.86
21.08
18.05
14.45
10.10
5.05
-0.41
-5.88
-11.08
-15.95
-20.64
-25.44
-30.68
-36.60
-43.37
-50.98
-59.18
-67.38
-74.58
-79.45
-80.64
-77.19
-68.93
-56.63
-41.81
-26.28
-11.75
0.64
10.37
17.36
21.80
24.01
24.32
23.17
21.18
19.01
17.34
16.58
16.79
17.72
18.85
19.72
20.04
19.79
19.13
18.20
17.02
15.40
13.06
9.77
5.55
0.67
-4.42
-9.23
-13.47
-17.13
-20.51
-24.08
-28.38
-33.79
-40.32
-47.48
-54.24
-59.20
-60.94
-58.48
-51.56
-40.84
-27.64
-13.55
-0.05
11.81
21.45
28.61
33.27
35.54
35.70
34.30
32.16
30.18
29.14
29.39
30.81
32.83
34.69
35.77
35.74
34.64
32.75
30.37
27.64
24.52
20.84
16.45
11.40
5.89
0.33
-4.95
-9.67
-13.81
-17.53
-21.22
-25.43
-30.70
-37.42
-45.48
-54.08
-61.74
-66.57
-66.89
-61.77
-51.44
-37.25
-21.17
-5.14
9.40
21.71
31.59
39.03
44.02
46.59
46.96
45.73
43.87
42.51
42.51
44.17
47.11
50.46
53.26
54.78
54.77
53.50
51.39
48.87
46.12
42.98
39.19
34.47
28.80
22.43
15.83
9.48
3.76
-1.16
-5.37
-9.13
-12.91
-17.25
-22.72
-29.55
-37.42
-45.19
-51.04
-52.98
-49.57
-40.53
-27.00
-11.13
4.67
18.45
29.22
36.90
41.90
44.69
45.44
44.27
41.35
37.30
33.03
29.55
27.48
26.82
26.93
26.81
25.64
23.08
19.44
15.43
11.78
8.82
6.37
3.81
0.44
-4.16
-9.85
-16.03
-21.86
-26.64
-30.14
-32.65
-34.87
-37.54
-41.29
-46.33
-52.52
-59.25
-65.49
-69.92
-71.14
-67.98
-60.03
-47.83
-32.76
-16.67
-1.38
11.80
22.19
29.59
34.13
36.09
35.91
34.29
32.07
30.16
29.28
29.68
31.14
33.06
34.73
35.57
35.30
33.95
31.70
28.74
25.14
20.82
15.66
9.63
3.01
-3.70
-9.87
-14.95
-18.74
-21.46
-23.67
-26.04
-29.17
-33.37
-38.58
-44.34
-49.78
-53.75
-55.02
-52.64
-46.24
-36.31
-24.07
-11.21
0.67
10.47
17.75
22.65
25.55
26.90
27.14
26.72
26.20
26.14
26.98
28.77
31.11
33.32
34.68
34.76
33.55
31.34
28.50
25.30
21.72
17.64
12.93
7.70
2.24
-2.98
-7.53
-11.18
-14.01
-16.39
-18.91
-22.22
-26.77
-32.68
-39.54
-46.31
-51.60
-53.92
-52.21
-46.19
-36.48
-24.45
-11.78
-0.02
9.83
17.33
22.48
25.50
26.72
26.47
25.28
23.76
22.59
22.22
22.73
23.80
24.88
25.37
24.88
23.31
20.76
17.34
13.09
7.93
1.79
-5.29
-13.08
-21.10
-28.80
-35.56
-40.85
-44.42
-46.28
-46.87
-46.88
-47.13
-48.22
-50.31
-52.86
-54.81
-54.77
-51.56
-44.68
-34.49
-22.15
-9.29
2.53
12.24
19.47
24.42
27.60
29.58
30.80
31.62
32.43
33.66
35.70
38.79
42.82
47.30
51.49
54.60
56.06
55.68
53.62
50.25
46.00
41.15
35.77
29.89
23.53
16.90
10.40
4.45
-0.68
-5.07
-9.21
-13.83
-19.59
-26.80
-35.09
-43.45
-50.39
-54.35
-54.19
-49.49
-40.75
-29.23
-16.57
-4.35
6.26
14.73
21.01
25.36
28.12
29.56
29.92
29.49
28.67
27.93
27.65
27.97
28.69
29.40
29.59
28.93
27.34
25.03
22.28
19.30
16.16
12.72
8.85
4.52
-0.05
-4.50
-8.45
-11.72
-14.47
-17.13
-20.34
-24.59
-30.11
-36.61
-43.30
-49.01
-52.38
-52.29
-48.15
-40.12
-29.17
-16.78
-4.54
6.24
14.77
20.82
24.54
26.28
26.45
25.55
24.13
22.77
21.87
21.64
21.94
22.41
22.66
22.43
21.70
20.55
19.09
17.29
14.97
11.90
7.98
3.33
-1.66
-6.51
-10.82
-14.42
-17.45
-20.32
-23.54
-27.53
-32.47
-38.15
-43.98
-49.00
-52.08
-52.22
-48.81
-41.89
-32.15
-20.81
-9.32
1.09
9.60
15.91
20.10
22.48
23.41
23.28
22.44
21.26
20.13
19.34
19.02
19.14
19.52
19.88
19.94
19.41
18.05
15.74
12.53
8.62
4.35
0.03
-4.14
-8.07
-11.82
-15.45
-19.02
-22.59
-26.34
-30.56
-35.50
-41.09
-46.67
-51.04
-52.72
-50.51
-44.06
-33.99
-21.75
-9.09
2.49
12.11
19.50
24.86
28.53
30.79
31.87
32.05
31.65
31.06
30.60
30.46
30.58
30.71
30.53
29.78
28.36
26.35
23.90
21.18
18.20
14.88
11.09
6.73
1.91
-3.11
-7.98
-12.42
-16.37
-20.08
-24.03
-28.78
-34.69
-41.65
-48.93
-55.24
-59.04
-59.04
-54.64
-46.19
-34.88
-22.33
-10.07
0.84
9.98
17.38
23.24
27.68
30.73
32.43
32.96
32.74
32.29
32.05
32.19
32.54
32.71
32.32
31.21
29.55
27.68
25.90
24.22
22.29
19.58
15.68
10.60
4.79
-1.03
-6.15
-10.24
-13.40
-16.11
-19.01
-22.63
-27.36
-33.32
-40.34
-47.80
-54.65
-59.47
-60.83
-57.76
-50.14
-38.84
-25.46
-11.87
0.39
10.37
17.86
23.18
26.84
29.32
30.95
31.90
32.38
32.63
32.95
33.59
34.51
35.36
35.59
34.76
32.76
30.00
27.11
24.67
22.75
20.94
18.51
14.90
10.09
4.59
-0.76
-5.31
-8.86
-11.74
-14.54
-17.77
-21.72
-26.40
-31.71
-37.50
-43.65
-49.76
-54.97
-58.01
-57.48
-52.46
-43.00
-30.25
-16.15
-2.72
8.59
17.29
23.72
28.59
32.45
35.49
37.55
38.47
38.40
37.83
37.42
37.68
38.68
40.03
41.06
41.12
39.90
37.59
34.68
31.74
29.10
26.76
24.39
21.56
18.01
13.78
9.23
4.77
0.72
-2.84
-6.06
-9.20
-12.56
-16.37
-20.86
-26.16
-32.22
-38.60
-44.40
-48.38
-49.36
-46.66
-40.37
-31.45
-21.27
-11.20
-2.15
5.53
11.87
16.98
20.83
23.28
24.24
23.91
22.87
21.95
21.86
22.91
24.88
27.10
28.77
29.33
28.63
26.92
24.67
22.29
19.94
17.51
14.78
11.53
7.71
3.40
-1.19
-5.85
-10.39
-14.75
-18.87
-22.74
-26.39
-29.93
-33.56
-37.56
-42.13
-47.16
-52.08
-55.87
-57.30
-55.36
-49.72
-40.89
-30.09
-18.82
-8.36
0.53
7.70
13.36
17.80
21.18
23.51
24.75
25.01
24.64
24.16
24.10
24.73
25.95
27.30
28.15
27.97
26.55
24.09
21.07
18.01
15.24
12.78
10.41
7.81
4.74
1.15
-2.86
-7.04
-11.14
-14.98
-18.46
-21.64
-24.59
-27.48
-30.48
-33.80
-37.62
-41.96
-46.49
-50.39
-52.54
-51.74
-47.28
-39.24
-28.59
-16.92
-5.81
3.60
10.95
16.45
20.56
23.64
25.75
26.86
27.01
26.49
25.84
25.59
26.01
27.01
28.16
28.89
28.84
27.91
26.34
24.49
22.66
20.92
19.19
17.28
15.04
12.42
9.47
6.25
2.83
-0.68
-4.12
-7.33
-10.17
-12.73
-15.26
-18.19
-21.98
-26.82
-32.65
-39.01
-45.13
-50.12
-53.08
-53.27
-50.39
-44.56
-36.40
-26.85
-16.94
-7.56
0.69
7.51
12.78
16.50
18.70
19.53
19.29
18.40
17.43
16.88
17.04
17.95
19.29
20.56
21.26
21.02
19.76
17.70
15.16
12.45
9.71
6.91
3.86
0.42
-3.42
-7.47
-11.40
-14.87
-17.69
-19.84
-21.52
-23.02
-24.63
-26.57
-28.95
-31.78
-34.95
-38.19
-40.96
-42.51
-42.04
-39.02
-33.54
-26.35
-18.68
-11.78
-6.50
-3.02
-0.94
0.41
1.62
2.99
4.55
6.23
8.03
10.13
12.75
16.13
20.24
24.84
29.44
33.42
36.22
37.56
37.45
36.17
34.12
31.57
28.63
25.29
21.50
17.33
13.05
9.02
5.61
3.10
1.53
0.77
0.47
0.27
-0.19
-1.15
-2.74
-4.94
-7.50
-10.00
-11.85
-12.34
-10.81
-6.91
-0.87
6.49
14.02
20.53
25.24
27.93
28.85
28.50
27.27
25.34
22.69
19.34
15.42
11.29
7.40
4.05
1.28
-1.19
-3.83
-7.08
-11.19
-16.07
-21.40
-26.68
-31.51
-35.67
-39.19
-42.24
-45.10
-47.91
-50.72
-53.38
-55.66
-57.33
-58.27
-58.53
-58.30
-57.87
-57.55
-57.62
-58.33
-59.73
-61.68
-63.57
-64.45
-63.14
-58.64
-50.59
-39.48
-26.58
-13.51
-1.68
8.14
15.94
22.23
27.61
32.42
36.71
40.29
43.05
45.10
46.82
48.65
50.85
53.32
55.60
57.03
56.99
55.18
51.70
47.04
41.86
36.72
31.89
27.31
22.73
17.89
12.70
7.31
2.03
-2.84
-7.08
-10.66
-13.72
-16.53
-19.40
-22.64
-26.52
-31.14
-36.31
-41.46
-45.63
-47.73
-46.80
-42.40
-34.76
-24.81
-13.87
-3.28
6.00
13.50
19.22
23.41
26.37
28.29
29.31
29.61
29.49
29.35
29.58
30.35
31.57
32.86
33.72
33.71
32.67
30.73
28.26
25.70
23.36
21.26
19.15
16.70
13.68
10.12
6.36
2.86
-0.04
-2.29
-4.22
-6.36
-9.30
-13.39
-18.67
-24.80
-31.04
-36.37
-39.73
-40.26
-37.52
-31.62
-23.16
-13.03
-2.23
8.34
17.91
25.91
32.02
36.16
38.54
39.53
39.66
39.45
39.39
39.86
41.01
42.66
44.15
44.42
42.40
37.51
29.98
20.89
11.73
3.74
-2.49
-7.31
-11.53
-15.96
-20.97
-26.38
-31.64
-36.32
-40.27
-43.87
-47.77
-52.56
-58.56
-65.66
-73.34
-80.80
-87.09
-91.37
-92.83
-90.88
-85.15
-75.64
-62.82
-47.70
-31.69
-16.37
-3.08
7.48
15.26
20.77
24.73
27.75
30.14
31.97
33.18
33.77
33.82
33.39
32.50
31.07
29.08
26.64
24.11
21.94
20.46
19.68
19.18
18.23
16.09
12.29
6.89
0.43
-6.21
-12.18
-16.97
-20.53
-23.28
-25.91
-29.12
-33.38
-38.69
-44.43
-49.43
-52.18
-51.37
-46.24
-37.03
-24.89
-11.51
1.42
12.73
21.94
29.15
34.61
38.46
40.66
41.18
40.19
38.23
36.06
34.42
33.74
34.03
34.95
36.02
36.83
37.15
36.99
36.48
35.76
34.87
33.69
31.93
29.28
25.52
20.65
14.96
8.92
2.98
-2.63
-7.92
-13.12
-18.53
-24.35
-30.67
-37.44
-44.43
-51.23
-57.13
-61.21
-62.54
-60.51
-55.09
-46.91
-37.03
-26.64
-16.71
-7.78
-0.12
6.20
11.12
14.59
16.73
17.90
18.76
20.03
22.24
25.49
29.44
33.44
36.87
39.32
40.74
41.30
41.25
40.75
39.86
38.56
36.80
34.53
31.65
28.08
23.72
18.59
12.77
6.38
-0.52
-8.01
-16.18
-25.03
-34.30
-43.35
-51.24
-56.88
-59.22
-57.49
-51.43
-41.38
-28.33
-13.74
0.73
13.57
23.72
30.70
34.54
35.63
34.60
32.18
29.20
26.55
25.01
25.13
27.10
30.71
35.40
40.47
45.17
48.85
51.13
51.92
51.44
50.12
48.41
46.56
44.50
41.88
38.37
33.85
28.53
22.82
17.17
11.89
7.07
2.58
-1.92
-7.06
-13.67
-22.68
-34.62
-49.29
-65.55
-81.64
-95.80
-107.10
-115.74
-122.90
-130.09
-138.36
-147.89
-158.11
-168.13
-177.26
-185.16
-191.82
-197.15
-200.77
-201.96
-199.87
-193.87
-183.70
-169.60
-152.08
-131.79
-109.31
-85.15
-59.78
-33.71
-7.57
18.01
42.54
65.79
87.80
108.73
128.67
147.46
164.71
179.93
192.84
203.50
212.27
219.64
225.85
230.78
234.03
235.23
234.40
232.12
229.41
227.41
226.91
228.09
230.54
233.42
235.84
237.02
236.41
233.51
227.79
218.71
205.94
189.60
170.39
149.52
128.29
107.72
88.26
69.84
52.11
34.84
18.09
2.21
-12.41
-25.58
-37.42
-48.27
-58.46
-68.20
-77.51
-86.38
-94.86
-103.03
-110.91
-118.27
-124.57
-129.09
-131.25
-131.00
-128.89
-125.94
-123.27
-121.66
-121.25
-121.39
-120.92
-118.54
-113.20
-104.46
-92.52
-78.18
-62.59
-46.87
-31.92
-18.25
-6.02
4.85
14.49
22.96
30.27
36.46
41.68
46.29
50.77
55.51
60.50
65.11
68.24
68.68
65.61
58.89
49.19
37.65
25.52
13.68
2.49
-8.20
-18.88
-30.06
-42.04
-54.76
-67.91
-81.08
-94.09
-107.09
-120.48
-134.53
-149.00
-163.01
-175.18
-184.11
-188.81
-188.96
-184.77
-176.77
-165.64
-152.21
-137.56
-123.10
-110.44
-101.02
-95.76
-94.68
-96.87
-100.63
-103.94
-105.05
-102.96
-97.60
-89.60
-79.80
-68.74
-56.47
-42.85
-27.98
-12.56
2.22
15.18
25.76
34.27
41.63
48.77
56.03
63.09
69.13
73.26
74.87
73.84
70.46
65.32
59.22
52.91
47.03
41.85
37.26
32.85
28.15
22.85
16.94
10.88
5.43
1.64
0.58
2.98
8.95
17.78
28.07
38.12
46.49
52.38
55.78
57.22
57.44
57.05
56.44
55.78
55.21
54.87
54.84
55.10
55.40
55.32
54.36
52.12
48.45
43.49
37.64
31.42
25.31
19.68
14.73
10.50
6.90
3.82
1.11
-1.36
-3.72
-6.07
-8.58
-11.39
-14.57
-18.06
-21.63
-24.98
-27.89
-30.45
-33.00
-36.02
-39.75
-43.84
-47.31
-48.71
-46.69
-40.52
-30.53
-17.99
-4.74
7.49
17.54
25.04
30.18
33.47
35.36
36.16
36.07
35.35
34.32
33.30
32.49
31.87
31.22
30.33
29.08
27.61
26.17
25.03
24.28
23.85
23.51
23.01
22.16
20.88
19.10
16.76
13.75
10.00
5.57
0.69
-4.25
-8.81
-12.65
-15.67
-18.13
-20.50
-23.29
-26.90
-31.42
-36.52
-41.47
-45.29
-46.95
-45.67
-41.13
-33.60
-23.86
-12.98
-2.11
7.82
16.07
22.21
26.11
27.95
28.16
27.40
26.31
25.39
24.82
24.55
24.45
24.42
24.48
24.64
24.84
24.89
24.49
23.43
21.74
19.65
17.49
15.54
13.79
12.06
9.96
7.19
3.66
-0.42
-4.71
-8.81
-12.46
-15.68
-18.70
-21.88
-25.58
-30.04
-35.31
-41.24
-47.39
-53.04
-57.18
-58.71
-56.75
-50.92
-41.62
-29.90
-17.25
-5.12
5.43
13.82
19.99
24.09
26.41
27.24
26.92
25.88
24.66
23.74
23.49
24.02
25.15
26.55
27.80
28.62
28.82
28.40
27.38
25.80
23.68
21.00
17.79
14.14
10.19
6.08
1.95
-2.19
-6.36
-10.56
-14.79
-18.94
-22.93
-26.68
-30.26
-33.89
-37.88
-42.54
-48.01
-54.12
-60.23
-65.32
-68.15
-67.59
-62.95
-54.28
-42.41
-28.75
-14.92
-2.35
8.06
15.98
21.57
25.22
27.39
28.47
28.81
28.72
28.53
28.50
28.81
29.45
30.31
31.18
31.87
32.23
32.11
31.41
30.03
27.93
25.20
22.01
18.60
15.14
11.69
8.19
4.51
0.58
-3.57
-7.76
-11.76
-15.32
-18.34
-20.90
-23.30
-26.00
-29.53
-34.31
-40.41
-47.41
-54.31
-59.66
-61.93
-59.92
-53.18
-42.24
-28.49
-13.79
0.06
11.77
20.73
27.00
31.02
33.28
34.24
34.24
33.64
32.90
32.52
32.97
34.51
37.02
40.01
42.76
44.57
44.97
43.87
41.56
38.50
35.18
31.81
28.37
24.62
20.27
15.21
9.58
3.73
-1.88
-6.96
-11.42
-15.37
-19.01
-22.56
-26.16
-29.97
-34.19
-39.01
-44.45
-50.14
-55.17
-58.24
-58.03
-53.71
-45.33
-33.88
-21.00
-8.46
2.32
10.60
16.27
19.65
21.19
21.26
20.18
18.32
16.17
14.32
13.33
13.50
14.80
16.84
19.08
21.01
22.27
22.76
22.53
21.75
20.53
18.90
16.80
14.11
10.74
6.71
2.21
-2.47
-7.07
-11.52
-15.99
-20.87
-26.59
-33.41
-41.21
-49.43
-57.09
-63.00
-66.05
-65.49
-61.14
-53.41
-43.25
-31.84
-20.36
-9.77
-0.74
6.33
11.27
14.15
15.24
15.02
14.13
13.20
12.71
12.89
13.69
14.91
16.25
17.50
18.50
19.24
19.68
19.76
19.34
18.20
16.11
12.97
8.86
4.07
-0.94
-5.68
-9.87
-13.46
-16.76
-20.32
-24.71
-30.32
-37.05
-44.21
-50.53
-54.37
-54.22
-49.17
-39.26
-25.57
-9.90
5.69
19.46
30.36
38.05
42.76
45.02
45.39
44.36
42.35
39.76
37.06
34.61
32.67
31.27
30.18
29.05
27.57
25.64
23.32
20.74
18.00
15.04
11.74
8.01
3.91
-0.36
-4.50
-8.32
-11.73
-14.81
-17.84
-21.17
-25.26
-30.47
-36.82
-43.76
-50.10
-54.18
-54.39
-49.76
-40.37
-27.46
-12.99
0.95
12.74
21.56
27.35
30.52
31.59
31.08
29.47
27.25
24.98
23.22
22.34
22.44
23.28
24.42
25.38
25.79
25.45
24.35
22.55
20.15
17.18
13.66
9.60
5.10
0.39
-4.22
-8.47
-12.23
-15.62
-19.02
-22.97
-27.92
-34.01
-40.80
-47.25
-51.85
-53.01
-49.57
-41.29
-28.98
-14.36
0.52
13.80
24.33
31.71
36.15
38.12
38.14
36.72
34.42
31.88
29.73
28.42
28.05
28.38
28.92
29.20
28.97
28.18
26.91
25.15
22.72
19.31
14.67
8.82
2.13
-4.79
-11.24
-16.74
-21.17
-24.74
-27.98
-31.48
-35.75
-41.01
-47.09
-53.27
-58.29
-60.63
-58.86
-52.22
-40.98
-26.48
-10.74
4.09
16.42
25.45
31.23
34.31
35.32
34.88
33.41
31.37
29.24
27.52
26.63
26.71
27.60
28.85
29.95
30.41
29.96
28.55
26.26
23.26
19.66
15.55
11.00
6.14
1.14
-3.73
-8.29
-12.48
-16.52
-20.83
-25.96
-32.27
-39.59
-47.08
-53.25
-56.32
-54.96
-48.66
-38.12
-24.88
-10.86
2.25
13.35
21.99
28.07
31.69
33.09
32.70
31.26
29.73
29.01
29.58
31.34
33.66
35.76
37.06
37.42
37.08
36.37
35.43
33.97
31.46
27.45
21.90
15.32
8.61
2.63
-2.14
-5.88
-9.20
-12.82
-17.27
-22.78
-29.23
-36.34
-43.56
-50.09
-54.76
-56.22
-53.35
-45.70
-33.83
-19.26
-4.00
10.05
21.61
30.15
35.77
38.90
39.99
39.46
37.81
35.56
33.35
31.72
30.97
30.98
31.38
31.62
31.33
30.34
28.68
26.46
23.73
20.45
16.46
11.70
6.25
0.37
-5.49
-10.94
-15.71
-19.79
-23.42
-27.07
-31.26
-36.44
-42.72
-49.68
-56.30
-61.05
-62.34
-58.98
-50.66
-38.14
-23.04
-7.41
6.90
18.63
27.26
32.83
35.74
36.49
35.64
33.82
31.69
29.89
28.89
28.85
29.51
30.40
30.92
30.66
29.45
27.39
24.75
21.72
18.37
14.62
10.36
5.55
0.31
-5.06
-10.27
-15.06
-19.35
-23.22
-26.92
-30.83
-35.39
-40.82
-46.94
-52.91
-57.33
-58.61
-55.50
-47.65
-35.79
-21.58
-6.98
6.28
17.14
25.20
30.50
33.29
33.79
32.34
29.45
25.85
22.42
19.94
18.82
18.94
19.74
20.44
20.37
19.18
16.98
14.12
10.97
7.74
4.38
0.71
-3.33
-7.59
-11.72
-15.35
-18.28
-20.67
-22.95
-25.65
-29.21
-33.79
-39.22
-45.01
-50.40
-54.38
-55.86
-53.86
-47.82
-37.86
-24.86
-10.28
4.21
17.15
27.60
35.26
40.24
42.85
43.48
42.52
40.40
37.73
35.12
33.14
32.05
31.73
31.78
31.58
30.65
28.75
25.99
22.71
19.32
16.00
12.69
9.06
4.82
-0.16
-5.57
-10.81
-15.22
-18.41
-20.49
-22.07
-23.97
-26.93
-31.33
-37.11
-43.78
-50.54
-56.39
-60.18
-60.84
-57.54
-50.01
-38.75
-24.96
-10.29
3.59
15.46
24.77
31.54
36.15
39.07
40.66
41.21
41.08
40.76
40.86
41.91
44.07
47.05
50.12
52.48
53.53
53.08
51.37
48.85
45.90
42.67
39.03
34.69
29.48
23.36
16.51
9.23
1.76
-5.70
-13.04
-20.14
-26.85
-33.03
-38.64
-43.86
-49.05
-54.60
-60.57
-66.51
-71.33
-73.63
-72.11
-66.10
-55.87
-42.58
-27.93
-13.64
-1.07
9.01
16.37
21.14
23.62
24.17
23.26
21.47
19.53
18.12
17.73
18.51
20.22
22.29
24.05
25.02
24.97
24.03
22.54
20.85
19.15
17.44
15.49
13.01
9.83
5.94
1.60
-2.86
-7.09
-10.89
-14.30
-17.53
-20.88
-24.67
-29.16
-34.43
-40.39
-46.61
-52.32
-56.38
-57.50
-54.67
-47.52
-36.60
-23.28
-9.36
3.43
13.93
21.70
26.87
29.87
31.12
30.96
29.76
27.96
26.17
24.99
24.87
25.88
27.68
29.66
31.11
31.49
30.55
28.40
25.39
22.00
18.59
15.26
11.95
8.44
4.56
0.34
-3.99
-8.17
-11.93
-15.26
-18.31
-21.31
-24.51
-28.07
-32.09
-36.64
-41.67
-46.93
-51.80
-55.27
-56.14
-53.39
-46.55
-36.03
-23.00
-9.17
3.77
14.46
22.12
26.62
28.26
27.65
25.49
22.51
19.41
16.77
15.09
14.67
15.56
17.47
19.87
22.08
23.51
23.87
23.22
21.88
20.24
18.57
16.94
15.25
13.39
11.25
8.78
5.93
2.65
-1.09
-5.24
-9.66
-14.09
-18.30
-22.21
-25.90
-29.64
-33.79
-38.59
-43.95
-49.31
-53.64
-55.67
-54.22
-48.69
-39.33
-27.24
-14.07
-1.60
8.79
16.38
21.10
23.32
23.61
22.52
20.53
18.14
15.88
14.33
13.94
14.93
17.17
20.17
23.26
25.81
27.36
27.75
27.06
25.51
23.37
20.84
18.02
14.90
11.44
7.59
3.39
-1.04
-5.45
-9.61
-13.29
-16.45
-19.18
-21.65
-24.10
-26.76
-29.82
-33.41
-37.51
-41.74
-45.32
-47.07
-45.80
-40.66
-31.63
-19.67
-6.41
6.31
17.04
24.96
29.90
32.04
31.71
29.32
25.42
20.81
16.47
13.34
11.96
12.35
14.01
16.23
18.38
20.04
21.06
21.41
21.06
19.96
18.12
15.64
12.72
9.62
6.45
3.24
-0.21
-4.06
-8.33
-12.79
-17.07
-20.77
-23.70
-26.04
-28.28
-31.03
-34.78
-39.61
-45.14
-50.54
-54.79
-56.80
-55.77
-51.26
-43.35
-32.65
-20.17
-7.18
5.01
15.29
22.86
27.31
28.70
27.48
24.41
20.49
16.72
13.97
12.79
13.28
15.20
17.97
20.90
23.36
24.88
25.30
24.62
23.03
20.79
18.17
15.39
12.55
9.73
6.92
4.09
1.18
-1.85
-5.05
-8.36
-11.73
-15.05
-18.23
-21.34
-24.60
-28.38
-33.02
-38.61
-44.72
-50.38
-54.19
-54.74
-51.14
-43.34
-32.23
-19.36
-6.51
4.84
13.82
20.10
23.77
25.09
24.29
21.72
17.89
13.59
9.78
7.34
6.79
8.10
10.77
13.95
16.84
18.80
19.58
19.23
17.95
16.00
13.60
10.83
7.70
4.22
0.39
-3.65
-7.69
-11.49
-14.92
-17.97
-20.79
-23.68
-26.94
-30.79
-35.34
-40.51
-46.01
-51.25
-55.30
-57.04
-55.35
-49.56
-39.73
-26.82
-12.43
1.52
13.44
22.36
28.05
30.85
31.31
29.94
27.17
23.42
19.28
15.52
12.98
12.25
13.46
16.12
19.28
21.92
23.27
23.07
21.63
19.48
17.17
14.90
12.58
9.84
6.43
2.31
-2.17
-6.48
-10.11
-12.90
-15.09
-17.24
-19.98
-23.81
-28.86
-35.01
-41.85
-48.73
-54.74
-58.77
-59.60
-56.26
-48.40
-36.56
-22.18
-7.23
6.34
17.14
24.58
28.76
30.17
29.30
26.60
22.54
17.81
13.39
10.32
9.31
10.46
13.10
16.18
18.64
19.92
20.04
19.48
18.74
18.04
17.15
15.50
12.55
8.10
2.40
-3.81
-9.71
-14.65
-18.44
-21.47
-24.49
-28.41
-33.88
-41.08
-49.53
-58.07
-65.09
-68.86
-67.95
-61.69
-50.45
-35.61
-19.22
-3.45
9.95
19.99
26.54
30.05
31.28
31.01
29.89
28.45
27.15
26.38
26.39
27.28
28.89
30.91
32.97
34.82
36.32
37.52
38.44
39.05
39.16
38.48
36.78
33.97
30.20
25.73
20.94
16.07
11.23
6.30
0.98
-5.11
-12.28
-20.56
-29.50
-38.03
-44.64
-47.69
-45.95
-39.07
-27.82
-13.91
0.45
13.20
22.89
28.91
31.39
30.95
28.39
24.56
20.26
16.25
13.19
11.53
11.40
12.60
14.68
17.04
19.16
20.66
21.32
21.01
19.70
17.38
14.13
10.10
5.54
0.73
-4.07
-8.70
-13.15
-17.51
-22.01
-27.00
-32.78
-39.40
-46.46
-52.93
-57.25
-57.77
-53.33
-43.81
-30.26
-14.69
0.62
13.73
23.53
29.75
32.70
32.97
31.16
27.92
24.00
20.29
17.64
16.61
17.28
19.20
21.60
23.68
24.90
25.00
24.04
22.17
19.56
16.32
12.52
8.24
3.64
-1.12
-5.86
-10.43
-14.76
-18.94
-23.22
-27.97
-33.45
-39.54
-45.51
-50.06
-51.55
-48.63
-40.75
-28.46
-13.35
2.39
16.69
28.04
35.76
39.94
41.16
40.18
37.78
34.63
31.34
28.45
26.39
25.40
25.48
26.32
27.41
28.18
28.16
27.10
24.99
21.95
18.19
13.84
9.05
3.95
-1.24
-6.27
-10.95
-15.22
-19.24
-23.38
-28.10
-33.74
-40.34
-47.39
-53.84
-58.19
-58.92
-54.95
-46.08
-33.14
-17.80
-2.07
12.25
23.96
32.56
38.07
40.79
41.12
39.57
36.80
33.65
31.02
29.55
29.45
30.37
31.61
32.40
32.22
30.99
28.97
26.52
23.83
20.89
17.52
13.56
9.02
4.15
-0.66
-5.08
-8.99
-12.56
-16.16
-20.28
-25.35
-31.58
-38.81
-46.42
-53.24
-57.81
-58.63
-54.71
-45.94
-33.27
-18.45
-3.55
9.70
20.28
27.91
32.82
35.44
36.11
35.18
33.09
30.51
28.24
27.02
27.21
28.61
30.59
32.30
33.01
32.41
30.58
27.92
24.82
21.51
17.92
13.86
9.15
3.87
-1.65
-6.91
-11.49
-15.26
-18.49
-21.80
-25.81
-31.05
-37.57
-44.94
-52.19
-58.02
-61.01
-60.05
-54.61
-44.99
-32.22
-17.84
-3.42
9.65
20.52
28.82
34.53
37.85
39.10
38.64
37.00
34.71
32.39
30.57
29.57
29.46
30.03
30.84
31.36
31.16
30.06
28.16
25.80
23.33
20.95
18.56
15.80
12.19
7.44
1.61
-4.79
-10.98
-16.31
-20.57
-24.10
-27.80
-32.63
-39.19
-47.26
-55.74
-62.83
-66.64
-65.70
-59.59
-48.87
-35.01
-19.80
-4.90
8.50
19.78
28.73
35.29
39.44
41.26
41.05
39.43
37.29
35.53
34.78
35.12
36.15
37.13
37.30
36.23
33.85
30.53
26.85
23.36
20.36
17.77
15.21
12.19
8.41
3.92
-0.87
-5.38
-9.18
-12.19
-14.69
-17.19
-20.24
-24.30
-29.57
-35.96
-42.95
-49.57
-54.48
-56.28
-53.95
-47.20
-36.68
-23.80
-10.30
2.23
12.75
20.86
26.67
30.53
32.77
33.68
33.47
32.44
31.01
29.65
28.78
28.54
28.74
28.99
28.84
28.00
26.52
24.61
22.59
20.62
18.69
16.59
14.05
10.89
7.06
2.69
-1.96
-6.57
-10.81
-14.44
-17.42
-19.92
-22.44
-25.60
-29.98
-35.79
-42.65
-49.49
-54.84
-57.20
-55.54
-49.66
-40.19
-28.40
-15.73
-3.49
7.42
16.40
23.13
27.46
29.45
29.38
27.88
25.77
23.89
22.86
22.91
23.84
25.14
26.23
26.62
26.11
24.75
22.78
20.52
18.20
15.93
13.66
11.20
8.35
4.95
0.97
-3.44
-8.02
-12.44
-16.45
-19.94
-23.05
-26.10
-29.54
-33.82
-39.19
-45.60
-52.53
-58.95
-63.50
-64.79
-61.86
-54.57
-43.70
-30.74
-17.43
-5.21
5.07
13.16
19.16
23.35
25.96
27.28
27.65
27.55
27.42
27.59
28.19
29.12
30.15
31.01
31.47
31.31
30.40
28.69
26.26
23.32
20.16
17.02
14.01
11.04
7.86
4.21
-0.00
-4.65
-9.41
-13.85
-17.70
-20.88
-23.61
-26.36
-29.66
-33.97
-39.52
-46.08
-52.89
-58.70
-62.03
-61.54
-56.53
-47.25
-34.88
-21.25
-8.20
2.93
11.57
17.83
22.12
24.81
26.05
25.90
24.51
22.35
20.15
18.64
18.24
18.88
20.07
21.09
21.34
20.56
18.84
16.53
14.04
11.73
9.78
8.23
6.97
5.80
4.53
2.97
0.99
-1.49
-4.47
-7.85
-11.47
-15.19
-18.89
-22.64
-26.68
-31.38
-37.05
-43.71
-50.86
-57.43
-61.99
-63.05
-59.58
-51.34
-39.02
-24.08
-8.30
6.64
19.51
29.65
36.84
41.16
42.89
42.51
40.73
38.39
36.30
35.01
34.65
35.01
35.64
36.07
35.92
34.98
33.23
30.73
27.69
24.40
21.15
18.07
15.15
12.19
8.91
5.11
0.77
-3.99
-8.90
-13.69
-18.14
-22.09
-25.49
-28.39
-30.96
-33.52
-36.45
-40.12
-44.61
-49.56
-54.05
-56.74
-56.30
-51.87
-43.41
-31.89
-18.91
-6.18
4.99
13.99
20.83
25.79
29.14
31.01
31.48
30.78
29.38
27.91
26.97
26.86
27.54
28.67
29.77
30.41
30.32
29.41
27.70
25.33
22.48
19.35
16.09
12.78
9.44
6.02
2.46
-1.35
-5.42
-9.64
-13.87
-17.84
-21.36
-24.35
-27.01
-29.73
-33.09
-37.50
-43.09
-49.42
-55.49
-59.92
-61.28
-58.56
-51.47
-40.67
-27.56
-13.84
-1.10
9.59
17.73
23.27
26.42
27.52
26.93
25.17
22.88
20.73
19.33
18.95
19.51
20.58
21.59
22.01
21.56
20.30
18.55
16.73
15.12
13.76
12.38
10.63
8.15
4.88
0.98
-3.18
-7.16
-10.66
-13.56
-15.95
-18.14
-20.56
-23.65
-27.77
-33.00
-39.06
-45.19
-50.28
-53.02
-52.32
-47.64
-39.22
-28.05
-15.66
-3.54
7.12
15.71
22.08
26.29
28.48
28.75
27.35
24.80
21.94
19.71
18.83
19.51
21.35
23.56
25.24
25.75
24.88
22.88
20.19
17.29
14.47
11.79
9.06
6.09
2.70
-1.12
-5.24
-9.41
-13.42
-17.08
-20.39
-23.47
-26.55
-29.95
-34.05
-39.15
-45.30
-52.18
-58.86
-63.92
-65.82
-63.30
-56.01
-44.61
-30.65
-16.06
-2.59
8.67
17.24
23.15
26.67
28.10
27.83
26.42
24.61
23.21
22.75
23.41
24.89
26.64
28.13
29.03
29.23
28.76
27.62
25.82
23.37
20.39
17.17
13.98
10.91
7.89
4.57
0.66
-3.85
-8.63
-13.16
-16.96
-19.95
-22.53
-25.46
-29.59
-35.41
-42.81
-50.95
-58.39
-63.43
-64.56
-60.95
-52.68
-40.81
-26.98
-13.02
-0.41
9.94
17.76
23.12
26.26
27.45
27.01
25.46
23.55
22.12
21.93
23.35
26.22
29.87
33.42
36.01
37.13
36.71
35.08
32.76
30.19
27.59
24.85
21.69
17.90
13.47
8.70
4.12
0.25
-2.59
-4.46
-5.74
-7.04
-8.98
-12.04
-16.46
-22.21
-28.90
-35.81
-41.86
-45.70
-46.04
-42.04
-33.69
-21.97
-8.60
4.43
15.51
23.83
29.36
32.65
34.32
34.85
34.43
33.19
31.41
29.60
28.35
28.07
28.80
30.10
31.27
31.65
30.90
29.12
26.72
24.17
21.76
19.46
17.00
14.04
10.40
6.15
1.55
-3.04
-7.35
-11.31
-15.07
-18.92
-23.21
-28.31
-34.44
-41.67
-49.72
-57.84
-64.86
-69.25
-69.61
-65.05
-55.55
-42.08
-26.34
-10.28
4.41
16.58
25.72
31.79
35.04
35.84
34.74
32.45
29.82
27.74
26.83
27.31
28.89
30.89
32.51
33.16
32.56
30.85
28.39
25.55
22.59
19.54
16.25
12.51
8.16
3.19
-2.16
-7.49
-12.42
-16.62
-20.07
-23.05
-26.08
-29.78
-34.63
-40.70
-47.49
-53.90
-58.42
-59.52
-56.13
-48.08
-36.16
-21.95
-7.33
6.05
17.07
25.26
30.56
33.18
33.46
31.86
29.09
26.03
23.58
22.36
22.53
23.73
25.28
26.47
26.88
26.43
25.33
23.82
22.01
19.80
17.06
13.65
9.63
5.18
0.57
-3.99
-8.39
-12.60
-16.72
-20.85
-25.23
-30.11
-35.78
-42.28
-49.21
-55.60
-59.97
-60.81
-57.03
-48.55
-36.31
-22.09
-7.89
4.64
14.56
21.68
26.22
28.60
29.16
28.31
26.52
24.45
22.82
22.18
22.74
24.28
26.26
28.01
28.98
28.94
27.94
26.23
24.04
21.46
18.41
14.73
10.35
5.37
0.18
-4.83
-9.28
-13.13
-16.62
-20.21
-24.43
-29.68
-36.08
-43.34
-50.67
-56.81
-60.23
-59.53
-53.99
-43.83
-30.33
-15.40
-1.04
11.21
20.61
27.04
30.81
32.29
31.84
29.92
27.15
24.38
22.41
21.73
22.33
23.69
25.03
25.63
25.16
23.73
21.84
20.00
18.52
17.28
15.87
13.70
10.46
6.16
1.28
-3.58
-7.88
-11.48
-14.62
-17.84
-21.74
-26.74
-32.94
-40.09
-47.46
-53.85
-57.76
-57.72
-52.81
-43.03
-29.47
-14.04
1.13
14.30
24.52
31.61
35.90
37.86
37.91
36.42
33.89
30.98
28.53
27.19
27.22
28.34
29.88
31.06
31.28
30.40
28.65
26.46
24.17
21.82
19.19
15.95
11.86
6.95
1.62
-3.60
-8.19
-11.86
-14.70
-17.09
-19.63
-22.90
-27.26
-32.71
-38.73
-44.29
-48.01
-48.55
-45.03
-37.40
-26.55
-14.03
-1.60
9.28
17.78
23.65
27.06
28.30
27.72
25.73
22.95
20.17
18.15
17.41
17.99
19.41
20.90
21.73
21.52
20.33
18.54
16.54
14.52
12.36
9.74
6.38
2.22
-2.47
-7.20
-11.47
-14.96
-17.62
-19.74
-21.78
-24.27
-27.66
-32.15
-37.51
-43.02
-47.49
-49.51
-47.92
-42.13
-32.48
-20.13
-6.78
5.88
16.58
24.59
29.81
32.47
33.00
31.89
29.72
27.16
24.87
23.39
22.95
23.44
24.45
25.48
26.09
26.00
25.11
23.42
20.98
17.80
13.92
9.41
4.44
-0.74
-5.85
-10.65
-15.03
-19.06
-22.95
-27.07
-31.82
-37.45
-43.91
-50.63
-56.55
-60.25
-60.38
-56.09
-47.41
-35.29
-21.37
-7.46
4.93
14.95
22.40
27.47
30.49
31.77
31.55
30.22
28.35
26.65
25.70
25.80
26.72
27.88
28.59
28.40
27.29
25.56
23.55
21.35
18.71
15.23
10.67
5.22
-0.59
-6.02
-10.64
-14.46
-17.90
-21.53
-25.81
-30.95
-36.95
-43.67
-50.78
-57.61
-63.02
-65.49
-63.60
-56.63
-45.05
-30.47
-15.18
-1.31
9.84
18.00
23.70
27.69
30.46
32.16
32.75
32.30
31.23
30.24
29.96
30.72
32.28
34.02
35.15
35.08
33.71
31.36
28.64
26.08
23.90
21.90
19.60
16.50
12.35
7.33
1.91
-3.33
-8.09
-12.40
-16.70
-21.58
-27.54
-34.66
-42.43
-49.79
-55.29
-57.45
-55.26
-48.48
-37.81
-24.75
-11.10
1.54
12.14
20.41
26.55
30.94
33.88
35.44
35.69
34.90
33.58
32.41
31.92
32.24
33.02
33.56
33.18
31.56
28.86
25.60
22.39
19.56
17.08
14.58
11.63
7.98
3.66
-1.00
-5.58
-9.74
-13.41
-16.84
-20.51
-24.99
-30.64
-37.34
-44.33
-50.30
-53.67
-53.12
-48.05
-38.80
-26.64
-13.32
-0.55
10.42
19.00
25.16
29.16
31.27
31.73
30.81
28.90
26.59
24.54
23.23
22.83
23.13
23.65
23.93
23.66
22.79
21.41
19.57
17.22
14.23
10.48
6.03
1.19
-3.64
-8.06
-11.92
-15.34
-18.76
-22.68
-27.57
-33.63
-40.68
-48.07
-54.73
-59.28
-60.41
-57.21
-49.61
-38.40
-25.13
-11.56
0.78
11.01
18.91
24.67
28.67
31.21
32.51
32.81
32.45
31.85
31.41
31.35
31.66
32.06
32.17
31.64
30.25
28.04
25.24
22.20
19.18
16.23
13.13
9.55
5.24
0.21
-5.17
-10.37
-14.94
-18.79
-22.26
-26.00
-30.61
-36.47
-43.52
-51.20
-58.51
-64.19
-66.94
-65.74
-60.15
-50.53
-38.02
-24.23
-10.72
1.35
11.48
19.68
26.15
31.00
34.20
35.71
35.75
34.83
33.68
32.96
32.99
33.63
34.38
34.65
34.04
32.48
30.23
27.66
25.07
22.55
20.00
17.15
13.77
9.75
5.13
0.19
-4.73
-9.24
-13.15
-16.45
-19.42
-22.51
-26.26
-31.15
-37.36
-44.61
-52.08
-58.51
-62.35
-62.33
-57.74
-48.85
-36.86
-23.48
-10.42
1.12
10.63
18.14
23.90
28.05
30.55
31.38
30.79
29.40
28.08
27.63
28.36
30.00
31.81
32.93
32.73
31.18
28.71
26.01
23.68
21.92
20.45
18.73
16.22
12.64
8.14
3.15
-1.79
-6.26
-10.14
-13.60
-17.03
-20.86
-25.38
-30.75
-36.93
-43.63
-50.28
-55.96
-59.54
-59.86
-56.07
-48.04
-36.51
-22.99
-9.31
2.95
12.85
20.23
25.46
29.08
31.43
32.60
32.62
31.68
30.27
29.07
28.61
29.09
30.17
31.21
31.54
30.77
28.87
26.16
23.07
19.97
17.03
14.21
11.34
8.24
4.79
0.98
-3.05
-7.06
-10.89
-14.46
-17.91
-21.47
-25.44
-30.11
-35.57
-41.80
-48.50
-55.06
-60.50
-63.56
-63.03
-58.17
-49.07
-36.76
-22.91
-9.32
2.55
11.98
18.91
23.69
26.80
28.57
29.25
29.03
28.21
27.27
26.72
26.96
28.08
29.80
31.56
32.68
32.59
31.06
28.28
24.71
20.93
17.38
14.27
11.51
8.79
5.80
2.33
-1.62
-5.80
-9.92
-13.74
-17.21
-20.45
-23.77
-27.50
-31.92
-37.17
-43.16
-49.47
-55.28
-59.37
-60.40
-57.27
-49.67
-38.23
-24.49
-10.39
2.29
12.46
19.86
24.83
27.98
29.79
30.56
30.46
29.75
28.82
28.15
28.14
28.88
30.15
31.41
32.06
31.63
29.98
27.25
23.86
20.24
16.73
13.50
10.45
7.43
4.20
0.66
-3.14
-7.01
-10.69
-14.01
-16.91
-19.54
-22.15
-25.06
-28.55
-32.82
-37.89
-43.55
-49.31
-54.34
-57.56
-57.81
-54.30
-46.84
-36.07
-23.27
-10.08
1.98
11.91
19.29
24.29
27.30
28.76
29.04
28.44
27.33
26.19
25.54
25.77
26.96
28.85
30.86
32.27
32.53
31.38
28.94
25.65
22.04
18.57
15.44
12.61
9.80
6.74
3.22
-0.71
-4.85
-8.96
-12.84
-16.43
-19.75
-22.91
-26.05
-29.37
-33.11
-37.50
-42.63
-48.15
-53.14
-56.23
-56.01
-51.53
-42.81
-30.90
-17.58
-4.71
6.29
14.73
20.58
24.19
25.96
26.18
25.16
23.34
21.35
19.95
19.69
20.76
22.80
25.03
26.56
26.73
25.41
22.97
20.15
17.62
15.65
13.95
11.90
8.89
4.71
-0.29
-5.38
-9.84
-13.26
-15.84
-18.14
-20.77
-24.12
-28.25
-32.94
-37.98
-43.09
-47.94
-51.87
-53.93
-53.02
-48.34
-39.85
-28.38
-15.49
-2.93
7.85
16.09
21.71
25.05
26.59
26.70
25.76
24.13
22.35
21.00
20.59
21.29
22.82
24.55
25.71
25.74
24.46
22.15
19.30
16.38
13.56
10.67
7.38
3.39
-1.31
-6.43
-11.45
-15.91
-19.56
-22.48
-25.05
-27.83
-31.35
-35.97
-41.73
-48.22
-54.59
-59.57
-61.76
-60.07
-54.03
-44.09
-31.50
-18.00
-5.26
5.49
13.75
19.55
23.27
25.34
26.08
25.81
24.90
23.89
23.31
23.58
24.74
26.42
27.98
28.73
28.27
26.59
24.13
21.44
18.94
16.72
14.49
11.80
8.25
3.80
-1.25
-6.32
-10.85
-14.50
-17.30
-19.61
-22.02
-25.14
-29.46
-35.13
-41.79
-48.59
-54.15
-56.97
-55.75
-49.91
-39.83
-26.75
-12.45
1.25
13.00
22.14
28.58
32.63
34.68
35.15
34.45
33.13
31.81
31.10
31.35
32.51
34.12
35.50
36.04
35.47
33.86
31.63
29.18
26.78
24.41
21.84
18.78
15.06
10.71
5.97
1.23
-3.12
-6.83
-9.87
-12.49
-15.11
-18.30
-22.53
-28.07
-34.69
-41.63
-47.63
-51.19
-51.06
-46.68
-38.39
-27.32
-15.07
-3.18
7.22
15.51
21.61
25.62
27.78
28.35
27.70
26.37
25.00
24.22
24.43
25.68
27.61
29.63
31.14
31.74
31.34
30.07
28.19
25.86
23.08
19.72
15.66
10.96
5.81
0.62
-4.20
-8.31
-11.58
-14.13
-16.31
-18.56
-21.37
-25.10
-29.80
-35.09
-40.16
-43.78
-44.72
-42.03
-35.49
-25.75
-14.22
-2.59
7.61
15.40
20.56
23.33
24.25
23.84
22.54
20.75
18.97
17.71
17.40
18.22
19.88
21.73
22.92
22.77
21.00
17.90
14.14
10.45
7.30
4.68
2.20
-0.64
-4.08
-7.98
-11.85
-15.08
-17.34
-18.70
-19.72
-21.14
-23.62
-27.51
-32.70
-38.62
-44.34
-48.64
-50.30
-48.34
-42.35
-32.72
-20.51
-7.25
5.53
16.69
25.66
32.29
36.71
39.09
39.64
38.74
37.03
35.31
34.30
34.37
35.37
36.74
37.71
37.74
36.58
34.41
31.63
28.61
25.54
22.34
18.74
14.55
9.69
4.35
-1.11
-6.34
-11.08
-15.30
-19.17
-23.00
-27.18
-32.15
-38.27
-45.66
-53.95
-62.09
-68.48
-71.30
-69.19
-61.78
-49.89
-35.29
-20.10
-6.16
5.42
14.30
20.64
24.77
27.01
27.59
26.92
25.56
24.27
23.76
24.47
26.37
28.89
31.23
32.63
32.69
31.49
29.51
27.35
25.44
23.84
22.22
20.06
16.90
12.59
7.37
1.76
-3.70
-8.64
-12.99
-16.98
-21.02
-25.50
-30.75
-36.87
-43.69
-50.66
-56.84
-60.97
-61.75
-58.29
-50.43
-38.90
-25.18
-11.06
1.87
12.52
20.45
25.69
28.54
29.40
28.79
27.33
25.74
24.74
24.77
25.88
27.70
29.59
30.94
31.36
30.80
29.49
27.79
25.98
24.17
22.21
19.84
16.80
12.94
8.33
3.26
-1.90
-6.77
-11.20
-15.24
-19.20
-23.43
-28.29
-33.94
-40.27
-46.80
-52.66
-56.72
-57.81
-55.11
-48.41
-38.31
-26.04
-13.14
-1.07
9.17
17.12
22.73
26.18
27.75
27.75
26.62
25.00
23.64
23.16
23.87
25.53
27.49
28.97
29.42
28.73
27.29
25.68
24.27
23.12
21.82
19.85
16.80
12.61
7.59
2.29
-2.76
-7.24
-11.10
-14.54
-17.90
-21.57
-25.92
-31.19
-37.36
-43.99
-50.16
-54.51
-55.61
-52.44
-44.77
-33.38
-19.84
-6.04
6.37
16.41
23.76
28.61
31.34
32.28
31.74
30.12
28.00
26.16
25.36
26.04
28.07
30.79
33.22
34.45
34.05
32.21
29.60
27.01
24.93
23.33
21.73
19.51
16.23
11.85
6.58
0.86
-4.96
-10.66
-16.14
-21.31
-26.20
-30.99
-36.05
-41.87
-48.69
-56.16
-63.17
-68.01
-68.91
-64.72
-55.48
-42.38
-27.38
-12.51
0.78
11.83
20.59
27.32
32.12
34.96
35.85
35.06
33.36
31.80
31.32
32.37
34.67
37.33
39.31
39.87
38.86
36.69
34.04
31.48
29.14
26.82
24.12
20.77
16.73
12.21
7.48
2.83
-1.61
-5.82
-9.86
-13.84
-17.96
-22.42
-27.52
-33.45
-40.31
-47.87
-55.49
-62.01
-66.00
-66.06
-61.35
-51.98
-39.12
-24.63
-10.53
1.63
11.10
17.91
22.52
25.44
27.05
27.60
27.31
26.54
25.77
25.52
26.03
27.33
29.05
30.65
31.59
31.55
30.51
28.69
26.48
24.17
21.86
19.43
16.62
13.24
9.28
4.93
0.49
-3.79
-7.80
-11.65
-15.49
-19.53
-23.89
-28.70
-34.13
-40.27
-47.01
-53.77
-59.40
-62.43
-61.50
-55.95
-46.13
-33.34
-19.44
-6.14
5.37
14.69
21.89
27.16
30.67
32.43
32.56
31.48
29.92
28.72
28.58
29.72
31.82
34.24
36.20
37.12
36.77
35.27
32.92
30.13
27.16
24.07
20.76
17.03
12.72
7.85
2.60
-2.74
-7.85
-12.53
-16.70
-20.47
-24.08
-27.91
-32.40
-37.84
-44.19
-50.82
-56.51
-59.72
-59.05
-53.79
-44.25
-31.66
-17.79
-4.40
7.22
16.43
23.19
27.72
30.35
31.33
30.94
29.60
27.91
26.54
26.03
26.60
27.98
29.56
30.57
30.41
28.89
26.22
22.89
19.47
16.30
13.41
10.57
7.41
3.69
-0.61
-5.19
-9.61
-13.46
-16.57
-19.06
-21.38
-24.09
-27.79
-32.84
-39.28
-46.60
-53.74
-59.16
-61.24
-58.79
-51.56
-40.40
-27.01
-13.37
-1.11
8.92
16.58
22.11
25.76
27.65
27.85
26.69
24.79
23.04
22.22
22.69
24.28
26.37
28.22
29.19
29.04
27.83
25.90
23.61
21.25
18.91
16.51
13.88
10.82
7.28
3.37
-0.69
-4.63
-8.21
-11.37
-14.19
-16.94
-19.98
-23.69
-28.46
-34.41
-41.31
-48.38
-54.34
-57.71
-57.16
-52.04
-42.64
-30.17
-16.43
-3.21
8.13
16.93
23.10
26.91
28.70
28.81
27.62
25.71
23.88
22.90
23.27
24.93
27.28
29.40
30.47
30.01
28.11
25.27
22.14
19.24
16.75
14.53
12.19
9.36
5.85
1.79
-2.45
-6.37
-9.60
-12.11
-14.23
-16.51
-19.55
-23.74
-29.19
-35.56
-42.20
-48.08
-52.03
-52.86
-49.81
-42.71
-32.21
-19.60
-6.48
5.63
15.68
23.17
28.10
30.70
31.30
30.24
27.98
25.10
22.35
20.40
19.67
20.18
21.44
22.78
23.59
23.55
22.70
21.31
19.68
17.92
15.95
13.63
10.82
7.51
3.81
-0.12
-4.09
-7.95
-11.63
-15.15
-18.66
-22.47
-26.95
-32.41
-38.89
-45.97
-52.72
-57.79
-59.72
-57.37
-50.38
-39.42
-26.02
-12.13
0.49
10.77
18.41
23.74
27.23
29.23
29.89
29.36
27.96
26.30
25.08
24.84
25.69
27.25
28.85
29.81
29.72
28.59
26.76
24.70
22.75
20.96
19.06
16.66
13.42
9.26
4.42
-0.64
-5.44
-9.69
-13.40
-16.86
-20.47
-24.60
-29.49
-35.26
-41.72
-48.33
-54.17
-58.00
-58.53
-54.85
-46.81
-35.21
-21.67
-8.12
3.78
13.00
19.34
23.13
24.97
25.39
24.82
23.62
22.26
21.24
21.06
21.93
23.67
25.72
27.29
27.77
26.88
24.87
22.27
19.73
17.63
16.01
14.53
12.67
10.00
6.39
2.10
-2.34
-6.37
-9.64
-12.19
-14.46
-17.11
-20.77
-25.84
-32.26
-39.49
-46.50
-51.91
-54.28
-52.52
-46.27
-36.08
-23.39
-10.10
2.01
11.70
18.52
22.57
24.34
24.31
22.98
20.82
18.44
16.50
15.60
16.01
17.57
19.69
21.54
22.44
22.04
20.50
18.25
15.87
13.68
11.74
9.78
7.46
4.48
0.77
-3.52
-8.10
-12.59
-16.72
-20.43
-23.89
-27.51
-31.77
-36.99
-43.08
-49.43
-54.92
-58.27
-58.33
-54.49
-46.79
-35.94
-23.15
-9.85
2.62
13.14
21.01
26.02
28.35
28.55
27.36
25.56
23.86
22.65
22.11
22.19
22.74
23.54
24.37
24.96
25.06
24.40
22.88
20.58
17.76
14.76
11.79
8.78
5.49
1.57
-3.11
-8.29
-13.45
-18.00
-21.66
-24.61
-27.50
-31.21
-36.43
-43.28
-51.09
-58.51
-63.75
-65.16
-61.71
-53.39
-41.27
-27.12
-12.92
-0.23
10.12
18.03
23.84
27.95
30.56
31.73
31.55
30.37
28.86
27.83
27.90
29.24
31.47
33.84
35.59
36.23
35.74
34.49
32.96
31.52
30.18
28.59
26.29
22.83
18.11
12.38
6.20
0.18
-5.25
-10.08
-14.63
-19.49
-25.17
-31.93
-39.64
-47.77
-55.41
-61.41
-64.52
-63.66
-58.31
-48.69
-35.93
-21.72
-7.86
4.19
13.66
20.47
24.93
27.48
28.46
28.18
26.97
25.36
23.97
23.36
23.77
25.06
26.68
27.97
28.42
27.88
26.57
24.89
23.20
21.60
19.93
17.87
15.13
11.59
7.41
2.86
-1.64
-5.79
-9.44
-12.68
-15.79
-19.24
-23.47
-28.82
-35.26
-42.22
-48.57
-52.84
-53.63
-50.06
-42.20
-31.08
-18.34
-5.75
5.34
14.32
21.11
26.00
29.26
31.04
31.47
30.84
29.68
28.75
28.72
29.90
32.11
34.73
36.91
37.98
37.69
36.29
34.38
32.56
31.09
29.79
28.13
25.52
21.64
16.62
10.96
5.34
0.34
-3.78
-7.09
-9.90
-12.62
-15.70
-19.51
-24.25
-29.83
-35.72
-40.95
-44.19
-44.16
-40.09
-32.01
-20.82
-8.07
4.61
15.96
25.36
32.78
38.44
42.56
45.22
46.52
46.75
46.52
46.63
47.73
50.00
53.00
55.82
57.47
57.25
54.98
50.94
45.68
39.68
33.18
26.12
18.32
9.59
-0.09
-10.49
-21.19
-31.69
-41.54
-50.44
-58.27
-65.11
-71.15
-76.68
-81.97
-87.24
-92.49
-97.42
-101.29
-103.00
-101.37
-95.47
-85.09
-70.89
-54.31
-37.18
-21.24
-7.69
2.95
10.68
15.81
18.72
19.78
19.41
18.18
16.79
15.98
16.30
17.90
20.51
23.51
26.17
27.95
28.63
28.33
27.41
26.20
24.85
23.25
21.08
18.06
14.06
9.26
4.04
-1.09
-5.76
-9.85
-13.54
-17.21
-21.28
-26.03
-31.49
-37.45
-43.42
-48.69
-52.30
-53.26
-50.80
-44.59
-35.02
-23.14
-10.37
1.89
12.58
21.13
27.40
31.44
33.35
33.33
31.76
29.27
26.67
24.77
24.07
24.59
25.92
27.31
28.00
27.51
25.73
23.01
19.93
17.02
14.61
12.69
10.98
9.09
6.80
4.11
1.25
-1.50
-3.97
-6.20
-8.44
-11.03
-14.31
-18.46
-23.54
-29.39
-35.61
-41.45
-45.84
-47.60
-45.71
-39.73
-29.97
-17.56
-4.10
8.78
19.80
28.21
33.80
36.66
37.11
35.48
32.27
28.14
23.89
20.31
18.04
17.26
17.74
18.90
20.05
20.63
20.45
19.57
18.21
16.64
14.97
13.19
11.20
8.87
6.11
2.89
-0.70
-4.55
-8.48
-12.32
-15.95
-19.30
-22.40
-25.44
-28.69
-32.51
-37.16
-42.58
-48.22
-52.97
-55.37
-54.09
-48.42
-38.63
-26.00
-12.39
0.37
11.00
19.00
24.48
27.89
29.58
29.80
28.77
26.88
24.74
23.13
22.65
23.53
25.53
27.98
30.15
31.42
31.52
30.53
28.71
26.37
23.72
20.87
17.78
14.45
10.84
7.02
3.05
-1.01
-5.09
-9.10
-12.95
-16.55
-19.89
-23.10
-26.53
-30.61
-35.64
-41.59
-47.95
-53.67
-57.38
-57.78
-54.05
-46.15
-34.95
-21.97
-8.98
2.47
11.44
17.60
21.17
22.61
22.44
21.12
19.16
17.19
15.88
15.82
17.26
19.97
23.23
26.14
27.90
28.15
27.01
24.97
22.57
20.13
17.63
14.83
11.43
7.33
2.74
-1.94
-6.28
-9.97
-12.99
-15.53
-17.95
-20.59
-23.78
-27.68
-32.37
-37.81
-43.70
-49.53
-54.43
-57.28
-57.03
-52.99
-45.15
-34.28
-21.74
-9.07
2.38
11.70
18.51
22.76
24.63
24.42
22.65
20.00
17.33
15.45
14.80
15.41
16.80
18.29
19.23
19.28
18.48
17.09
15.28
13.04
10.23
6.65
2.34
-2.38
-6.99
-11.04
-14.36
-17.13
-19.76
-22.63
-25.99
-29.94
-34.49
-39.66
-45.41
-51.35
-56.58
-59.71
-59.24
-54.18
-44.55
-31.43
-16.79
-2.72
9.22
18.28
24.48
28.24
29.99
30.02
28.62
26.18
23.39
21.03
19.76
19.77
20.78
22.19
23.32
23.75
23.39
22.36
20.85
18.88
16.38
13.20
9.34
4.95
0.35
-4.12
-8.22
-11.92
-15.36
-18.89
-22.90
-27.76
-33.60
-40.16
-46.59
-51.56
-53.56
-51.43
-44.77
-34.25
-21.40
-8.13
3.84
13.38
20.14
24.36
26.53
27.20
26.81
25.73
24.38
23.31
23.02
23.96
26.22
29.44
32.94
35.90
37.70
38.16
37.53
36.27
34.78
33.14
31.16
28.60
25.42
21.92
18.65
16.04
14.13
12.46
10.21
6.54
1.00
-6.29
-14.59
-22.70
-29.22
-32.78
-32.37
-27.52
-18.60
-6.71
6.48
19.15
29.83
37.65
42.38
44.26
43.77
41.43
37.88
33.86
30.27
27.95
27.57
29.27
32.71
37.11
41.45
44.72
46.04
44.77
40.47
33.00
22.45
9.19
-6.10
-22.45
-38.69
-53.65
-66.33
-76.18
-83.13
-87.67
-90.57
-92.66
-94.61
-96.65
-98.52
-99.45
-98.31
-93.92
-85.47
-72.91
-57.08
-39.53
-22.07
-6.20
7.20
17.94
26.25
32.48
36.90
39.70
41.10
41.49
41.35
41.16
41.19
41.52
41.97
42.25
42.14
41.47
40.17
38.19
35.42
31.76
27.10
21.51
15.25
8.82
2.75
-2.54
-6.99
-10.92
-14.97
-19.88
-26.20
-34.03
-42.80
-51.27
-57.71
-60.30
-57.75
-49.69
-36.92
-21.19
-4.61
10.89
24.06
34.39
41.91
46.90
49.64
50.43
49.69
48.03
46.18
44.81
44.28
44.48
44.95
45.02
44.19
42.26
39.45
36.15
32.73
29.32
25.68
21.41
16.19
10.00
3.19
-3.62
-9.91
-15.42
-20.25
-24.88
-29.88
-35.76
-42.78
-50.84
-59.31
-67.06
-72.54
-74.12
-70.62
-61.78
-48.46
-32.46
-15.93
-0.74
11.96
21.80
28.91
33.52
35.84
36.01
34.39
31.68
28.87
26.97
26.57
27.69
29.71
31.77
33.04
33.16
32.22
30.72
29.21
28.00
27.08
26.07
24.44
21.74
17.80
12.79
7.13
1.31
-4.27
-9.43
-14.29
-19.17
-24.58
-31.04
-38.89
-48.07
-57.87
-66.90
-73.29
-75.23
-71.52
-62.13
-48.20
-31.76
-15.00
0.38
13.46
24.09
32.49
38.91
43.41
45.93
46.61
45.90
44.65
43.74
43.85
45.06
46.91
48.57
49.22
48.38
46.05
42.63
38.65
34.58
30.64
26.82
22.94
18.82
14.33
9.42
4.14
-1.34
-6.76
-11.84
-16.38
-20.35
-23.95
-27.63
-31.95
-37.40
-44.21
-52.12
-60.21
-66.99
-70.69
-69.72
-63.30
-51.79
-36.59
-19.80
-3.55
10.60
21.85
30.08
35.55
38.54
39.37
38.39
36.19
33.57
31.43
30.44
30.81
32.24
34.01
35.34
35.63
34.69
32.71
30.09
27.27
24.47
21.69
18.74
15.30
11.15
6.22
0.62
-5.33
-11.23
-16.74
-21.63
-25.95
-29.90
-33.87
-38.28
-43.53
-49.88
-57.23
-64.93
-71.71
-75.83
-75.56
-69.78
-58.51
-43.03
-25.55
-8.46
6.40
18.09
26.60
32.41
36.05
37.93
38.28
37.46
36.00
34.65
34.09
34.64
36.12
37.89
39.15
39.26
37.97
35.49
32.30
28.95
25.77
22.80
19.76
16.24
11.90
6.59
0.49
-6.05
-12.59
-18.79
-24.43
-29.50
-34.14
-38.54
-43.03
-48.04
-53.97
-60.96
-68.58
-75.62
-80.19
-80.30
-74.53
-62.71
-46.11
-27.09
-8.25
8.31
21.49
31.15
37.73
41.75
43.59
43.53
42.03
39.81
37.82
36.91
37.41
39.13
41.37
43.32
44.34
44.15
42.82
40.59
37.71
34.39
30.72
26.73
22.39
17.63
12.39
6.62
0.43
-5.98
-12.31
-18.25
-23.63
-28.45
-32.94
-37.55
-42.86
-49.35
-57.14
-65.77
-73.98
-79.97
-81.82
-78.19
-68.77
-54.45
-37.08
-18.81
-1.51
13.57
25.88
35.19
41.46
44.67
45.05
43.21
40.21
37.32
35.61
35.58
37.06
39.39
41.76
43.53
44.39
44.27
43.21
41.26
38.53
35.20
31.54
27.74
23.81
19.54
14.61
8.82
2.26
-4.62
-11.20
-16.99
-21.88
-26.20
-30.59
-35.74
-42.17
-49.98
-58.74
-67.46
-74.63
-78.52
-77.60
-71.06
-59.14
-43.20
-25.31
-7.68
7.97
20.69
30.25
36.84
40.72
42.11
41.31
38.86
35.60
32.58
30.68
30.35
31.43
33.24
34.88
35.57
34.93
33.04
30.33
27.29
24.23
21.12
17.64
13.31
7.85
1.32
-5.88
-13.07
-19.64
-25.27
-29.94
-33.92
-37.59
-41.28
-45.23
-49.58
-54.30
-59.06
-63.05
-65.03
-63.58
-57.62
-46.94
-32.41
-15.81
0.73
15.34
26.91
