1553112712.00
64.000000
-0.00
-0.00
-0.00
-0.00
-0.00
-0.00
-0.00
-0.00
-0.00
-0.00
0.00
0.01
0.01
-0.00
-0.03
-0.05
-0.05
0.00
0.13
0.36
0.66
1.01
1.37
1.72
2.06
2.40
2.79
3.24
3.80
4.42
5.06
5.66
6.20
6.68
7.15
7.68
8.31
9.14
10.09
11.04
11.88
12.56
13.14
13.76
14.65
15.96
17.91
20.32
22.90
25.38
27.58
29.57
31.68
34.32
37.81
42.54
48.15
54.10
59.83
64.97
69.58
74.14
79.34
85.71
93.76
103.00
112.62
121.73
129.77
136.75
143.30
150.75
157.77
166.64
177.95
191.79
206.97
220.57
228.25
225.36
208.53
176.87
132.76
80.05
23.07
-34.94
-92.44
-149.16
-205.23
-260.37
-313.74
-363.86
-409.81
-450.87
-486.45
-515.66
-537.11
-549.07
-549.76
-538.12
-513.90
-478.31
-433.45
-381.96
-326.46
-269.21
-211.93
-155.88
-102.10
-51.44
-4.88
36.70
72.64
102.68
126.94
145.95
160.41
171.03
178.43
183.01
185.06
184.81
182.53
178.57
173.34
167.25
160.64
153.77
146.78
139.73
132.68
125.65
118.73
111.97
105.45
99.22
93.32
87.75
82.54
77.69
73.21
69.10
65.37
62.04
59.10
56.57
54.43
52.66
51.24
50.10
49.18
48.34
47.46
46.36
44.85
42.77
39.97
36.38
31.96
26.77
20.87
14.44
7.72
0.98
-5.53
-11.54
-16.83
-21.22
-24.63
-26.99
-28.31
-28.68
-28.19
-26.97
-25.18
-22.94
-20.39
-17.62
-14.72
-11.73
-8.73
-5.75
-2.84
0.02
2.81
5.54
8.24
10.93
13.65
16.39
19.12
21.87
24.63
27.44
30.33
33.33
36.49
39.89
43.44
47.12
50.91
54.81
58.83
63.00
67.35
71.93
76.84
81.92
87.10
92.31
97.54
102.77
108.02
113.30
118.64
124.09
129.38
134.27
138.56
141.98
144.26
145.01
143.75
139.77
134.39
128.07
121.15
113.83
106.27
98.59
90.91
83.32
75.96
68.99
62.24
55.68
49.27
43.05
37.10
31.49
26.32
21.74
17.86
14.61
11.93
9.79
8.14
6.95
6.16
5.69
5.49
5.51
5.54
5.41
5.02
4.28
3.15
1.61
-0.28
-2.41
-4.66
-6.91
-9.00
-10.77
-12.05
-12.69
-12.56
-11.64
-9.91
-7.48
-4.52
-1.24
2.11
5.33
8.22
10.62
12.48
13.78
14.57
14.94
15.00
14.85
14.57
14.22
13.83
13.41
12.94
12.41
11.79
11.07
10.25
9.35
8.43
7.55
6.75
6.12
5.66
5.35
5.13
4.91
4.61
4.16
3.58
2.89
2.17
1.48
0.90
0.45
0.09
-0.19
-0.42
-0.62
-0.76
-0.82
-0.84
-0.93
-1.31
-2.23
-3.91
-6.45
-9.76
-13.61
-17.69
-21.78
-25.81
-29.96
-34.53
-39.80
-45.92
-52.73
-59.88
-66.93
-73.61
-79.98
-86.45
-93.67
-102.25
-112.52
-124.36
-137.30
-150.75
-164.21
-177.51
-190.84
-204.62
-219.50
-236.32
-255.95
-278.84
-304.41
-330.57
-353.87
-370.25
-376.54
-371.57
-356.71
-335.27
-311.23
-287.91
-267.21
-249.68
-235.09
-222.87
-212.34
-202.54
-192.14
-179.60
-163.68
-143.95
-121.12
-96.81
-73.12
-51.92
-34.35
-20.59
-10.07
-1.79
5.22
11.59
17.48
22.68
26.87
29.97
32.17
34.06
36.30
39.41
43.53
48.31
53.10
57.24
60.35
62.44
63.91
65.23
66.79
68.69
70.81
72.96
74.96
76.80
78.42
79.76
80.60
80.65
79.67
77.59
74.47
70.38
65.30
58.89
50.76
40.73
29.29
17.67
7.74
1.35
-0.32
2.88
9.94
19.28
29.17
38.25
45.73
51.27
54.82
56.42
56.15
54.19
50.91
46.84
42.55
38.47
34.75
31.18
27.38
23.06
18.30
13.69
10.11
8.43
8.98
11.36
14.49
16.99
17.69
15.98
11.94
6.17
-0.45
-7.10
-13.28
-18.82
-23.89
-28.80
-33.82
-39.05
-44.36
-49.56
-54.44
-58.90
-62.90
-66.46
-69.64
-72.54
-75.40
-78.57
-82.31
-86.40
-89.99
-91.59
-89.71
-83.33
-72.54
-58.61
-43.48
-29.13
-16.90
-7.23
0.15
5.78
10.15
13.48
15.83
17.28
18.10
18.62
19.23
20.13
21.28
22.51
23.55
24.28
24.77
25.26
26.08
27.44
29.28
31.24
32.73
33.13
32.11
29.72
26.45
22.96
19.91
17.52
15.53
13.38
10.44
6.40
1.41
-3.99
-9.11
-13.44
-16.87
-19.72
-22.55
-25.95
-30.38
-35.91
-42.23
-48.63
-54.09
-57.39
-57.39
-53.27
-44.82
-32.46
-17.37
-1.19
14.21
27.23
36.84
42.77
45.48
45.86
44.92
43.40
41.66
39.72
37.50
34.93
32.17
29.49
27.20
25.58
24.77
24.87
25.90
27.80
30.38
33.22
35.77
37.37
37.53
35.96
32.80
28.52
23.82
19.37
15.55
12.39
9.50
6.33
2.47
-2.16
-7.25
-12.18
-16.30
-19.23
-20.98
-22.04
-23.09
-24.96
-28.17
-32.79
-38.25
-43.38
-46.74
-46.91
-43.01
-34.94
-23.55
-10.30
3.05
14.94
24.34
30.83
34.60
36.18
36.20
35.20
33.57
31.54
29.20
26.61
23.84
21.08
18.59
16.64
15.48
15.22
15.75
16.73
17.88
18.89
19.66
20.05
20.02
19.46
18.26
16.38
13.88
10.90
7.58
3.96
0.01
-4.26
-8.75
-13.15
-17.10
-20.37
-22.93
-25.24
-27.94
-31.74
-37.00
-43.43
-50.08
-55.49
-58.09
-56.68
-50.85
-41.09
-28.66
-15.26
-2.52
8.19
16.20
21.40
24.10
24.89
24.33
22.93
21.03
18.89
16.78
15.05
14.01
13.89
14.69
16.19
18.09
19.99
21.66
22.92
23.69
23.88
23.41
22.24
20.39
17.95
15.07
11.93
8.63
5.22
1.69
-2.03
-5.86
-9.70
-13.34
-16.59
-19.32
-21.63
-23.78
-26.20
-29.19
-32.86
-36.90
-40.50
-42.54
-41.85
-37.67
-29.94
-19.32
-7.14
5.06
15.94
24.65
30.93
34.86
36.64
36.60
35.04
32.41
29.36
26.58
24.66
23.82
23.89
24.38
24.89
25.20
25.42
25.89
26.86
28.36
30.12
31.65
32.50
32.41
31.34
29.45
26.94
24.02
20.80
17.32
13.60
9.57
5.25
0.65
-4.11
-8.80
-13.19
-17.05
-20.27
-22.87
-25.13
-27.50
-30.61
-34.97
-40.69
-47.31
-53.63
-57.96
-58.69
-54.83
-46.49
-34.86
-21.86
-9.49
0.83
8.54
13.79
17.14
19.16
20.23
20.58
20.46
20.26
20.42
21.15
22.41
23.80
24.92
25.59
26.02
26.66
27.91
29.78
31.79
33.24
33.52
32.44
30.26
27.53
24.76
22.23
19.94
17.71
15.33
12.66
9.65
6.38
3.03
-0.40
-3.85
-7.31
-10.69
-13.74
-16.14
-17.63
-18.34
-18.99
-20.66
-24.33
-30.26
-37.59
-44.40
-48.48
-48.10
-42.95
-33.99
-23.09
-12.04
-2.04
6.61
14.07
20.52
25.65
28.92
29.93
28.87
26.70
24.67
23.81
24.38
25.68
26.55
26.14
24.42
22.30
21.11
21.87
24.67
28.46
31.72
33.18
32.41
30.05
27.25
25.07
23.93
23.39
22.54
20.64
17.49
13.57
9.73
6.67
4.76
3.61
2.50
0.70
-2.14
-5.84
-9.81
-13.38
-16.05
-17.73
-18.76
-19.77
-21.46
-24.41
-28.83
-34.43
-40.32
-45.19
-47.61
-46.45
-41.30
-32.64
-21.58
-9.61
1.87
11.84
19.71
25.31
28.74
30.30
30.44
29.66
28.52
27.49
26.81
26.49
26.29
25.96
25.25
24.18
22.98
22.08
21.83
22.37
23.52
24.84
25.81
26.08
25.52
24.22
22.31
19.88
16.94
13.58
9.99
6.48
3.41
0.89
-1.25
-3.41
-6.06
-9.39
-13.26
-17.19
-20.50
-22.71
-23.69
-23.77
-23.65
-24.13
-25.85
-29.03
-33.37
-38.09
-42.10
-44.33
-43.96
-40.63
-34.46
-26.05
-16.24
-6.05
3.49
11.48
17.28
20.64
21.71
21.05
19.40
17.53
15.93
14.80
14.05
13.56
13.24
13.15
13.51
14.47
16.10
18.22
20.55
22.72
24.37
25.30
25.40
24.71
23.31
21.29
18.75
15.83
12.75
9.79
7.27
5.41
4.13
3.04
1.63
-0.56
-3.65
-7.30
-10.90
-13.83
-15.85
-17.25
-18.67
-20.77
-23.99
-28.20
-32.74
-36.49
-38.26
-37.09
-32.62
-25.22
-15.86
-5.81
3.72
11.87
18.28
22.86
25.71
27.01
26.93
25.78
24.04
22.28
20.98
20.38
20.40
20.78
21.26
21.64
21.93
22.18
22.51
22.92
23.24
23.29
22.91
22.10
21.06
20.04
19.17
18.39
17.35
15.74
13.45
10.65
7.79
5.29
3.32
1.64
-0.23
-2.74
-6.04
-9.84
-13.57
-16.67
-18.88
-20.33
-21.52
-23.10
-25.59
-29.20
-33.72
-38.59
-43.00
-45.99
-46.67
-44.42
-39.02
-30.76
-20.49
-9.40
1.24
10.33
17.21
21.67
23.92
24.42
23.72
22.35
20.77
19.32
18.17
17.35
16.80
16.41
16.14
16.02
16.10
16.43
16.98
17.68
18.41
19.02
19.37
19.29
18.66
17.37
15.45
12.99
10.27
7.59
5.26
3.51
2.42
1.88
1.61
1.23
0.39
-1.10
-3.21
-5.74
-8.35
-10.78
-12.92
-14.82
-16.72
-18.91
-21.65
-25.22
-29.73
-35.05
-40.74
-45.93
-49.46
-50.21
-47.34
-40.73
-31.07
-19.62
-7.95
2.59
11.08
17.17
20.98
22.88
23.32
22.77
21.64
20.24
18.84
17.65
16.78
16.23
15.98
15.99
16.29
16.97
18.09
19.65
21.43
23.17
24.48
25.11
25.02
24.32
23.23
22.00
20.83
19.87
19.09
18.36
17.51
16.32
14.64
12.56
10.36
8.44
7.08
6.30
5.81
5.13
3.73
1.35
-1.92
-5.69
-9.48
-12.87
-15.69
-17.95
-19.95
-21.96
-24.29
-27.11
-30.47
-34.24
-37.98
-40.90
-42.08
-40.62
-35.97
-28.24
-18.30
-7.55
2.44
10.54
16.10
19.21
20.45
20.50
20.00
19.23
18.24
16.92
15.28
13.46
11.81
10.73
10.47
11.04
12.14
13.39
14.40
15.11
15.61
16.08
16.62
17.00
16.79
15.64
13.40
10.28
6.81
3.55
0.91
-1.05
-2.66
-4.26
-6.16
-8.44
-10.92
-13.41
-15.73
-17.88
-19.95
-22.02
-24.07
-25.92
-27.38
-28.35
-29.04
-29.86
-31.32
-33.77
-37.12
-40.69
-43.39
-44.02
-41.72
-36.27
-28.27
-18.84
-9.29
-0.75
6.16
11.26
14.74
16.84
17.80
17.72
16.75
15.17
13.38
11.86
10.94
10.81
11.34
12.27
13.36
14.44
15.47
16.44
17.30
17.85
17.91
17.27
15.89
13.89
11.49
8.94
6.44
4.03
1.63
-0.92
-3.70
-6.69
-9.77
-12.69
-15.26
-17.41
-19.19
-20.81
-22.48
-24.41
-26.95
-30.34
-34.67
-39.60
-44.25
-47.25
-47.24
-43.35
-35.79
-25.77
-15.06
-5.24
2.86
9.29
14.58
19.22
23.21
26.20
27.77
27.77
26.54
24.79
23.19
22.19
21.62
21.09
20.11
18.54
16.68
15.14
14.56
15.29
16.93
18.71
19.83
19.85
19.02
18.00
17.38
17.27
17.02
15.67
12.56
7.82
2.44
-2.27
-5.38
-6.80
-7.48
-8.74
-11.50
-15.75
-20.53
-24.56
-26.93
-27.70
-27.93
-29.04
-32.12
-37.31
-43.63
-49.42
-52.86
-52.52
-47.91
-39.47
-28.31
-15.99
-3.95
6.67
15.22
21.55
25.77
28.08
28.74
28.01
26.26
23.99
21.78
20.10
19.16
18.93
19.20
19.77
20.50
21.42
22.65
24.21
26.01
27.76
29.13
29.80
29.63
28.67
27.23
25.61
24.05
22.54
20.81
18.46
15.18
11.01
6.28
1.60
-2.43
-5.51
-7.71
-9.41
-11.04
-12.91
-15.06
-17.30
-19.46
-21.40
-23.21
-25.04
-27.14
-29.76
-33.12
-37.32
-42.25
-47.38
-51.80
-54.29
-53.71
-49.44
-41.62
-31.19
-19.49
-8.01
2.07
10.01
15.53
18.75
20.09
20.17
19.65
19.17
19.10
19.53
20.27
21.09
21.73
22.23
22.74
23.49
24.65
26.25
28.16
30.08
31.70
32.75
33.13
32.86
32.01
30.68
28.88
26.61
23.91
20.91
17.78
14.67
11.69
8.81
5.95
2.97
-0.16
-3.41
-6.69
-9.95
-13.19
-16.38
-19.59
-22.77
-25.94
-28.98
-31.94
-34.91
-38.21
-42.13
-46.72
-51.54
-55.53
-57.28
-55.40
-49.17
-38.85
-25.71
-11.57
1.81
13.17
22.02
28.41
32.66
35.05
35.87
35.35
33.80
31.71
29.57
27.88
26.90
26.63
26.88
27.40
28.01
28.63
29.42
30.48
31.83
33.21
34.14
34.20
33.13
31.00
28.23
25.32
22.63
20.28
18.15
16.02
13.75
11.34
8.92
6.64
4.56
2.51
0.24
-2.52
-5.88
-9.71
-13.71
-17.52
-20.82
-23.56
-25.92
-28.20
-30.75
-33.80
-37.46
-41.69
-46.26
-50.65
-54.10
-55.67
-54.46
-49.95
-42.23
-32.04
-20.66
-9.56
0.01
7.27
12.05
14.77
16.04
16.55
16.79
16.98
17.14
17.26
17.38
17.64
18.24
19.21
20.52
21.95
23.29
24.42
25.37
26.20
27.00
27.70
28.00
27.58
26.18
23.76
20.55
16.96
13.45
10.28
7.48
4.78
1.87
-1.52
-5.43
-9.63
-13.79
-17.64
-21.19
-24.74
-28.86
-34.01
-40.30
-47.22
-53.63
-58.10
-59.25
-56.29
-49.21
-38.81
-26.34
-13.15
-0.34
11.30
21.25
29.09
34.52
37.44
38.05
36.96
34.94
32.79
31.05
29.86
29.18
28.82
28.68
28.68
28.79
28.92
28.94
28.79
28.47
28.10
27.69
27.19
26.34
24.81
22.34
18.91
14.84
10.59
6.68
3.38
0.63
-1.89
-4.63
-7.87
-11.66
-15.75
-19.73
-23.25
-26.16
-28.55
-30.72
-33.04
-35.91
-39.59
-44.20
-49.46
-54.70
-58.83
-60.57
-58.88
-53.23
-43.84
-31.70
-18.11
-4.46
8.08
18.73
26.96
32.60
35.73
36.73
36.24
35.08
33.95
33.26
33.05
33.06
33.01
32.70
32.18
31.68
31.48
31.69
32.17
32.65
32.85
32.53
31.72
30.60
29.39
28.21
27.03
25.61
23.80
21.42
18.57
15.46
12.37
9.51
6.90
4.43
1.89
-0.91
-4.02
-7.28
-10.35
-13.00
-15.16
-17.05
-19.06
-21.68
-25.27
-29.92
-35.44
-41.28
-46.68
-50.66
-52.16
-50.36
-44.89
-36.09
-24.96
-12.96
-1.64
7.72
14.47
18.49
20.19
20.31
19.59
18.69
18.01
17.68
17.67
17.89
18.25
18.81
19.74
21.13
22.99
25.15
27.30
29.07
30.24
30.69
30.46
29.75
28.64
27.19
25.40
23.23
20.80
18.31
15.95
13.89
12.14
10.52
8.76
6.64
4.00
0.85
-2.63
-6.21
-9.60
-12.59
-15.11
-17.13
-18.82
-20.39
-22.11
-24.29
-27.27
-31.27
-36.24
-41.67
-46.44
-49.12
-48.38
-43.50
-34.78
-23.39
-10.99
0.92
11.37
20.08
27.11
32.59
36.41
38.36
38.32
36.52
33.72
30.74
28.32
26.72
25.73
24.90
23.92
22.84
22.03
21.81
22.21
22.93
23.47
23.52
23.14
22.60
22.15
21.54
20.19
17.55
13.44
8.32
3.12
-1.35
-4.88
-8.01
-11.52
-15.86
-20.81
-25.42
-28.68
-30.12
-30.11
-30.01
-31.37
-35.22
-41.51
-49.00
-55.68
-59.54
-59.24
-54.71
-46.95
-37.42
-27.51
-17.97
-8.93
-0.38
7.50
13.90
17.82
18.65
16.67
13.10
9.67
7.76
7.86
9.37
11.12
12.14
12.13
11.59
11.42
12.33
14.49
17.34
19.90
21.27
20.94
19.02
15.99
12.55
9.32
6.56
4.24
2.09
-0.23
-2.94
-6.05
-9.37
-12.60
-15.44
-17.80
-19.74
-21.54
-23.48
-25.83
-28.70
-32.13
-35.97
-39.95
-43.57
-46.10
-46.74
-44.72
-39.71
-31.89
-22.02
-11.28
-0.95
7.90
14.62
19.07
21.60
22.76
23.21
23.43
23.61
23.70
23.53
23.01
22.26
21.65
21.57
22.27
23.62
25.24
26.64
27.46
27.55
27.01
26.07
24.88
23.50
21.93
20.17
18.33
16.56
15.01
13.74
12.64
11.44
9.92
7.89
5.35
2.46
-0.51
-3.32
-5.84
-8.14
-10.36
-12.64
-15.00
-17.33
-19.47
-21.38
-23.22
-25.38
-28.40
-32.65
-38.13
-44.33
-50.27
-54.63
-56.18
-54.05
-48.10
-38.94
-27.86
-16.37
-5.89
2.65
8.90
12.88
14.91
15.39
14.67
13.21
11.49
9.97
9.01
8.74
9.07
9.75
10.54
11.32
12.14
13.20
14.68
16.59
18.71
20.71
22.17
22.79
22.57
21.65
20.34
18.87
17.30
15.55
13.48
11.11
8.72
6.71
5.42
4.85
4.67
4.35
3.40
1.63
-0.78
-3.40
-5.83
-7.93
-9.92
-12.16
-15.00
-18.61
-22.98
-27.96
-33.24
-38.37
-42.67
-45.23
-45.15
-41.83
-35.23
-26.02
-15.39
-4.74
4.65
11.95
16.79
19.23
19.68
18.74
17.07
15.27
13.77
12.83
12.50
12.80
13.74
15.32
17.46
19.88
22.23
24.04
25.08
25.21
24.57
23.36
21.78
19.94
17.89
15.70
13.44
11.27
9.28
7.54
5.91
4.27
2.52
0.63
-1.23
-2.94
-4.29
-5.26
-5.91
-6.46
-7.14
-8.00
-9.02
-10.00
-10.73
-11.04
-11.10
-11.26
-12.09
-14.16
-17.74
-22.70
-28.20
-33.01
-35.73
-35.30
-31.30
-24.09
-14.77
-4.69
4.79
12.70
18.51
22.05
23.43
22.90
20.87
17.89
14.56
11.49
9.09
7.49
6.56
6.02
5.60
5.20
4.88
4.86
5.32
6.27
7.59
9.02
10.25
10.98
11.03
10.34
9.06
7.45
5.83
4.46
3.41
2.46
1.36
-0.17
-2.31
-5.01
-8.07
-11.17
-14.01
-16.32
-18.10
-19.54
-21.10
-23.35
-26.72
-31.22
-36.25
-40.71
-43.31
-42.94
-39.10
-32.10
-22.90
-12.83
-3.29
4.71
10.57
14.17
15.76
15.78
14.73
13.17
11.55
10.16
9.11
8.28
7.47
6.45
5.15
3.72
2.41
1.53
1.20
1.44
2.14
3.17
4.42
5.87
7.47
9.11
10.58
11.67
12.12
11.86
10.87
9.40
7.66
5.93
4.37
2.96
1.43
-0.57
-3.42
-7.21
-11.67
-16.23
-20.16
-22.98
-24.64
-25.63
-26.76
-28.89
-32.56
-37.63
-43.27
-48.11
-50.69
-49.92
-45.47
-37.73
-27.77
-16.85
-6.17
3.43
11.35
17.29
21.06
22.79
22.86
21.84
20.44
19.14
18.12
17.24
16.18
14.84
13.30
11.89
10.99
10.81
11.37
12.38
13.43
14.18
14.37
13.97
13.11
11.99
10.86
9.83
8.78
7.52
5.86
3.74
1.37
-0.89
-2.70
-3.97
-4.95
-6.13
-7.94
-10.47
-13.49
-16.48
-19.05
-21.06
-22.78
-24.64
-27.00
-29.97
-33.40
-37.05
-40.68
-44.05
-46.73
-48.06
-47.11
-43.03
-35.42
-24.67
-11.96
1.07
12.67
21.56
27.17
29.68
29.85
28.68
26.96
25.12
23.35
21.61
19.96
18.61
17.85
17.92
18.76
20.09
21.50
22.72
23.66
24.46
25.25
25.97
26.39
26.17
25.06
22.94
19.99
16.54
12.92
9.42
6.21
3.28
0.55
-2.15
-4.91
-7.73
-10.59
-13.37
-16.02
-18.51
-20.86
-23.04
-25.05
-26.79
-28.35
-29.90
-31.89
-34.77
-38.78
-43.55
-48.05
-50.91
-50.94
-47.55
-41.09
-32.55
-23.04
-13.49
-4.44
3.88
11.01
16.42
19.64
20.55
19.66
18.02
16.66
16.21
16.49
16.88
16.76
15.95
14.95
14.65
15.81
18.53
21.98
24.93
26.29
25.75
23.79
21.39
19.33
17.86
16.47
14.45
11.35
7.39
3.34
0.00
-2.16
-3.26
-3.92
-4.79
-6.17
-7.92
-9.63
-10.85
-11.45
-11.59
-11.91
-13.14
-15.96
-20.55
-26.38
-32.29
-36.59
-37.66
-34.52
-27.31
-17.15
-5.86
4.83
13.73
20.39
25.01
28.02
29.82
30.55
30.19
28.74
26.28
23.14
19.76
16.56
13.90
11.93
10.63
9.88
9.56
9.62
10.07
10.97
12.32
13.98
15.60
16.71
16.87
15.81
13.59
10.61
7.39
4.39
1.78
-0.53
-2.89
-5.64
-9.04
-13.14
-17.84
-22.88
-27.91
-32.65
-36.85
-40.42
-43.46
-46.35
-49.59
-53.65
-58.70
-64.40
-69.77
-73.41
-73.80
-69.90
-61.50
-49.47
-35.46
-21.43
-9.04
0.71
7.62
12.02
14.52
15.66
15.89
15.53
14.90
14.28
13.96
14.10
14.75
15.78
17.01
18.36
19.70
21.03
22.42
23.92
25.56
27.24
28.73
29.68
29.74
28.72
26.74
24.24
21.69
19.52
17.70
15.95
13.71
10.61
6.58
1.92
-2.87
-7.34
-11.25
-14.61
-17.51
-20.03
-22.18
-24.05
-25.87
-28.11
-31.28
-35.64
-40.84
-45.81
-48.99
-48.85
-44.51
-36.12
-24.79
-12.28
-0.35
9.73
17.45
22.92
26.57
28.83
29.94
30.03
29.13
27.33
24.94
22.35
19.96
18.07
16.68
15.66
14.82
14.12
13.70
13.87
14.81
16.49
18.51
20.30
21.25
20.97
19.49
17.09
14.14
10.94
7.66
4.38
1.19
-1.75
-4.18
-5.92
-6.87
-7.28
-7.64
-8.60
-10.65
-13.79
-17.34
-19.96
-19.98
-15.93
-7.06
6.41
23.41
42.40
61.87
80.70
98.23
114.20
128.55
141.38
152.86
163.26
172.94
182.19
191.08
199.55
207.28
214.13
220.31
226.58
233.80
242.32
251.06
257.30
257.24
247.22
225.40
192.70
152.70
110.23
69.60
33.04
0.29
-30.71
-62.54
-97.25
-135.93
-178.85
-225.50
-274.41
-322.79
-366.48
-401.02
-423.50
-434.21
-436.98
-437.78
-441.76
-450.85
-462.78
-472.74
-476.24
-471.80
-461.73
-450.66
-442.80
-439.66
-439.20
-436.91
-427.90
-408.67
-378.22
-337.69
-289.38
-235.77
-178.90
-120.52
-62.46
-6.97
43.33
86.06
119.95
145.30
163.92
178.39
191.09
203.43
215.91
228.77
242.68
258.99
279.09
303.32
330.06
355.54
374.65
382.44
375.43
352.34
314.20
264.44
209.18
157.14
118.36
101.35
109.72
139.59
180.03
216.45
235.71
230.44
200.99
153.75
98.14
42.84
-6.17
-46.18
-76.82
-98.99
-113.92
-122.97
-127.67
-129.38
-128.63
-124.34
-113.64
-93.45
-63.16
-27.20
4.76
21.00
13.15
-19.01
-66.46
-114.60
-150.06
-166.74
-167.55
-161.43
-157.61
-160.78
-169.84
-180.03
-186.34
-186.40
-180.80
-171.86
-161.79
-151.49
-140.23
-126.34
-107.67
-82.31
-49.17
-8.32
38.46
87.50
133.62
171.32
196.82
209.85
214.11
215.83
220.77
231.15
244.26
253.57
252.02
235.62
205.32
166.50
126.34
90.85
63.01
42.90
29.15
20.57
17.17
19.64
28.23
41.55
56.17
66.97
68.75
58.13
35.01
2.86
-32.30
-64.04
-87.60
-101.24
-106.28
-105.91
-103.55
-101.44
-99.96
-97.91
-93.45
-85.10
-72.42
-56.27
-38.23
-20.00
-2.47
14.64
32.58
52.60
74.91
98.01
119.03
135.02
144.41
147.84
147.93
148.03
150.66
156.49
164.35
172.25
178.61
182.87
185.28
185.96
184.40
179.62
171.15
160.07
149.58
144.41
149.38
167.41
197.98
236.96
277.81
313.43
338.31
349.53
346.63
330.44
301.74
260.26
204.75
134.30
50.56
-40.44
-127.65
-196.61
-233.00
-227.21
-178.40
-95.97
2.35
95.44
164.93
200.00
198.86
167.07
113.55
46.82
-27.03
-104.35
-183.03
-261.52
-338.43
-412.00
-479.47
-536.44
-576.42
-591.97
-576.97
-529.45
-453.27
-357.09
-251.79
-146.99
-48.85
40.17
119.82
190.06
249.84
296.75
327.83
340.02
330.85
298.93
244.84
172.47
89.86
9.21
-55.60
-93.19
-99.35
-79.60
-47.97
-22.62
-19.04
-44.40
-95.05
-158.40
-217.49
-256.84
-266.64
-244.86
-197.01
-134.21
-70.53
-19.78
7.30
4.88
-27.51
-85.97
-163.44
-250.85
-337.69
-412.95
-466.66
-492.37
-489.40
-463.44
-424.86
-384.71
-350.46
-323.69
-300.88
-276.45
-246.29
-209.96
-170.58
-132.85
-100.40
-74.23
-52.45
-31.42
-7.43
21.77
56.36
95.04
135.96
177.59
219.07
260.03
300.06
338.00
371.67
397.84
412.87
413.79
399.38
370.97
332.70
290.96
252.83
224.13
207.85
203.41
207.18
214.12
219.63
220.93
217.70
211.71
206.18
204.54
209.19
220.49
236.46
253.53
267.82
276.73
279.91
279.13
277.10
275.84
275.51
274.12
268.42
255.30
233.02
201.84
163.54
120.64
75.54
30.06
-14.64
-57.77
-98.51
-135.78
-168.35
-195.44
-217.26
-235.39
-252.46
-271.55
-295.37
-325.97
-364.78
-412.38
-467.94
-528.39
-587.91
-638.74
-673.30
-686.76
-678.93
-654.23
-619.61
-581.80
-545.01
-510.52
-477.66
-445.41
-413.52
-382.34
-352.18
-322.62
-292.51
-260.78
-227.26
-193.08
-160.39
-131.56
-108.14
-90.33
-76.97
-66.18
-56.17
-45.98
-35.88
-26.88
-20.20
-16.43
-15.20
-15.21
-14.81
-12.63
-8.16
-1.79
5.46
12.60
19.33
26.21
34.53
45.82
61.07
80.39
103.15
128.20
154.45
181.36
208.96
237.90
269.18
304.16
344.18
389.88
440.13
491.34
537.63
572.31
589.85
587.95
568.23
535.24
494.63
451.13
407.69
365.78
326.13
289.55
256.96
228.93
205.13
184.29
164.78
145.46
126.04
107.13
89.91
75.44
64.27
56.28
50.72
46.85
44.09
42.41
42.28
44.53
49.89
58.61
70.36
84.34
99.37
114.33
128.48
141.49
153.42
164.41
174.47
183.28
190.20
194.40
195.20
192.39
186.26
177.54
166.98
155.15
141.97
126.85
108.93
87.52
62.65
35.17
6.59
-21.45
-47.77
-72.13
-95.25
-118.36
-142.53
-168.04
-194.02
-219.04
-241.61
-261.08
-277.99
-293.87
-310.91
-331.47
-357.74
-391.32
-432.31
-478.23
-523.53
-560.19
-579.95
-577.20
-551.25
-506.54
-450.79
-392.03
-335.94
-285.10
-239.83
-199.86
-165.28
-136.43
-112.86
-92.53
-72.11
-48.17
-18.83
15.32
52.02
88.09
121.28
151.20
179.14
207.43
238.54
274.35
315.95
362.87
412.42
459.30
496.11
515.15
510.93
482.19
432.58
369.17
299.85
230.94
165.88
105.77
50.34
-0.91
-48.37
-92.96
-136.91
-183.70
-237.08
-299.09
-368.01
-437.84
-498.86
-541.09
-557.86
-548.34
-517.78
-475.12
-429.39
-386.85
-349.79
-317.75
-289.51
-264.49
-242.86
-224.52
-208.28
-191.90
-172.45
-148.32
-120.17
-90.37
-62.09
-37.35
-16.12
3.49
24.42
49.73
80.72
116.25
152.41
183.75
205.02
213.22
209.43
198.55
189.21
189.67
204.10
230.47
260.57
282.36
284.16
258.27
203.37
127.85
44.47
-33.96
-98.41
-145.01
-173.63
-185.60
-182.41
-165.31
-129.92
-74.24
-0.94
82.28
165.73
242.16
309.58
370.52
428.80
496.85
582.74
687.20
803.13
918.90
1023.91
1113.33
1187.61
1250.49
1319.95
1411.57
1532.74
1678.66
1834.39
1981.00
2103.38
2193.62
2167.13
1970.94
1594.78
1083.46
517.83
-23.53
-492.33
-870.82
-1160.27
-1368.76
-1493.01
-1532.84
-1498.41
-1413.13
-1303.15
-1196.78
-1111.74
-1054.47
-1022.43
-999.51
-970.41
-927.24
-871.36
-808.61
-745.59
-684.69
-625.44
-564.50
-497.56
-419.06
-327.09
-233.98
-152.95
-94.90
-63.26
-55.80
-65.64
-82.54
-97.22
-104.61
-104.22
-97.41
-87.44
-71.07
-54.03
-40.44
-31.01
-23.48
-15.81
-7.58
0.93
8.03
11.73
9.13
0.98
-13.79
-30.41
-42.82
-45.65
-34.56
-7.44
35.04
87.58
137.28
169.47
173.12
145.91
96.51
40.32
-8.38
-38.63
-55.60
-67.75
-82.46
-103.47
-131.28
-163.89
-197.57
-225.25
-238.28
-231.99
-207.80
-173.70
-139.82
-113.62
-97.44
-89.19
-85.18
-82.89
-82.71
-85.47
-91.11
-97.70
-102.09
-102.02
-95.49
-82.18
-63.27
-40.92
-16.00
12.34
46.12
85.34
126.99
164.72
189.98
195.23
177.33
140.02
92.80
47.19
12.21
-8.44
-16.40
-16.49
-13.47
-10.22
-7.37
-4.52
-1.70
0.37
0.81
-0.56
-3.10
-5.45
-6.28
-5.05
-2.24
0.86
2.76
2.52
0.13
-3.55
-7.07
-9.08
-8.84
-6.38
-2.45
1.95
6.02
9.43
12.30
15.14
18.43
22.37
26.91
31.60
35.89
39.17
40.92
40.42
37.22
31.07
22.06
10.86
-1.60
-14.19
-25.95
-36.35
-45.45
-53.58
-61.14
-68.17
-74.17
-78.29
-79.64
-77.71
-72.82
-66.06
-58.84
-52.73
-49.08
-48.60
-51.00
-54.84
-57.79
-57.01
-50.05
-35.53
-14.32
10.10
32.51
47.29
50.34
40.53
20.47
-4.40
-27.34
-42.12
-45.93
-39.61
-26.31
-9.92
5.35
16.67
20.81
15.23
-1.06
-25.34
-50.43
-66.58
-64.89
-41.59
-0.45
47.48
87.55
105.64
93.42
51.23
-12.47
-84.17
-149.70
-198.01
-223.91
-222.66
-196.17
-151.64
-98.57
-45.69
1.52
41.18
74.29
102.97
129.09
152.87
173.98
192.78
210.51
229.04
250.11
274.99
304.51
338.97
377.12
416.00
450.51
473.99
480.12
465.33
430.47
380.73
323.68
266.31
213.37
166.97
127.48
94.66
68.31
47.72
30.85
14.03
-7.41
-37.36
-77.24
-125.37
-177.75
-229.30
-275.95
-315.89
-350.05
-381.40
-413.90
-451.52
-497.24
-551.67
-611.80
-670.64
-718.37
-745.28
-745.04
-717.10
-666.87
-603.25
-534.98
-467.32
-401.27
-334.88
-266.33
-195.54
-124.62
-56.83
5.02
59.77
108.37
153.17
197.17
242.43
290.96
344.55
403.31
464.20
520.81
565.25
591.13
596.48
582.82
557.18
529.43
507.72
495.03
488.71
482.98
472.07
452.46
420.10
374.76
319.05
255.80
186.17
109.60
25.39
-66.00
-162.29
-263.53
-365.01
-457.09
-528.26
-570.40
-582.52
-571.86
-552.43
-513.06
-459.39
-407.11
-368.12
-340.01
-311.15
-271.70
-219.12
-157.67
-94.57
-40.83
-2.36
21.09
33.22
37.53
35.46
27.55
14.66
-0.84
-18.33
-34.83
-45.91
-49.38
-45.48
-37.80
-30.37
-25.79
-23.53
-23.36
-23.41
-21.30
-15.88
-8.31
-1.74
0.65
-2.99
-11.80
-24.40
-38.06
-49.56
-56.43
-57.66
-53.66
-44.86
-35.44
-26.47
-17.96
-8.79
2.69
17.69
36.37
57.63
79.70
100.72
120.10
137.96
155.22
173.35
194.15
219.42
250.37
286.96
327.00
366.38
399.22
419.57
423.57
410.99
385.40
352.80
319.23
288.65
262.28
238.67
215.29
190.12
162.65
133.78
105.02
77.60
51.94
28.03
5.73
-14.58
-32.13
-46.42
-58.33
-70.48
-86.26
-107.82
-134.04
-160.27
-179.98
-187.38
-179.96
-158.98
-128.01
-90.68
-49.59
-6.80
34.66
70.42
96.29
110.85
117.00
120.95
128.56
141.34
154.91
161.27
153.39
129.21
92.99
53.18
18.54
-5.21
-16.68
-17.86
-12.45
-4.42
2.41
4.30
-2.41
-20.29
-49.59
-87.14
-126.58
-160.15
-181.55
-188.23
-182.34
-169.58
-156.73
-149.23
-149.93
-159.49
-177.74
-204.95
-241.82
-288.01
-340.47
-392.46
-434.78
-458.50
-457.97
-432.69
-387.10
-328.93
-266.31
-205.63
-150.57
-102.15
-59.60
-21.09
15.74
53.55
94.97
141.97
195.04
252.46
310.05
361.85
401.72
425.27
431.55
423.54
406.78
386.57
365.65
343.15
315.85
281.00
238.66
192.22
146.92
107.21
74.66
47.91
24.20
1.54
-19.87
-37.83
-49.65
-54.08
-52.10
-47.39
-44.45
-46.84
-56.22
-72.08
-92.89
-117.18
-143.86
-171.90
-199.45
-223.72
-242.14
-253.84
-260.56
-265.71
-271.76
-277.62
-278.20
-266.89
-239.82
-199.43
-154.98
-119.03
-102.23
-108.63
-134.04
-168.24
-199.12
-216.67
-215.46
-194.76
-156.74
-105.45
-45.80
16.25
73.00
115.45
135.07
126.89
92.59
41.44
-11.65
-50.95
-65.42
-52.39
-17.69
27.71
72.65
109.78
136.63
153.92
162.19
159.72
142.40
106.46
51.68
-16.61
-87.91
-149.68
-191.64
-209.15
-204.08
-182.95
-153.33
-120.68
-87.00
-51.49
-12.49
30.71
76.97
123.29
165.46
199.02
220.19
226.90
219.59
201.50
178.37
156.98
143.72
143.02
156.56
183.46
221.00
265.93
315.12
365.64
414.05
455.69
484.93
496.54
487.68
459.62
417.95
370.65
325.13
285.45
251.49
220.34
188.91
156.27
123.94
94.93
71.23
52.34
35.13
15.18
-11.72
-48.00
-93.29
-144.06
-193.92
-234.94
-259.86
-264.72
-250.93
-225.55
-199.09
-181.67
-179.11
-190.91
-210.98
-230.56
-241.85
-240.55
-226.31
-201.56
-169.81
-134.33
-97.72
-61.87
-27.98
3.69
33.52
62.45
91.02
118.23
141.36
156.48
159.82
149.40
125.57
90.64
47.92
0.63
-48.56
-97.24
-143.18
-184.68
-221.31
-254.16
-285.18
-315.82
-345.93
-374.06
-398.88
-420.75
-441.85
-464.60
-489.71
-514.79
-534.83
-544.47
-540.40
-522.58
-493.68
-457.52
-417.54
-376.28
-335.75
-297.82
-263.99
-234.91
-209.79
-186.25
-160.92
-130.93
-95.79
-58.59
-25.62
-4.05
1.68
-7.31
-24.01
-38.49
-42.24
-32.11
-11.23
13.36
34.64
48.99
56.94
61.32
65.00
69.20
73.67
78.02
82.98
90.43
102.41
119.91
141.78
164.66
183.96
195.36
196.14
186.09
167.31
143.18
117.24
92.05
68.63
46.93
26.42
7.15
-9.79
-22.41
-28.54
-26.75
-17.14
-1.45
17.61
37.23
55.80
73.28
91.07
111.43
136.62
168.14
206.34
250.16
297.08
343.10
383.10
411.99
426.18
425.07
411.48
390.69
368.58
349.33
334.23
322.10
310.74
298.66
285.88
273.50
262.53
252.99
243.53
232.19
217.44
199.15
178.94
159.52
144.18
135.86
136.08
144.15
157.33
171.82
184.42
193.89
200.57
204.77
204.40
194.49
168.95
124.14
61.97
-9.91
-80.79
-141.36
-186.78
-217.03
-234.60
-241.75
-239.49
-228.49
-210.95
-191.04
-173.52
-161.57
-155.31
-152.39
-149.93
-146.59
-143.09
-141.13
-141.61
-143.84
-145.90
-145.98
-143.70
-140.32
-138.08
-138.74
-142.34
-146.65
-147.61
-140.94
-124.01
-97.54
-65.75
-35.00
-10.83
4.73
14.38
24.29
40.80
66.76
99.60
132.13
155.69
163.87
154.64
130.21
94.97
53.21
7.81
-39.53
-87.45
-134.23
-177.95
-217.14
-251.25
-280.26
-303.92
-320.98
-329.22
-326.39
-311.12
-283.75
-246.17
-201.17
-151.65
-100.12
-48.44
2.19
51.18
98.52
144.50
189.44
233.29
275.27
313.75
346.38
370.58
384.20
386.38
378.12
362.18
342.36
322.29
304.20
288.36
273.45
257.57
239.51
219.61
199.62
181.89
167.86
157.34
148.46
138.68
126.22
111.14
95.22
80.70
68.95
59.56
50.85
41.03
29.10
14.89
-1.86
-22.10
-47.38
-78.34
-113.56
-148.94
-178.80
-198.13
-204.84
-200.71
-190.77
-181.00
-175.96
-177.23
-183.32
-190.91
-196.70
-198.78
-197.34
-193.91
-190.27
-187.21
-184.31
-180.24
-173.89
-165.29
-155.38
-145.35
-135.59
-125.33
-112.86
-96.51
-75.57
-50.72
-23.92
2.52
26.80
48.17
66.93
83.80
99.18
112.71
123.17
129.09
129.43
124.18
114.51
102.42
89.98
78.73
69.24
61.35
54.50
48.18
41.96
35.39
27.75
18.13
5.98
-8.26
-22.72
-34.56
-40.99
-40.53
-33.81
-23.27
-12.18
-3.35
1.69
2.77
0.61
-3.84
-9.88
-17.02
-24.97
-33.39
-41.98
-50.51
-58.73
-66.41
-73.17
-78.69
-82.77
-85.43
-86.70
-86.46
-84.40
-80.27
-74.37
-67.81
-62.12
-58.36
-56.31
-54.23
-49.62
-40.52
-26.52
-8.85
10.47
29.77
48.30
65.87
81.87
94.69
101.87
101.49
93.47
80.26
66.12
55.44
50.83
52.04
56.18
58.89
56.15
45.88
28.91
8.67
-9.94
-22.21
-25.17
-18.26
-3.29
16.47
37.35
55.96
69.52
76.06
74.59
65.51
50.97
34.33
19.12
7.53
-0.88
-8.89
-20.22
-37.32
-59.84
-84.51
-106.66
-122.36
-130.01
-130.66
-126.81
-120.96
-114.45
-107.56
-100.09
-92.29
-85.01
-79.33
-75.91
-74.37
-73.55
-72.16
-69.50
-65.90
-62.49
-60.34
-59.57
-59.01
-56.71
-50.98
-41.65
-30.32
-19.67
-11.87
-7.47
-5.17
-3.02
0.22
4.07
6.66
6.30
2.85
-1.85
-5.07
-4.94
-1.52
3.43
7.79
10.49
11.99
13.65
16.46
20.18
23.71
26.05
27.56
30.22
36.57
47.95
62.99
77.40
85.67
83.53
70.06
48.10
23.13
0.90
-14.75
-22.92
-25.22
-24.46
-23.19
-23.08
-24.83
-28.48
-33.63
-39.49
-44.93
-48.86
-50.60
-50.14
-48.32
-46.65
-47.05
-51.70
-62.54
-80.88
-107.05
-140.34
-179.26
-221.77
-265.33
-306.70
-341.83
-366.32
-376.51
-370.91
-350.98
-320.87
-285.77
-250.01
-215.47
-181.46
-145.66
-105.77
-60.74
-11.19
40.89
93.22
143.81
191.57
236.26
278.25
318.18
356.92
395.67
435.72
477.69
520.41
560.34
592.08
610.30
612.02
598.00
572.48
541.19
508.76
477.07
445.18
410.74
371.63
327.02
277.20
222.62
163.32
98.80
28.45
-47.92
-129.61
-214.41
-297.87
-373.29
-432.70
-468.88
-477.97
-460.97
-423.58
-373.88
-319.27
-264.14
-209.62
-155.20
-101.09
-49.58
-4.71
29.41
50.48
58.84
57.08
48.84
37.72
26.74
18.49
15.47
19.99
33.62
56.34
85.93
118.01
146.78
166.63
173.80
167.89
152.20
132.52
114.74
102.12
93.85
85.48
71.69
49.40
19.85
-11.86
-39.55
-59.25
-71.42
-80.27
-91.49
-109.58
-136.29
-170.67
-209.80
-249.77
-285.99
-313.63
-328.30
-327.35
-311.05
-282.89
-248.65
-214.51
-185.25
-163.28
-148.66
-139.83
-134.28
-128.88
-120.05
-104.22
-78.73
-43.03
0.53
46.94
89.81
123.54
145.19
155.46
158.05
157.95
159.38
164.22
171.73
179.54
185.13
187.24
186.38
184.44
183.58
185.27
189.63
195.43
200.72
203.59
202.92
198.78
192.49
186.36
183.24
185.70
195.23
211.37
231.51
251.52
267.08
275.13
274.69
266.85
253.78
237.73
220.18
201.66
182.00
160.57
136.53
109.00
77.24
40.92
0.34
-43.51
-89.45
-136.24
-182.88
-228.45
-271.86
-311.88
-347.76
-380.03
-410.46
-441.06
-472.11
-500.70
-520.65
-524.56
-506.85
-466.51
-407.84
-338.93
-268.72
-204.17
-148.89
-103.60
-67.57
-39.95
-20.23
-7.68
-0.65
3.72
8.71
16.56
27.00
36.68
39.88
31.07
7.93
-26.38
-63.32
-91.64
-101.51
-88.11
-52.99
-2.64
54.69
111.91
164.58
210.45
248.08
275.77
291.57
294.26
284.30
264.30
238.23
210.25
183.49
159.62
138.96
121.26
106.45
95.03
88.10
86.66
90.95
99.83
111.01
121.66
129.52
133.69
134.94
135.23
136.65
140.26
145.35
149.57
149.63
142.58
126.83
102.57
71.54
36.23
-1.03
-38.51
-75.13
-110.13
-142.83
-172.43
-198.28
-220.14
-238.34
-253.86
-268.07
-282.43
-298.15
-315.72
-334.61
-353.28
-369.51
-381.48
-388.78
-392.96
-396.67
-402.03
-408.52
-412.11
-406.24
-384.34
-342.84
-282.85
-209.69
-130.55
-51.77
23.29
94.23
162.50
230.03
298.18
367.41
437.09
504.95
566.82
617.02
649.82
661.47
651.95
625.16
587.51
545.46
503.41
462.94
423.58
384.18
344.10
303.31
261.98
219.69
175.45
128.18
77.51
24.15
-30.42
-84.37
-136.03
-184.02
-226.99
-263.55
-292.33
-312.40
-323.61
-326.66
-322.75
-313.15
-299.02
-281.43
-261.64
-241.27
-222.06
-205.30
-191.39
-179.59
-168.46
-156.45
-142.34
-125.54
-106.03
-84.35
-61.43
-38.46
-16.63
3.20
20.58
35.59
48.42
59.00
66.74
70.60
69.51
62.97
51.28
35.44
16.61
-4.44
-27.50
-52.70
-79.87
-108.09
-135.59
-160.26
-180.20
-194.40
-202.75
-205.78
-204.11
-198.23
-188.54
-175.77
-161.22
-146.68
-133.86
-123.65
-115.77
-108.84
-101.11
-91.13
-78.33
-62.89
-45.53
-27.12
-8.57
9.15
24.99
38.03
47.89
55.00
60.48
65.59
71.01
76.43
80.89
83.40
83.75
82.69
81.65
81.99
84.40
88.55
93.29
96.96
97.77
94.07
84.54
68.51
46.09
18.36
-12.72
-44.60
-74.51
-99.96
-118.96
-130.32
-133.77
-130.06
-120.76
-107.96
-93.78
-79.81
-66.95
-55.31
-44.55
-34.36
-24.82
-16.52
-10.44
-7.56
-8.52
-13.38
-21.63
-32.29
-43.92
-54.70
-62.52
-65.29
-61.43
-50.38
-33.04
-11.70
10.67
31.27
48.34
61.46
71.23
78.61
84.23
88.09
89.82
89.21
86.64
83.19
80.23
78.85
79.37
81.11
82.91
83.66
82.87
80.85
78.35
76.11
74.39
72.57
69.70
65.01
58.36
50.54
42.81
36.34
31.49
27.40
22.60
15.71
6.27
-4.92
-16.15
-25.72
-32.72
-37.63
-41.75
-46.47
-52.43
-59.39
-66.49
-73.06
-79.06
-85.11
-91.84
-99.06
-105.45
-108.78
-106.75
-97.97
-82.50
-61.98
-38.99
-16.27
3.98
20.52
32.94
41.55
46.98
49.81
50.55
49.58
47.28
44.15
40.81
37.89
35.93
35.02
34.96
35.28
35.54
35.48
35.15
34.78
34.64
34.88
35.33
35.68
35.45
34.30
32.13
29.17
25.92
22.85
20.24
18.02
15.79
13.05
9.41
4.82
-0.43
-5.88
-11.07
-15.74
-19.88
-23.56
-26.94
-30.26
-33.79
-38.02
-43.46
-50.37
-58.33
-66.07
-71.52
-72.31
-66.65
-54.00
-35.31
-12.76
10.94
33.35
52.78
68.46
80.40
88.95
94.58
97.67
98.58
97.70
95.52
92.59
89.49
86.68
84.38
82.59
81.11
79.76
78.49
77.39
76.59
76.11
75.77
75.24
74.18
72.36
69.72
66.38
62.59
58.53
54.26
49.73
44.84
39.54
33.88
28.08
22.43
17.12
12.12
7.08
1.46
-5.07
-12.28
-19.15
-23.97
-24.90
-20.63
-10.87
3.51
20.82
39.17
57.05
73.66
88.83
102.77
115.65
127.42
137.77
146.26
152.41
155.91
156.70
155.05
151.61
147.37
143.50
141.04
140.55
141.82
143.76
144.79
143.29
138.27
129.56
117.79
103.91
88.63
72.22
54.61
35.80
16.15
-3.57
-22.55
-40.32
-57.08
-73.51
-90.37
-107.95
-125.83
-143.06
-158.57
-171.57
-181.74
-189.20
-194.26
-197.17
-198.09
-197.12
-194.44
-190.36
-185.26
-179.63
-173.88
-168.32
-163.12
-158.33
-153.88
-149.66
-145.54
-141.50
-137.60
-133.90
-130.34
-126.61
-122.18
-116.48
-109.12
-100.21
-90.42
-80.84
-72.70
-66.85
-63.55
-62.45
-62.76
-63.71
-64.83
-66.18
-68.15
-71.34
-76.28
-83.18
-91.72
-100.80
-108.58
-112.55
-110.26
-100.00
-81.59
-56.56
-27.78
1.39
28.08
50.51
68.00
80.66
88.94
93.28
94.22
92.53
89.17
85.28
81.86
79.49
78.28
78.10
78.72
80.07
82.25
85.32
89.21
93.62
98.18
102.61
106.86
111.09
115.45
120.00
124.63
129.18
133.63
138.22
143.17
148.46
153.59
157.65
159.52
158.30
153.60
145.44
134.08
119.84
103.14
84.68
65.78
48.28
34.05
24.32
19.13
17.17
16.31
14.35
9.86
2.46
-7.22
-17.99
-28.72
-38.49
-46.70
-53.03
-57.19
-58.95
-58.32
-55.59
-51.58
-47.39
-44.13
-42.50
-42.67
-44.32
-47.05
-50.84
-56.14
-63.81
-74.54
-88.54
-105.24
-123.55
-142.26
-160.28
-176.90
-191.42
-203.03
-210.72
-213.63
-211.49
-205.07
-196.08
-186.77
-179.17
-174.43
-172.61
-172.83
-173.76
-174.13
-172.95
-169.61
-163.56
-154.24
-141.10
-123.81
-102.63
-78.42
-52.46
-26.14
-0.53
23.84
46.65
67.65
86.23
101.47
112.50
118.91
120.99
119.70
116.22
111.51
106.02
99.89
93.16
86.14
79.46
73.97
70.33
68.78
69.12
70.81
73.23
75.80
78.13
80.00
81.34
82.22
82.88
83.61
84.76
86.61
89.20
92.32
95.46
97.92
98.97
98.10
95.13
90.31
84.01
76.43
67.28
55.83
41.41
23.92
4.30
-15.63
-33.80
-48.56
-59.23
-66.16
-70.32
-72.70
-74.18
-75.33
-76.81
-79.30
-83.39
-89.19
-96.05
-102.68
-107.55
-109.61
-108.71
-105.70
-101.89
-98.28
-95.11
-91.74
-87.31
-81.42
-74.60
-68.19
-63.60
-61.70
-62.25
-64.29
-66.53
-68.00
-68.26
-67.12
-64.34
-59.34
-51.42
-40.04
-25.21
-7.50
12.14
32.64
53.15
73.21
92.77
112.34
132.74
154.77
178.81
204.41
230.24
254.50
275.26
290.74
299.24
298.72
286.83
261.54
222.10
170.11
109.69
46.62
-13.36
-66.14
-110.02
-145.55
-174.35
-197.93
-216.85
-230.66
-238.31
-238.73
-231.36
-216.43
-194.97
-168.67
-139.60
-109.87
-81.30
-55.42
-33.23
-15.41
-2.27
6.28
10.79
12.14
11.38
9.21
5.83
1.09
-5.20
-12.57
-19.57
-24.00
-23.64
-17.38
-5.64
9.61
25.75
40.43
52.34
61.26
67.48
71.13
71.99
69.70
64.40
57.01
49.17
42.47
37.91
35.12
33.04
30.48
26.91
22.84
19.41
17.69
18.02
19.64
21.17
21.30
19.48
15.99
11.71
7.49
3.73
0.12
-3.82
-8.51
-13.81
-19.13
-23.93
-28.07
-31.95
-36.42
-42.14
-49.07
-56.20
-61.69
-63.47
-60.01
-50.86
-36.90
-20.04
-2.59
13.41
26.59
36.51
43.33
47.54
49.60
49.73
48.02
44.62
40.00
34.86
30.11
26.50
24.36
23.59
23.61
23.77
23.56
22.88
21.93
21.06
20.45
19.85
18.72
16.32
12.08
5.94
-1.63
-9.74
-17.45
-24.10
-29.58
-34.24
-38.78
-43.82
-49.83
-56.92
-64.84
-72.83
-79.61
-83.55
-82.93
-76.59
-64.42
-47.59
-28.37
-9.38
7.20
20.16
29.32
35.16
38.48
39.91
39.97
39.08
37.67
36.15
34.81
33.71
32.74
31.82
30.98
30.50
30.67
31.72
33.59
35.97
38.32
40.04
40.60
39.70
37.30
33.63
29.11
24.16
19.08
13.95
8.64
2.90
-3.40
-10.16
-17.05
-23.65
-29.55
-34.50
-38.57
-42.18
-45.97
-50.59
-56.35
-62.93
-69.17
-73.21
-72.99
-66.96
-54.67
-37.02
-16.05
5.61
25.55
42.07
54.46
62.80
67.60
69.51
69.14
67.05
63.80
60.03
56.29
53.04
50.41
48.30
46.53
44.96
43.63
42.77
42.58
43.02
43.75
44.16
43.60
41.59
38.06
33.36
28.09
22.88
18.01
13.42
8.69
3.40
-2.71
-9.48
-16.36
-22.67
-27.87
-31.85
-34.97
-37.97
-41.66
-46.68
-53.28
-61.14
-69.31
-76.27
-80.17
-79.28
-72.48
-59.67
-41.98
-21.57
-1.08
17.09
31.30
40.99
46.56
48.97
49.27
48.30
46.52
44.05
40.96
37.44
33.89
30.85
28.82
28.02
28.33
29.40
30.64
31.55
31.85
31.46
30.47
29.01
27.14
24.79
21.79
17.96
13.20
7.62
1.49
-4.76
-10.67
-15.93
-20.42
-24.18
-27.43
-30.41
-33.48
-37.06
-41.46
-46.69
-52.15
-56.52
-57.94
-54.71
-45.86
-31.78
-14.13
4.63
22.10
36.57
47.39
54.77
59.30
61.68
62.25
61.23
58.82
55.37
51.49
47.92
45.33
43.98
43.75
44.17
44.62
44.78
44.65
44.50
44.64
45.10
45.45
45.08
43.43
40.29
36.04
31.29
26.72
22.71
19.33
16.36
13.62
10.99
8.56
6.44
4.65
3.06
1.46
-0.37
-2.58
-5.21
-8.19
-11.34
-14.40
-17.03
-18.95
-19.96
-20.09
-19.56
-18.59
-17.36
-15.97
-14.43
-12.81
-11.19
-9.70
-8.47
-7.42
-6.43
-5.31
-3.91
-2.13
0.09
2.80
5.94
9.35
12.76
15.82
18.25
19.89
20.77
21.11
21.05
20.72
20.11
19.16
17.75
15.84
13.49
10.88
8.30
6.08
4.49
3.66
3.44
3.48
3.43
3.11
2.51
1.87
1.54
1.72
2.38
3.27
3.94
4.13
3.63
2.52
0.99
-0.67
-2.25
-3.66
-4.89
-5.92
-6.64
-6.88
-6.48
-5.40
-3.83
-2.14
-0.73
0.17
0.64
0.94
1.29
1.68
1.77
1.07
-0.80
-3.88
-7.78
-11.89
-15.63
-18.70
-21.24
-23.68
-26.61
-30.44
-35.26
-40.76
-46.33
-51.42
-55.73
-59.44
-63.10
-67.41
-72.71
-78.83
-85.06
-90.51
-94.50
-96.90
-98.19
-99.24
-100.95
-104.00
-108.67
-114.65
-121.03
-126.04
-127.25
-122.00
-108.38
-85.99
-56.57
-23.63
8.61
36.36
57.39
71.19
78.62
81.06
79.94
76.33
71.11
65.12
59.15
53.78
49.23
45.30
41.54
37.52
33.05
28.30
23.68
19.56
16.06
12.94
9.65
5.53
0.16
-6.49
-14.01
-21.66
-28.77
-34.87
-39.92
-44.25
-48.40
-52.79
-57.59
-62.63
-67.46
-71.64
-74.92
-77.40
-79.63
-82.45
-86.59
-92.35
-99.12
-105.38
-109.02
-107.98
-100.90
-87.65
-69.32
-47.86
-25.41
-3.89
15.21
30.96
42.86
50.85
55.28
56.99
57.07
56.57
56.10
55.82
55.47
54.80
53.73
52.59
51.86
51.99
53.01
54.61
56.34
57.75
58.75
59.37
59.65
59.37
57.86
54.38
48.40
40.00
29.94
19.35
9.26
0.21
-8.15
-16.56
-25.64
-35.32
-44.78
-52.77
-58.42
-61.72
-63.94
-66.95
-72.36
-80.49
-89.95
-98.05
-101.78
-98.88
-88.76
-72.35
-51.58
-28.57
-5.06
17.67
38.56
56.59
70.60
79.70
83.69
83.27
79.81
74.91
69.87
65.39
61.54
58.13
54.98
52.17
50.00
48.74
48.52
49.18
50.33
51.44
52.03
51.77
50.51
48.26
45.06
40.89
35.63
29.12
21.26
12.14
2.15
-8.16
-18.14
-27.27
-35.38
-42.62
-49.59
-57.04
-65.60
-75.42
-85.83
-95.14
-100.95
-100.78
-92.86
-76.87
-54.19
-27.52
-0.14
25.05
46.09
62.12
73.07
79.33
81.31
79.47
74.41
67.04
58.61
50.44
43.54
38.39
34.86
32.41
30.40
28.46
26.51
24.73
23.32
22.26
21.26
19.79
17.31
13.43
8.07
1.39
-6.24
-14.39
-22.68
-30.88
-38.86
-46.55
-53.99
-61.35
-69.05
-77.62
-87.49
-98.48
-109.48
-118.31
-122.14
-118.39
-105.63
-84.27
-56.52
-25.78
4.40
31.11
52.67
68.48
78.71
83.99
85.04
82.73
78.06
72.21
66.27
61.09
57.10
54.28
52.37
51.01
49.98
49.29
49.01
49.13
49.46
49.61
49.14
47.73
45.25
41.71
37.14
31.49
24.61
16.50
7.33
-2.49
-12.33
-21.58
-29.85
-37.09
-43.66
-50.15
-57.24
-65.54
-75.34
-86.23
-96.96
-105.45
-109.05
-105.41
-93.15
-72.51
-45.46
-15.16
14.85
41.54
62.89
78.09
87.33
91.43
91.56
88.99
84.86
80.07
75.10
70.05
64.89
59.53
54.17
49.26
45.36
42.93
42.11
42.55
43.60
44.52
44.73
44.02
42.37
39.88
36.56
32.24
26.67
19.68
11.46
2.48
-6.56
-14.99
-22.41
-28.80
-34.44
-39.82
-45.47
-51.87
-59.33
-67.80
-76.60
-84.28
-88.71
-87.56
-79.00
-62.49
-39.16
-11.70
16.44
41.88
62.15
76.11
83.83
86.29
84.86
80.87
75.37
69.08
62.42
55.72
49.34
43.72
39.30
36.34
34.79
34.26
34.24
34.19
33.82
33.09
32.11
30.95
29.49
27.46
24.55
20.57
15.50
9.53
2.98
-3.85
-10.73
-17.49
-24.03
-30.28
-36.19
-41.80
-47.38
-53.42
-60.56
-69.15
-78.81
-88.12
-94.82
-96.22
-90.28
-76.33
-55.59
-30.75
-5.25
17.83
36.48
49.93
58.35
62.34
62.47
59.21
53.06
44.81
35.61
26.72
19.22
13.74
10.29
8.47
7.80
7.86
8.49
9.70
11.43
13.44
15.24
16.09
15.30
12.38
7.27
0.29
-7.82
-16.24
-24.21
-31.24
-37.22
-42.48
-47.61
-53.51
-60.96
-70.30
-80.97
-91.30
-98.64
-100.21
-93.88
-79.14
-57.38
-31.50
-5.03
18.90
38.27
52.37
61.51
66.52
68.21
67.14
63.74
58.42
51.88
44.96
38.73
34.01
31.12
29.81
29.33
28.81
27.74
26.07
24.21
22.72
21.84
21.26
20.18
17.62
12.92
6.06
-2.41
-11.46
-20.15
-27.85
-34.46
-40.28
-45.85
-51.70
-58.30
-65.96
-74.79
-84.49
-94.14
-101.99
-105.65
-102.74
-91.71
-72.55
-47.12
-18.66
9.11
33.03
51.25
63.33
69.97
72.43
71.96
69.60
66.09
61.93
57.48
53.07
48.94
45.35
42.45
40.34
38.97
38.20
37.80
37.61
37.44
37.11
36.37
34.85
32.13
27.94
22.32
15.64
8.50
1.50
-5.09
-11.37
-17.74
-24.65
-32.22
-40.13
-47.78
-54.45
-59.80
-64.07
-68.04
-72.85
-79.39
-87.74
-96.84
-104.50
-107.90
-104.49
-92.90
-73.51
-48.46
-21.00
5.48
28.28
45.93
58.20
65.63
69.07
69.37
67.20
63.26
58.30
53.09
48.32
44.41
41.45
39.24
37.61
36.50
36.04
36.43
37.67
39.44
41.08
41.79
40.94
38.29
34.08
28.85
23.23
17.66
12.25
6.85
1.18
-4.92
-11.49
-18.31
-25.09
-31.56
-37.54
-42.91
-47.67
-51.89
-56.03
-60.78
-66.85
-74.51
-83.03
-90.44
-93.98
-91.03
-80.25
-62.21
-39.29
-14.77
8.33
28.03
43.54
54.96
62.50
66.34
66.62
63.78
58.81
53.06
47.85
43.96
41.24
38.99
36.44
33.31
30.12
27.91
27.55
29.28
32.08
34.38
34.61
32.09
27.27
21.45
16.00
11.63
7.89
3.61
-2.37
-10.47
-20.04
-29.65
-37.83
-43.67
-47.30
-49.62
-51.79
-54.60
-58.36
-62.98
-68.28
-74.04
-79.90
-84.91
-87.38
-85.18
-76.50
-60.82
-39.35
-14.77
9.39
29.99
45.10
54.29
58.37
58.70
56.60
53.07
48.67
43.70
38.43
33.20
28.46
24.72
22.36
21.59
22.29
24.07
26.32
28.33
29.53
29.53
28.31
26.03
22.96
19.29
14.95
9.72
3.39
-4.08
-12.41
-21.01
-29.24
-36.59
-42.84
-48.11
-52.81
-57.43
-62.50
-68.47
-75.57
-83.47
-91.08
-96.51
-97.38
-91.64
-78.31
-58.09
-33.25
-6.99
17.51
37.93
53.14
63.10
68.40
69.91
68.50
64.98
60.20
54.95
49.91
45.47
41.74
38.64
35.99
33.72
31.80
30.40
29.62
29.50
29.87
30.33
30.33
29.26
26.62
22.27
16.47
9.86
3.24
-2.72
-7.78
-12.24
-16.73
-21.96
-28.34
-35.80
-43.79
-51.53
-58.27
-63.59
-67.61
-70.93
-74.55
-79.56
-86.67
-95.62
-104.97
-112.11
-113.94
-107.93
-93.05
-70.35
-42.61
-13.54
13.37
35.66
52.25
63.20
69.27
71.46
70.72
67.98
64.08
59.89
56.08
53.10
51.09
49.92
49.29
48.88
48.43
47.87
47.26
46.71
46.28
45.83
45.05
43.56
41.02
37.28
32.40
26.72
20.72
14.90
9.66
5.14
1.16
-2.72
-7.01
-12.17
-18.30
-25.17
-32.23
-38.84
-44.49
-48.96
-52.40
-55.30
-58.38
-62.48
-68.24
-75.66
-83.87
-91.01
-94.53
-91.96
-81.76
-63.96
-40.31
-13.79
12.31
35.20
53.14
65.59
72.85
75.74
75.22
72.26
67.77
62.55
57.35
52.71
49.01
46.42
44.90
44.36
44.58
45.38
46.47
47.56
48.36
48.60
48.13
46.89
44.93
42.27
38.85
34.54
29.25
23.02
16.14
9.13
2.56
-3.18
-8.14
-12.71
-17.54
-23.16
-29.73
-36.86
-43.79
-49.79
-54.44
-57.89
-60.71
-63.69
-67.52
-72.59
-78.97
-86.28
-93.67
-99.62
-102.14
-99.10
-88.92
-71.32
-47.61
-20.55
6.53
30.63
49.83
63.62
72.53
77.57
79.70
79.52
77.43
73.84
69.38
64.90
61.27
59.09
58.49
59.00
59.84
60.24
59.68
58.11
55.82
53.19
50.40
47.26
43.29
38.00
31.17
23.09
14.55
6.50
-0.31
-5.70
-10.10
-14.30
-19.10
-24.90
-31.46
-38.10
-43.95
-48.31
-50.93
-51.92
-51.81
-51.39
-51.48
-52.91
-56.08
-60.71
-65.53
-68.41
-66.84
-58.90
-44.01
-23.24
0.85
25.15
46.80
63.99
76.09
83.31
86.39
86.09
83.23
78.51
72.69
66.53
60.71
55.60
51.27
47.56
44.15
40.82
37.48
34.24
31.39
29.14
27.56
26.44
25.44
23.96
21.50
17.74
12.68
6.69
0.40
-5.46
-10.31
-13.89
-16.45
-18.60
-21.00
-24.09
-27.79
-31.58
-34.70
-36.60
-37.24
-37.22
-37.40
-38.56
-40.98
-44.30
-47.76
-50.58
-52.38
-53.28
-53.86
-54.87
-56.94
-60.61
-65.94
-72.48
-79.07
-83.86
-84.61
-79.35
-67.13
-48.43
-25.35
-0.91
21.71
40.05
52.77
59.78
61.90
60.36
56.48
51.29
45.50
39.58
33.83
28.49
23.90
20.35
18.05
17.01
17.02
17.73
18.78
19.78
20.45
20.53
19.75
17.95
15.16
11.50
7.26
2.71
-1.96
-6.68
-11.45
-16.29
-21.10
-25.68
-29.77
-33.24
-36.02
-38.26
-40.20
-42.14
-44.29
-46.71
-49.25
-51.67
-53.80
-55.56
-57.17
-58.96
-61.45
-65.12
-70.24
-76.62
-83.28
-88.46
-89.90
-85.48
-74.00
-55.80
-32.83
-8.09
15.23
34.61
48.74
57.43
61.31
61.32
58.48
53.74
48.05
42.25
37.04
32.85
29.77
27.66
26.26
25.43
25.13
25.43
26.30
27.59
28.96
29.98
30.18
29.21
26.97
23.44
18.81
13.30
7.32
1.28
-4.30
-9.06
-12.97
-16.54
-20.53
-25.69
-32.24
-39.65
-46.73
-52.28
-55.55
-56.90
-57.43
-58.59
-61.44
-66.28
-72.62
-79.41
-85.39
-89.28
-89.72
-85.35
-75.14
-58.75
-37.04
-12.18
12.79
34.50
50.39
59.32
61.81
59.69
55.23
50.35
46.01
42.03
37.71
32.55
26.76
21.29
17.40
15.93
16.87
19.32
22.01
23.90
24.68
24.66
24.33
23.89
23.13
21.37
18.01
12.92
6.48
-0.59
-7.59
-14.22
-20.54
-26.87
-33.41
-39.98
-46.08
-51.08
-54.64
-56.83
-58.24
-59.93
-63.00
-68.18
-75.28
-83.05
-89.17
-90.82
-85.52
-72.10
-51.18
-25.19
2.36
27.93
48.82
63.73
72.68
76.61
76.75
74.20
69.82
64.19
57.88
51.48
45.64
40.95
37.76
36.08
35.60
35.88
36.47
37.16
37.95
38.92
40.06
41.12
41.61
40.94
38.69
34.77
29.50
23.53
17.58
12.23
7.66
3.73
0.03
-3.85
-8.19
-13.05
-18.35
-23.85
-29.27
-34.33
-38.70
-42.12
-44.39
-45.66
-46.45
-47.70
-50.56
-55.93
-63.98
-73.55
-82.24
-86.84
-84.35
-73.11
-53.51
-27.91
-0.02
26.41
48.54
64.96
75.56
81.06
82.40
80.52
76.29
70.58
64.30
58.25
52.89
48.35
44.45
40.93
37.65
34.68
32.25
30.52
29.42
28.62
27.65
26.13
23.93
21.21
18.25
15.30
12.40
9.35
5.83
1.70
-2.95
-7.76
-12.16
-15.73
-18.37
-20.34
-22.21
-24.48
-27.46
-31.01
-34.65
-37.78
-40.01
-41.40
-42.50
-44.14
-47.15
-52.17
-59.29
-67.93
-76.72
-83.64
-86.39
-82.96
-72.33
-54.98
-32.85
-8.98
13.47
31.96
45.11
52.69
55.37
54.18
50.24
44.56
38.06
31.61
25.90
21.35
18.11
16.04
14.86
14.32
14.28
14.75
15.77
17.27
19.04
20.69
21.70
21.53
19.77
16.29
11.25
5.15
-1.28
-7.47
-13.02
-18.03
-22.87
-27.94
-33.40
-39.06
-44.33
-48.51
-51.14
-52.17
-52.07
-51.76
-52.28
-54.55
-58.89
-64.66
-70.12
-72.81
-70.20
-60.65
-44.12
-22.29
1.90
25.25
45.11
59.99
69.51
74.08
74.44
71.35
65.53
57.80
49.02
40.16
32.08
25.42
20.52
17.36
15.62
14.88
14.73
14.86
15.08
15.29
15.40
15.19
14.42
12.76
9.93
5.73
0.16
-6.62
-14.27
-22.28
-30.10
-37.17
-43.17
-48.02
-52.02
-55.75
-59.94
-65.24
-71.90
-79.40
-86.37
-90.70
-90.07
-82.71
-68.07
-47.12
-22.32
3.23
26.48
45.27
58.56
66.37
69.45
68.85
65.61
60.64
54.71
48.38
42.14
36.33
31.20
26.97
23.87
22.05
21.54
22.17
23.55
25.14
26.44
26.97
26.37
24.51
21.30
16.80
11.15
4.60
-2.52
-9.79
-16.95
-23.78
-30.23
-36.30
-41.95
-47.05
-51.48
-55.31
-58.99
-63.29
-69.00
-76.29
-84.20
-90.55
-92.38
-87.00
-73.13
-51.50
-24.74
3.46
29.50
50.78
66.13
75.66
80.12
80.52
77.89
73.19
67.45
61.63
56.54
52.67
50.13
48.64
47.76
47.16
46.63
46.20
46.00
46.11
46.47
46.79
46.64
45.47
42.82
38.32
31.81
23.49
13.96
4.06
-5.24
-13.20
-19.49
-24.36
-28.52
-32.73
-37.45
-42.62
-47.71
-52.00
-54.94
-56.48
-57.14
-57.83
-59.65
-63.53
-69.92
-78.51
-87.96
-96.01
-99.89
-97.05
-86.03
-67.03
-41.94
-13.87
13.70
37.82
56.54
69.10
75.77
77.43
75.39
70.91
65.20
59.18
53.54
48.74
44.99
42.40
40.86
40.24
40.33
41.02
42.27
44.02
46.09
48.05
49.26
49.06
46.97
42.84
36.94
29.85
22.25
14.78
7.82
1.48
-4.51
-10.62
-17.35
-24.91
-33.07
-41.20
-48.39
-53.94
-57.64
-60.01
-62.15
-65.43
-70.94
-78.98
-88.75
-98.14
-104.22
-104.02
-95.40
-77.88
-52.87
-23.28
7.24
35.28
58.38
75.20
85.46
89.73
89.10
85.04
79.08
72.64
66.75
61.96
58.35
55.78
54.08
53.01
52.22
51.34
50.00
48.07
45.79
43.67
42.18
41.52
41.18
40.29
37.82
33.06
26.03
17.51
8.69
0.79
-5.61
-10.60
-14.85
-19.20
-24.22
-29.95
-35.86
-41.25
-45.73
-49.30
-52.33
-55.16
-57.96
-60.72
-63.50
-66.60
-70.60
-75.60
-80.79
-84.12
-82.75
-74.20
-57.56
-34.12
-7.37
18.40
39.46
53.80
61.49
64.05
63.41
61.09
57.67
53.15
47.54
41.36
35.68
31.67
29.96
30.37
31.79
32.93
32.92
31.81
30.44
29.90
30.72
32.65
34.54
35.11
33.46
29.54
24.11
18.32
13.20
9.21
6.03
2.89
-1.13
-6.58
-13.37
-20.79
-27.82
-33.50
-37.44
-39.99
-42.06
-44.88
-49.47
-56.32
-65.18
-74.93
-83.67
-89.04
-88.75
-81.27
-66.43
-45.58
-21.29
3.32
25.35
42.82
54.81
61.37
63.26
61.50
57.18
51.33
44.80
38.28
32.29
27.12
22.90
19.66
17.28
15.66
14.73
14.43
14.70
15.37
16.11
16.45
15.98
14.42
11.78
8.36
4.53
0.54
-3.56
-8.00
-13.01
-18.68
-24.88
-31.32
-37.60
-43.39
-48.51
-52.91
-56.71
-60.17
-63.73
-67.92
-73.08
-78.93
-84.28
-87.05
-84.83
-75.76
-59.39
-36.99
-11.34
14.18
36.53
53.74
65.19
71.31
73.08
71.56
67.62
61.96
55.19
47.90
40.78
34.48
29.47
25.98
23.87
22.74
22.19
21.87
21.64
21.56
21.74
22.13
22.41
21.93
19.97
15.94
9.70
1.66
-7.32
-16.25
-24.36
-31.32
-37.32
-42.72
-48.01
-53.54
-59.58
-66.35
-73.80
-81.38
-87.71
-90.78
-88.32
-78.69
-61.61
-38.55
-12.34
13.55
36.07
53.33
64.69
70.62
72.12
70.32
66.19
60.51
53.94
47.12
40.73
35.38
31.51
29.19
28.09
27.58
26.93
25.63
23.57
21.07
18.61
16.46
14.40
11.69
7.37
0.62
-8.77
-20.23
-32.57
-44.40
-54.57
-62.61
-68.78
-73.81
-78.68
-84.20
-90.72
-97.99
-104.97
-109.91
-110.59
-104.90
-91.38
-69.92
-41.94
-10.20
21.82
50.84
74.48
91.63
102.40
107.84
109.37
108.44
106.25
103.51
100.56
97.39
93.87
89.94
85.63
81.18
76.83
72.77
68.89
64.89
60.34
54.89
48.45
41.15
33.30
25.06
16.44
7.20
-2.89
-13.91
-25.67
-37.82
-49.98
-61.86
-73.28
-84.08
-94.07
-102.95
-110.61
-117.30
-123.69
-130.47
-137.78
-144.57
-148.45
-146.26
-135.13
-113.75
-83.02
-46.01
-6.97
29.94
61.65
86.75
105.29
118.24
126.89
132.47
136.12
138.84
141.73
145.79
151.80
160.34
171.67
185.94
203.17
223.12
245.04
267.12
286.34
298.71
300.01
286.93
258.13
214.62
159.74
98.29
35.70
-22.93
-73.49
-113.39
-141.86
-160.00
-170.44
-176.76
-182.56
-190.56
-202.02
-216.53
-232.46
-247.70
-260.29
-269.05
-273.79
-275.26
-274.79
-274.02
-274.35
-276.66
-280.75
-285.12
-287.08
-283.33
-271.07
-249.03
-218.00
-180.82
-141.31
-103.18
-69.08
-40.29
-17.09
0.73
13.38
21.02
23.98
23.04
19.55
15.20
11.72
10.49
12.29
17.25
25.06
35.06
46.58
58.94
71.54
83.74
94.90
104.36
111.59
116.27
118.42
118.34
116.52
113.41
109.38
104.55
98.75
91.76
83.37
73.65
62.99
52.14
42.07
33.70
27.73
24.40
23.42
23.99
24.93
24.96
22.85
17.74
9.37
-1.79
-14.56
-27.19
-37.61
-43.65
-43.17
-34.38
-16.32
10.58
44.00
79.76
112.67
137.86
152.18
155.05
148.24
134.87
118.22
100.86
84.46
70.16
58.96
51.82
49.46
51.96
58.55
67.52
76.52
83.05
84.89
80.69
70.11
53.87
33.50
10.95
-11.58
-31.88
-47.82
-57.51
-59.74
-54.33
-42.42
-26.36
-9.13
6.53
18.60
26.19
29.31
28.34
23.61
15.20
3.09
-12.42
-30.19
-48.18
-63.52
-73.33
-75.61
-69.76
-56.96
-39.55
-20.27
-1.48
15.32
29.43
40.62
48.70
53.51
54.92
53.18
49.03
43.66
38.37
34.22
31.79
31.04
31.56
32.72
33.91
34.83
35.41
35.72
35.78
35.48
34.44
32.20
28.44
23.08
16.47
9.15
1.78
-5.18
-11.52
-17.41
-23.15
-29.13
-35.66
-42.81
-50.37
-57.81
-64.45
-69.65
-73.15
-75.12
-76.26
-77.67
-80.46
-85.53
-93.06
-102.27
-111.29
-117.37
-117.55
-109.49
-92.46
-67.56
-37.69
-6.63
21.98
45.49
62.55
73.11
77.89
78.01
74.69
69.17
62.61
56.06
50.37
46.06
43.29
41.92
41.60
42.03
42.99
44.38
46.08
47.83
49.18
49.58
48.56
45.91
41.78
36.61
30.87
24.91
18.82
12.56
6.08
-0.42
-6.61
-11.98
-16.18
-19.18
-21.33
-23.29
-25.77
-29.37
-34.29
-40.36
-47.16
-54.21
-61.19
-68.05
-75.12
-82.84
-91.46
-100.54
-108.69
-113.66
-112.84
-104.22
-87.11
-62.58
-33.19
-2.27
26.94
51.88
70.90
83.08
88.07
86.06
77.83
64.92
49.44
33.78
20.17
10.10
4.25
2.40
3.80
7.48
12.57
18.36
24.41
30.33
35.61
39.52
41.20
39.93
35.42
28.05
18.94
9.53
1.20
-5.28
-9.96
-13.56
-17.10
-21.43
-26.86
-33.13
-39.65
-45.74
-50.93
-55.02
-58.19
-60.86
-63.79
-67.87
-73.86
-81.86
-90.77
-98.15
-100.69
-95.44
-80.89
-57.83
-29.13
1.05
28.72
51.12
67.09
76.75
80.86
80.29
75.81
68.20
58.52
48.10
38.37
30.57
25.38
22.83
22.39
23.25
24.73
26.49
28.52
30.93
33.73
36.59
38.85
39.68
38.36
34.61
28.67
21.20
13.05
5.03
-2.27
-8.69
-14.42
-19.91
-25.66
-31.93
-38.67
-45.51
-51.80
-56.93
-60.61
-62.91
-64.34
-65.75
-68.17
-72.60
-79.51
-88.36
-97.35
-103.44
-103.19
-93.93
-74.94
-47.91
-16.56
14.54
41.42
61.67
74.69
81.18
82.46
79.80
74.31
66.89
58.50
50.18
42.92
37.43
33.99
32.50
32.48
33.45
35.01
36.91
39.02
41.17
43.01
44.10
43.98
42.32
39.06
34.41
28.66
22.06
14.86
7.25
-0.44
-7.78
-14.36
-19.85
-24.24
-27.89
-31.41
-35.31
-39.85
-44.84
-49.72
-53.89
-56.93
-58.82
-59.97
-61.15
-63.25
-67.14
-73.39
-81.89
-91.54
-99.98
-104.06
-100.60
-87.57
-65.06
-35.56
-3.16
27.60
53.05
71.21
81.78
85.66
84.31
79.30
72.07
63.93
55.99
49.07
43.64
39.76
37.30
36.00
35.69
36.22
37.51
39.42
41.69
43.98
45.94
47.22
47.55
46.74
44.69
41.37
36.77
30.99
24.12
16.27
7.59
-1.69
-11.20
-20.40
-28.69
-35.53
-40.66
-44.20
-46.59
-48.37
-49.93
-51.31
-52.17
-52.05
-50.62
-47.99
-44.85
-42.45
-42.20
-45.34
-52.25
-62.09
-72.70
-80.90
-83.46
-78.04
-64.13
-43.21
-18.34
6.89
29.38
47.15
59.28
65.73
66.97
63.81
57.52
49.77
42.35
36.81
33.77
33.01
33.68
34.82
35.89
36.78
37.56
38.14
38.04
36.63
33.54
28.90
23.35
17.70
12.45
7.53
2.22
-4.17
-11.89
-20.37
-28.49
-35.12
-39.77
-42.67
-44.83
-47.14
-49.95
-52.83
-54.89
-55.44
-54.62
-53.33
-53.14
-55.53
-61.38
-70.63
-82.17
-93.88
-102.84
-105.87
-100.23
-84.51
-59.28
-27.20
7.49
40.14
66.84
85.34
95.14
97.24
93.39
85.57
75.58
64.88
54.67
45.82
38.90
34.24
31.83
31.38
32.37
34.23
36.41
38.59
40.55
42.14
43.25
43.64
43.06
41.32
38.38
34.34
29.42
23.75
17.41
10.45
3.03
-4.60
-12.03
-18.93
-25.13
-30.73
-36.00
-41.20
-46.41
-51.48
-56.06
-59.82
-62.69
-64.99
-67.30
-70.46
-75.24
-82.17
-91.19
-101.22
-110.03
-114.49
-111.35
-98.35
-75.33
-44.48
-9.85
23.87
52.76
74.47
88.34
94.98
95.52
91.14
83.05
72.65
61.53
51.35
43.45
38.43
36.16
35.81
36.38
37.13
37.78
38.50
39.63
41.39
43.67
46.08
48.02
48.99
48.64
46.79
43.37
38.51
32.36
25.20
17.39
9.35
1.50
-5.80
-12.28
-17.75
-22.00
-24.90
-26.42
-26.67
-26.15
-25.73
-26.47
-29.31
-34.64
-42.05
-50.44
-58.43
-64.89
-69.50
-72.81
-76.05
-80.49
-86.82
-94.52
-101.59
-105.03
-101.60
-89.18
-67.70
-39.37
-8.19
21.38
45.80
63.27
73.77
78.57
79.28
77.36
73.93
69.75
65.38
61.20
57.26
53.30
49.00
44.20
39.12
34.42
31.00
29.53
30.34
33.08
36.90
40.65
43.29
44.06
42.79
39.67
35.18
29.90
24.20
18.32
12.34
6.26
0.15
-5.78
-11.25
-15.96
-19.74
-22.68
-25.14
-27.63
-30.68
-34.63
-39.49
-44.98
-50.58
-55.72
-59.99
-63.36
-66.30
-69.78
-74.91
-82.40
-91.79
-101.03
-106.70
-105.01
-93.17
-70.70
-39.83
-5.01
28.59
56.49
76.04
86.66
89.33
85.91
78.33
68.37
57.45
46.80
37.40
30.06
25.31
23.34
23.98
26.65
30.57
34.83
38.63
41.47
43.13
43.55
42.84
41.08
38.37
34.88
30.88
26.63
22.35
18.02
13.34
7.87
1.35
-6.19
-14.26
-22.11
-28.96
-34.29
-38.06
-40.66
-42.64
-44.52
-46.55
-48.74
-51.03
-53.45
-56.22
-59.87
-65.01
-72.21
-81.67
-92.82
-104.02
-112.58
-115.22
-108.99
-92.41
-66.28
-33.67
0.95
32.97
58.99
77.38
88.18
92.41
91.51
86.71
79.22
70.27
61.09
52.87
46.37
41.90
39.16
37.65
36.90
36.75
37.31
38.77
41.13
44.04
46.80
48.55
48.67
46.94
43.62
39.29
34.55
29.80
25.08
20.12
14.55
8.22
1.23
-5.97
-12.79
-18.77
-23.66
-27.65
-31.23
-34.99
-39.29
-44.20
-49.42
-54.46
-58.89
-62.50
-65.41
-68.02
-71.00
-75.21
-81.45
-89.99
-99.99
-109.16
-114.00
-110.74
-96.79
-72.03
-39.17
-3.07
30.82
58.15
76.70
86.52
89.13
86.55
80.57
72.56
63.69
55.12
48.03
43.42
41.72
42.62
45.23
48.35
51.04
52.83
53.83
54.42
54.93
55.28
55.01
53.38
49.87
44.39
37.48
30.09
23.12
17.07
11.78
6.58
0.67
-6.44
-14.56
-22.86
-30.15
-35.38
-38.14
-38.75
-38.22
-37.76
-38.38
-40.45
-43.71
-47.48
-50.98
-53.78
-55.84
-57.60
-59.81
-63.29
-68.73
-76.30
-85.20
-93.38
-97.79
-95.13
-83.06
-61.27
-31.91
0.95
32.51
58.73
77.28
87.71
91.06
88.97
83.07
74.69
64.95
54.80
45.18
36.92
30.62
26.66
25.03
25.45
27.47
30.49
33.90
37.19
40.01
42.12
43.37
43.58
42.54
40.07
36.10
30.89
24.86
18.55
12.30
6.25
0.25
-5.87
-12.13
-18.31
-24.03
-29.05
-33.37
-37.33
-41.32
-45.55
-49.81
-53.56
-56.25
-57.78
-58.66
-59.99
-63.05
-68.71
-77.01
-86.81
-95.82
-101.16
-99.93
-90.09
-71.13
-44.37
-12.79
19.66
48.99
72.03
87.10
94.07
94.07
89.02
81.01
71.85
62.96
54.97
48.15
42.50
38.07
35.06
33.77
34.37
36.74
40.18
43.81
46.84
48.89
50.14
50.96
51.51
51.52
50.11
46.43
40.25
32.22
23.77
16.43
11.01
7.22
3.73
-0.92
-7.50
-15.55
-23.58
-29.87
-33.41
-34.40
-34.32
-35.01
-37.79
-42.83
-49.12
-55.11
-59.52
-61.86
-62.68
-63.22
-64.89
-68.93
-75.98
-85.89
-97.43
-108.14
-114.62
-113.33
-101.75
-79.53
-48.87
-14.07
19.89
48.79
70.15
83.39
89.24
88.94
83.79
75.00
63.85
51.84
40.58
31.41
25.07
21.53
20.19
20.21
20.95
22.16
24.04
26.89
30.75
35.21
39.38
42.07
42.28
39.53
33.94
26.22
17.40
8.43
-0.00
-7.64
-14.64
-21.35
-28.13
-35.15
-42.18
-48.68
-53.98
-57.58
-59.45
-60.10
-60.50
-61.94
-65.64
-72.34
-81.78
-92.48
-101.60
-105.59
-101.23
-86.73
-62.64
-31.83
1.33
32.20
57.21
74.54
84.06
86.73
83.99
77.23
67.79
56.98
46.17
36.64
29.43
25.03
23.31
23.57
24.93
26.58
28.05
29.32
30.69
32.46
34.63
36.66
37.51
36.03
31.34
23.35
12.85
1.30
-9.75
-19.22
-26.91
-33.42
-39.77
-46.78
-54.65
-62.96
-70.93
-77.89
-83.60
-88.35
-92.77
-97.63
-103.63
-111.35
-121.08
-132.49
-144.20
-153.58
-157.17
-151.68
-135.24
-108.43
-74.35
-37.66
-3.21
25.42
46.51
60.18
67.63
70.49
70.26
68.29
65.88
64.18
64.10
66.06
69.82
74.47
78.69
81.10
80.73
77.28
71.23
63.68
55.90
48.91
43.08
38.13
33.38
28.11
21.92
14.85
7.24
-0.41
-7.62
-13.98
-19.23
-23.22
-26.16
-28.62
-31.62
-36.34
-43.84
-54.68
-68.86
-85.88
-105.05
-125.76
-147.54
-170.14
-193.35
-216.99
-240.85
-264.43
-286.62
-305.44
-318.14
-321.84
-314.53
-296.01
-268.20
-234.63
-199.26
-165.20
-134.06
-105.96
-80.12
-55.65
-31.81
-8.10
15.91
40.57
65.83
91.09
115.13
136.49
153.92
166.86
175.64
181.23
184.88
187.59
189.90
191.88
193.29
193.77
193.06
191.05
187.75
183.17
177.25
169.90
161.08
151.01
140.08
128.84
117.72
106.78
95.74
84.14
71.67
58.45
45.16
32.76
22.15
13.73
7.26
1.89
-3.48
-9.88
-17.93
-27.60
-38.06
-47.54
-53.64
-53.67
-45.52
-28.31
-3.03
27.57
59.55
88.84
112.24
128.07
136.20
137.73
134.42
128.19
120.78
113.63
107.75
103.82
102.06
102.26
103.92
106.38
108.99
111.34
113.32
115.00
116.46
117.61
118.00
117.01
114.03
108.79
101.52
92.85
83.54
74.19
65.06
56.16
47.41
38.99
31.35
25.19
21.21
19.72
20.69
23.61
27.79
32.57
37.60
42.88
48.86
56.17
65.50
77.35
91.72
108.01
124.82
140.03
151.18
156.19
154.28
146.63
136.25
127.13
122.70
124.55
131.87
141.91
151.20
156.82
157.00
150.99
138.56
119.61
94.22
63.03
27.59
-9.55
-45.33
-76.87
-102.26
-120.91
-133.38
-141.01
-145.20
-146.83
-145.99
-142.09
-134.28
-122.29
-106.91
-90.27
-75.34
-64.99
-61.04
-63.69
-71.45
-81.70
-91.52
-98.46
-101.03
-98.89
-92.60
-83.32
-72.42
-61.08
-50.04
-39.46
-29.07
-18.44
-7.37
3.95
14.95
24.88
33.08
39.07
42.48
42.97
40.12
33.47
22.78
8.27
-9.17
-27.86
-45.63
-60.16
-69.53
-72.60
-69.29
-60.35
-46.91
-29.96
-9.89
13.55
40.82
71.92
105.83
140.21
171.86
197.33
213.73
219.15
212.75
194.49
165.04
125.77
78.93
27.78
-23.78
-71.96
-113.88
-147.99
-173.79
-191.43
-201.19
-203.45
-198.82
-188.25
-172.98
-154.19
-132.63
-108.53
-81.86
-52.68
-21.56
10.30
41.12
68.72
90.92
105.83
112.24
109.77
99.08
81.85
60.64
38.74
19.94
8.08
6.19
15.54
34.87
60.42
86.95
109.15
123.13
127.29
122.30
110.50
95.09
79.21
65.30
54.57
46.76
40.29
32.82
22.05
6.67
-13.21
-36.07
-59.52
-81.18
-99.31
-113.18
-123.07
-129.98
-135.21
-140.11
-145.81
-152.98
-161.71
-171.37
-180.74
-188.16
-191.97
-190.86
-184.26
-172.53
-156.74
-138.44
-119.21
-100.37
-82.90
-67.47
-54.48
-44.23
-36.80
-32.13
-29.98
-30.07
-32.02
-35.57
-40.32
-45.83
-51.53
-56.75
-60.98
-64.01
-66.02
-67.42
-68.60
-69.60
-70.05
-69.14
-66.05
-60.18
-51.58
-41.03
-29.82
-19.34
-10.64
-4.17
0.27
3.29
5.59
7.72
9.99
12.46
14.97
17.24
18.90
19.55
18.96
17.16
14.49
11.53
8.87
6.98
6.06
6.06
6.76
7.81
8.70
8.89
7.94
5.65
2.18
-2.04
-6.46
-10.65
-14.48
-18.01
-21.31
-24.32
-26.76
-28.29
-28.82
-28.59
-28.23
-28.55
-30.12
-32.99
-36.60
-39.92
-41.78
-41.48
-38.92
-34.72
-29.84
-25.28
-21.63
-19.01
-17.23
-16.00
-15.11
-14.50
-14.21
-14.12
-14.03
-13.61
-12.57
-10.73
-8.02
-4.44
0.05
5.48
11.93
19.42
27.85
36.98
46.45
55.81
64.45
71.85
77.53
81.22
82.94
82.97
81.76
79.66
76.74
72.71
67.00
59.07
48.89
37.06
24.78
13.52
4.39
-2.23
-6.80
-10.45
-14.57
-20.29
-28.18
-38.14
-49.57
-61.70
-73.97
-86.23
-98.75
-112.01
-126.42
-142.06
-158.63
-175.59
-192.39
-208.67
-224.46
-240.17
-256.50
-274.10
-293.29
-313.60
-333.52
-350.55
-361.86
-365.31
-360.45
-348.83
-333.56
-318.08
-304.98
-295.23
-288.17
-282.19
-275.45
-266.46
-254.02
-237.17
-215.11
-187.32
-154.04
-116.42
-76.36
-35.94
3.20
40.15
74.64
106.38
134.68
158.38
176.43
188.77
196.71
202.61
208.81
216.53
225.18
233.01
238.22
240.12
239.60
238.48
238.40
239.83
241.81
242.78
241.57
238.22
233.96
230.42
228.46
227.55
225.68
220.28
209.39
192.83
172.28
150.70
131.13
115.59
104.46
96.85
91.31
86.64
82.50
79.26
77.54
77.60
78.88
80.00
79.25
75.31
67.81
57.49
45.87
34.56
24.50
15.77
7.74
-0.30
-8.57
-16.56
-23.17
-27.31
-28.39
-26.67
-23.21
-19.33
-16.17
-14.37
-13.85
-14.04
-14.33
-14.22
-13.56
-12.48
-11.24
-9.94
-8.69
-7.44
-6.04
-4.43
-2.44
0.04
3.09
6.73
10.81
15.00
18.81
21.72
23.23
23.02
21.03
17.42
12.69
7.52
2.58
-1.61
-4.73
-6.82
-7.95
-8.20
-7.48
-5.51
-1.99
3.25
10.11
18.26
27.09
36.08
44.77
52.77
59.86
65.68
69.80
71.83
71.61
69.31
65.61
61.46
57.66
54.56
51.81
48.50
43.79
37.39
29.94
22.85
17.63
15.03
14.64
14.76
13.13
7.54
-3.27
-19.39
-39.52
-60.84
-79.07
-88.95
-85.89
-67.98
-37.48
-0.70
34.23
60.68
76.05
82.12
83.17
83.00
82.82
81.30
76.02
65.42
49.89
31.27
11.75
-6.96
-23.72
-37.68
-48.10
-54.70
-58.36
-61.22
-66.02
-75.01
-88.73
-105.66
-122.85
-137.08
-146.06
-149.05
-146.78
-140.88
-133.14
-124.81
-116.50
-108.37
-100.51
-93.17
-86.90
-82.38
-80.15
-80.39
-82.81
-86.72
-91.18
-95.19
-97.65
-97.70
-94.49
-87.38
-76.06
-60.82
-42.58
-22.87
-3.52
13.83
28.05
38.78
46.39
51.62
55.28
58.01
60.08
61.44
61.87
61.05
58.77
55.03
50.13
44.54
38.94
33.93
29.83
26.65
24.00
21.35
18.25
14.48
10.38
6.83
5.15
6.70
12.44
22.41
35.69
50.66
65.45
78.52
89.06
96.97
102.66
106.72
109.62
111.64
112.85
113.13
112.29
110.16
106.71
102.16
97.01
91.93
87.52
84.24
82.21
81.24
80.78
80.11
78.47
75.20
70.09
63.33
55.59
47.73
40.49
34.20
28.66
23.29
17.37
10.39
2.40
-5.96
-13.54
-19.09
-21.71
-21.14
-17.77
-12.51
-6.25
0.26
6.67
12.97
19.43
26.48
34.65
44.26
55.33
67.26
79.02
89.51
98.02
104.60
109.93
114.90
120.04
125.23
129.86
133.23
134.93
134.96
133.59
131.13
127.78
123.52
117.96
110.34
99.35
83.33
60.63
30.42
-6.58
-48.03
-90.26
-129.39
-162.35
-187.57
-205.10
-216.08
-222.08
-224.77
-225.39
-224.70
-222.91
-219.68
-214.23
-205.82
-193.98
-179.01
-161.96
-144.21
-126.96
-110.85
-95.93
-81.80
-67.96
-53.84
-38.88
-22.53
-4.37
15.63
36.85
57.98
77.42
93.50
105.10
111.78
113.80
111.98
107.61
102.09
96.89
93.00
90.82
89.93
89.38
87.96
84.73
79.13
71.17
61.03
48.89
34.88
19.09
1.84
-16.32
-34.76
-52.70
-69.40
-84.01
-95.61
-103.25
-106.36
-105.24
-101.51
-97.87
-97.42
-102.40
-113.15
-127.78
-142.93
-155.03
-161.77
-162.80
-159.64
-154.82
-150.83
-149.29
-150.45
-153.00
-154.36
-151.09
-139.89
-118.79
-88.25
-51.69
-14.92
15.57
34.59
39.80
32.29
15.82
-4.64
-24.27
-39.48
-48.36
-50.61
-47.17
-39.38
-28.29
-14.35
2.45
21.80
42.62
62.92
80.52
93.94
103.06
108.90
112.53
114.02
111.98
104.24
89.37
67.96
42.88
18.20
-2.30
-16.55
-24.60
-28.07
-29.06
-29.32
-29.71
-30.50
-31.81
-33.97
-37.76
-44.16
-54.02
-67.75
-85.26
-105.91
-128.55
-151.53
-172.80
-190.29
-202.40
-208.50
-209.19
-206.03
-200.85
-194.97
-188.66
-181.17
-171.31
-158.15
-141.57
-122.29
-101.53
-80.50
-60.05
-40.60
-22.26
-5.16
10.45
24.06
35.17
43.56
49.52
53.83
57.56
61.62
66.46
71.93
77.41
82.27
86.19
89.47
92.80
96.84
101.75
106.90
111.15
113.25
112.56
109.40
105.16
101.45
99.56
99.69
100.94
101.94
101.65
99.89
97.34
94.66
92.13
89.43
86.05
82.15
78.89
77.97
80.79
87.07
95.00
101.98
106.03
106.90
106.03
105.59
107.02
109.91
112.51
112.76
109.72
104.21
98.35
94.23
92.92
93.46
93.89
92.35
88.20
82.41
76.68
72.24
68.97
64.81
57.17
44.38
26.75
6.74
-12.36
-28.14
-40.14
-50.49
-62.09
-76.93
-94.63
-112.43
-126.58
-134.32
-135.19
-131.39
-126.40
-123.22
-122.99
-124.78
-126.31
-125.17
-119.49
-108.51
-92.23
-71.18
-46.32
-19.19
8.17
33.49
54.91
71.30
82.54
89.35
92.77
93.89
93.52
92.33
91.14
90.52
90.92
92.45
94.86
97.82
101.15
105.04
110.06
116.72
125.07
134.41
143.36
150.26
153.87
153.80
150.69
145.74
140.07
133.89
126.49
116.43
102.30
83.45
60.34
34.27
6.97
-20.01
-45.58
-68.99
-89.73
-107.46
-121.96
-133.46
-142.41
-149.25
-153.91
-155.61
-153.14
-145.41
-132.36
-115.34
-96.98
-80.32
-67.74
-60.09
-56.48
-54.66
-51.86
-45.98
-36.12
-22.89
-8.07
6.20
18.10
26.72
32.20
35.35
37.14
38.09
38.12
36.61
32.76
26.03
16.43
4.33
-9.58
-24.56
-39.78
-54.21
-66.80
-76.50
-82.69
-85.50
-85.96
-85.66
-86.23
-88.60
-92.72
-97.61
-101.78
-104.00
-103.82
-101.75
-99.06
-97.22
-97.43
-100.12
-104.87
-110.47
-115.04
-116.32
-112.14
-100.85
-81.99
-56.48
-26.49
5.10
35.36
61.96
83.32
98.72
108.03
111.81
111.32
108.31
104.61
101.52
99.32
97.41
94.77
90.79
85.83
81.10
78.04
77.58
79.76
83.79
88.59
93.21
97.09
99.83
101.07
100.40
97.59
93.10
88.36
85.63
87.23
94.34
106.07
119.43
130.29
135.13
132.55
123.89
112.42
101.59
93.16
86.46
78.83
67.14
49.33
25.28
-3.34
-34.02
-64.32
-92.50
-117.60
-139.25
-157.45
-172.46
-184.81
-195.12
-204.01
-211.83
-218.53
-223.60
-226.34
-226.04
-222.11
-214.36
-202.93
-188.36
-171.37
-152.53
-132.14
-110.21
-86.76
-62.00
-36.82
-12.59
8.94
26.28
38.60
45.90
48.89
48.52
45.71
41.14
35.25
28.49
21.33
14.35
8.03
2.69
-1.58
-4.77
-6.88
-7.83
-7.69
-6.78
-5.79
-5.71
-7.45
-11.42
-17.12
-23.05
-26.80
-25.65
-17.44
-1.27
21.86
49.25
77.18
101.99
121.13
133.68
140.25
142.33
141.43
138.60
134.27
128.61
121.81
114.26
106.35
98.27
89.86
80.70
70.50
59.38
48.02
37.49
28.77
22.36
18.01
14.88
12.01
8.77
5.08
1.41
-1.65
-3.73
-4.95
-6.01
-7.83
-11.28
-16.73
-23.91
-32.09
-40.24
-47.48
-53.21
-57.32
-60.09
-62.26
-64.73
-68.58
-74.60
-82.87
-92.19
-99.94
-102.61
-97.01
-81.59
-57.41
-27.94
2.09
28.41
48.53
62.16
70.45
75.01
76.89
76.46
73.80
69.23
63.68
58.39
54.42
52.25
51.57
51.53
51.27
50.32
48.71
46.94
45.49
44.70
44.42
44.19
43.29
41.06
37.08
31.34
24.12
15.97
7.63
-0.34
-7.48
-13.81
-19.74
-25.77
-32.42
-39.78
-47.60
-55.27
-62.18
-67.85
-72.12
-75.04
-76.84
-77.95
-78.97
-80.65
-83.67
-88.30
-93.78
-98.24
-99.13
-93.98
-81.48
-62.11
-38.22
-13.33
8.94
26.03
36.96
42.24
43.36
41.69
38.14
32.89
25.81
16.97
7.02
-2.84
-11.22
-17.12
-20.24
-20.88
-19.71
-17.39
-14.23
-10.23
-5.26
0.74
7.62
14.86
21.70
27.26
30.73
31.76
30.53
27.72
24.18
20.61
17.19
13.77
10.05
5.90
1.63
-2.21
-5.06
-6.69
-7.30
-7.57
-8.29
-10.26
-14.10
-20.26
-28.95
-40.00
-52.43
-64.27
-72.67
-74.53
-67.46
-50.81
-26.12
3.11
32.58
58.31
77.81
90.24
96.19
96.94
93.78
87.82
79.89
70.78
61.38
52.61
45.28
39.85
36.35
34.38
33.39
32.81
32.31
31.84
31.44
31.17
30.88
30.26
28.93
26.64
23.39
19.32
14.59
9.15
2.78
-4.71
-13.32
-22.64
-31.95
-40.45
-47.60
-53.35
-58.27
-63.39
-69.78
-78.08
-87.93
-97.68
-104.81
-106.39
-100.18
-85.41
-63.16
-36.05
-7.44
19.47
42.22
59.42
70.74
76.59
77.92
75.96
71.96
66.96
61.57
56.04
50.50
45.23
40.77
37.76
36.60
37.20
38.79
40.37
41.13
40.79
39.67
38.31
36.94
35.24
32.13
26.53
17.92
6.90
-4.99
-15.91
-24.57
-30.79
-35.78
-41.37
-49.24
-60.16
-73.63
-88.09
-101.19
-110.30
-113.17
-108.22
-95.00
-74.33
-48.22
-19.54
8.57
33.39
53.00
66.49
74.02
76.53
75.41
72.12
67.97
63.87
60.24
57.17
54.57
52.35
50.52
49.19
48.48
48.59
49.55
51.19
53.13
54.69
55.20
54.10
51.12
46.47
40.66
34.29
27.75
21.06
13.90
5.89
-3.14
-12.90
-22.72
-31.73
-39.27
-45.10
-49.59
-53.61
-58.21
-64.22
-71.91
-80.64
-88.87
-94.26
-94.32
-87.12
-72.05
-50.15
-23.95
3.18
27.98
47.97
61.90
69.62
71.82
69.59
64.18
56.78
48.44
39.99
31.99
24.73
18.39
13.10
9.06
6.38
5.08
4.99
5.82
7.21
8.81
10.35
11.50
11.98
11.40
9.46
6.02
1.27
-4.27
-9.92
-15.13
-19.83
-24.55
-30.26
-37.92
-47.97
-59.90
-72.30
-83.38
-91.58
-96.26
-97.72
-96.89
-94.86
-92.31
-89.42
-85.99
-81.68
-76.11
-68.81
-59.07
-46.10
-29.17
-8.10
16.30
42.34
67.62
89.82
107.24
119.25
126.22
129.18
129.35
127.67
124.74
120.92
116.62
112.40
108.92
106.68
105.65
105.22
104.26
101.66
96.71
89.40
80.36
70.53
60.66
51.00
41.31
30.95
19.50
6.84
-6.58
-19.91
-32.29
-43.05
-52.04
-59.53
-66.11
-72.46
-79.24
-86.97
-95.82
-105.44
-114.62
-121.38
-123.20
-117.90
-104.33
-83.06
-56.37
-27.53
0.03
23.65
41.87
54.34
61.54
64.31
63.66
60.57
55.98
50.66
45.18
39.95
35.21
31.19
28.14
26.27
25.61
25.98
26.88
27.68
27.81
26.87
24.77
21.70
17.95
13.78
9.35
4.63
-0.44
-5.93
-11.78
-17.78
-23.62
-29.03
-33.77
-37.79
-41.15
-44.09
-47.08
-50.78
-55.97
-63.18
-72.28
-81.96
-89.81
-92.87
-88.58
-75.86
-55.68
-30.90
-5.29
17.57
35.37
47.40
54.20
56.96
56.95
55.11
52.12
48.43
44.55
40.99
38.24
36.65
36.23
36.70
37.66
38.67
39.57
40.45
41.55
42.98
44.56
45.75
45.79
44.10
40.47
35.18
28.87
22.27
15.92
10.04
4.59
-0.64
-5.95
-11.67
-18.05
-25.26
-33.27
-41.68
-49.84
-56.98
-62.56
-66.60
-69.68
-72.85
-77.25
-83.78
-92.61
-102.91
-112.79
-119.58
-120.48
-113.40
-97.80
-74.92
-47.61
-19.47
6.20
27.09
42.19
51.65
56.32
57.27
55.63
52.41
48.53
44.64
41.14
38.21
35.88
34.26
33.51
33.75
34.97
36.86
38.94
40.62
41.58
41.74
41.24
40.21
38.63
36.20
32.55
27.46
21.03
13.76
6.36
-0.54
-6.55
-11.62
-16.07
-20.38
-25.00
-30.19
-35.96
-42.06
-48.06
-53.54
-58.17
-61.81
-64.62
-66.99
-69.48
-72.86
-77.76
-84.60
-93.16
-102.30
-110.02
-113.68
-110.80
-99.89
-81.06
-56.21
-28.48
-1.38
22.14
40.27
52.56
59.49
62.17
61.78
59.42
55.87
51.68
47.22
42.75
38.63
35.24
32.97
32.09
32.62
34.26
36.57
39.09
41.42
43.34
44.65
45.18
44.75
43.23
40.53
36.75
32.02
26.59
20.84
15.15
9.92
5.32
1.31
-2.53
-6.63
-11.36
-16.80
-22.66
-28.52
-33.97
-38.81
-43.04
-46.83
-50.38
-53.96
-58.00
-63.07
-69.65
-77.73
-86.32
-93.41
-96.31
-92.53
-80.76
-61.46
-36.86
-10.31
14.79
35.86
51.64
62.03
67.68
69.41
67.98
64.00
58.12
51.21
44.36
38.67
34.88
33.20
33.15
33.91
34.71
35.19
35.48
35.99
36.92
38.04
38.60
37.69
34.62
29.34
22.51
15.17
8.34
2.48
-2.60
-7.54
-13.06
-19.50
-26.66
-33.97
-40.71
-46.35
-50.82
-54.33
-57.32
-60.38
-64.22
-69.56
-76.92
-86.04
-95.50
-102.72
-104.52
-98.23
-82.86
-59.55
-31.47
-2.72
22.82
42.55
55.55
62.33
64.34
63.10
59.90
55.55
50.52
45.24
40.23
36.17
33.67
32.84
33.32
34.42
35.43
36.07
36.64
37.65
39.39
41.44
42.78
42.26
39.16
33.67
26.78
19.76
13.50
8.15
3.20
-2.10
-8.20
-15.01
-22.01
-28.66
-34.64
-40.16
-45.62
-51.24
-56.89
-62.08
-66.41
-69.99
-73.60
-78.52
-85.65
-94.64
-103.48
-108.83
-107.17
-96.29
-76.20
-49.39
-19.85
8.24
31.84
49.51
61.32
68.17
71.19
71.28
69.09
65.27
60.48
55.53
51.16
47.93
46.13
45.70
46.31
47.51
48.84
50.01
50.91
51.62
52.26
52.85
53.21
52.95
51.56
48.61
43.93
37.74
30.59
23.23
16.30
10.18
4.83
-0.15
-5.34
-11.19
-17.81
-24.89
-31.83
-38.02
-43.11
-47.19
-50.65
-54.12
-58.15
-63.27
-69.86
-78.10
-87.67
-97.43
-105.32
-108.61
-104.70
-92.12
-71.32
-44.73
-16.05
10.88
33.24
49.73
60.46
66.42
68.79
68.60
66.61
63.52
59.99
56.74
54.34
53.09
52.93
53.53
54.48
55.47
56.42
57.43
58.66
60.10
61.48
62.28
61.89
59.93
56.30
51.33
45.54
39.42
33.26
27.11
20.86
14.45
8.00
1.79
-3.83
-8.72
-12.98
-17.01
-21.30
-26.17
-31.67
-37.50
-43.14
-48.10
-52.18
-55.57
-58.78
-62.50
-67.46
-74.14
-82.41
-91.34
-99.10
-103.23
-101.30
-91.65
-74.17
-50.44
-23.36
3.70
27.73
46.77
60.03
67.68
70.44
69.25
65.14
59.08
52.02
44.75
37.90
31.92
27.08
23.45
20.97
19.45
18.67
18.35
18.20
17.92
17.11
15.37
12.37
8.02
2.56
-3.47
-9.44
-14.82
-19.37
-23.12
-26.23
-28.83
-30.91
-32.33
-33.01
-33.01
-32.61
-32.25
-32.36
-33.20
-34.77
-36.85
-39.04
-41.03
-42.63
-43.95
-45.37
-47.48
-50.99
-56.48
-64.19
-73.58
-83.14
-90.50
-92.84
-87.92
-74.87
-54.76
-30.39
-5.46
16.60
33.59
44.85
51.01
53.16
52.33
49.22
44.29
38.10
31.49
25.46
20.84
18.00
16.80
16.73
17.25
18.07
19.22
20.92
23.32
26.23
29.10
31.08
31.33
29.30
25.01
19.03
12.31
5.80
0.09
-4.85
-9.52
-14.63
-20.72
-27.84
-35.52
-43.02
-49.59
-54.82
-58.71
-61.69
-64.52
-68.09
-73.28
-80.54
-89.56
-98.93
-106.26
-108.68
-103.73
-90.30
-69.13
-42.68
-14.47
11.99
34.10
50.57
61.38
67.36
69.62
69.19
66.86
63.26
58.94
54.53
50.72
48.02
46.65
46.40
46.85
47.57
48.36
49.23
50.26
51.22
51.60
50.63
47.70
42.74
36.30
29.28
22.50
16.28
10.34
4.17
-2.58
-9.83
-17.04
-23.62
-29.20
-34.03
-38.73
-44.03
-50.31
-57.30
-64.24
-70.29
-74.86
-78.05
-80.48
-83.10
-86.88
-92.46
-99.96
-109.02
-118.56
-126.89
-131.81
-130.90
-122.30
-105.35
-81.07
-52.09
-22.01
5.65
28.25
44.61
54.91
60.21
61.96
61.49
59.95
58.20
56.89
56.37
56.70
57.69
58.95
60.13
61.07
61.82
62.65
63.78
65.17
66.47
67.17
66.69
64.71
61.25
56.59
51.18
45.42
39.53
33.54
27.44
21.27
15.16
9.38
4.20
-0.16
-3.68
-6.55
-9.17
-11.97
-15.39
-19.63
-24.68
-30.29
-36.06
-41.60
-46.70
-51.37
-55.98
-61.20
-67.90
-76.77
-87.88
-100.15
-111.25
-117.97
-117.11
-106.72
-86.93
-60.07
-30.04
-1.05
23.54
42.05
54.46
61.87
65.73
67.26
67.30
66.31
64.64
62.73
61.02
59.96
59.76
60.35
61.42
62.62
63.65
64.43
65.06
65.71
66.41
66.99
67.00
65.86
63.02
58.27
51.79
44.18
36.25
28.68
21.84
15.65
9.76
3.67
-3.02
-10.49
-18.61
-27.01
-35.17
-42.55
-48.72
-53.51
-57.10
-60.04
-63.19
-67.58
-74.06
-82.92
-93.43
-103.76
-111.14
-112.66
-106.19
-91.22
-69.06
-42.51
-14.93
10.72
32.37
49.07
60.64
67.33
69.61
68.17
64.02
58.40
52.53
47.37
43.50
41.09
40.06
40.28
41.63
43.95
46.91
50.03
52.71
54.41
54.73
53.52
50.76
46.62
41.30
35.14
28.57
21.99
15.64
9.52
3.35
-3.23
-10.67
-19.10
-28.24
-37.35
-45.43
-51.59
-55.52
-57.74
-59.87
-63.93
-71.50
-82.75
-95.90
-107.45
-113.41
-110.66
-98.30
-77.75
-52.14
-25.06
0.55
23.00
41.61
56.25
66.74
72.83
74.60
72.77
68.86
64.78
62.07
61.48
62.68
64.68
66.44
67.41
67.74
68.01
68.77
70.17
71.81
72.94
72.87
71.15
67.71
62.67
56.29
48.84
40.62
32.07
23.69
15.96
9.10
3.01
-2.74
-8.68
-15.17
-22.26
-29.57
-36.53
-42.63
-47.64
-51.78
-55.58
-59.82
-65.28
-72.59
-81.96
-92.88
-103.91
-112.70
-116.38
-112.38
-99.36
-77.88
-50.43
-20.70
7.47
31.15
48.99
60.99
68.19
71.80
72.92
72.27
70.41
67.85
65.25
63.21
62.19
62.34
63.37
64.83
66.26
67.43
68.43
69.48
70.71
72.02
73.01
73.14
71.97
69.36
65.48
60.71
55.43
49.84
43.89
37.49
30.59
23.43
16.47
10.19
4.87
0.35
-3.87
-8.43
-13.72
-19.72
-25.95
-31.75
-36.62
-40.50
-43.83
-47.40
-52.17
-58.87
-67.72
-78.09
-88.43
-96.37
-99.28
-95.00
-82.58
-62.74
-37.75
-10.85
14.57
35.82
51.39
60.96
65.13
65.08
62.13
57.47
52.13
46.80
41.97
37.90
34.74
32.59
31.51
31.46
32.28
33.68
35.32
36.96
38.44
39.73
40.81
41.54
41.56
40.36
37.50
32.88
26.79
19.94
13.17
7.10
1.88
-2.89
-7.94
-13.95
-21.15
-29.13
-37.02
-43.84
-48.92
-52.21
-54.24
-55.94
-58.29
-62.10
-67.83
-75.52
-84.63
-93.85
-101.16
-104.15
-100.64
-89.55
-71.34
-48.06
-22.80
1.28
21.67
37.08
47.34
53.10
55.32
55.02
53.10
50.34
47.38
44.68
42.54
41.13
40.49
40.59
41.35
42.63
44.18
45.63
46.52
46.37
44.87
41.85
37.40
31.82
25.47
18.69
11.68
4.57
-2.66
-9.97
-17.33
-24.59
-31.54
-37.89
-43.28
-47.41
-50.20
-51.97
-53.49
-55.92
-60.33
-67.25
-76.19
-85.39
-92.17
-93.64
-87.69
-73.76
-53.19
-28.75
-3.87
18.41
36.21
48.96
57.11
61.62
63.36
63.01
61.03
57.89
54.12
50.31
46.94
44.25
42.18
40.49
38.91
37.36
35.99
35.13
35.10
35.94
37.39
38.78
39.28
38.23
35.34
30.80
25.21
19.47
14.32
10.30
7.44
5.39
3.59
1.42
-1.59
-5.66
-10.63
-16.18
-21.93
-27.62
-33.31
-39.29
-46.07
-54.15
-63.73
-74.50
-85.47
-94.84
-100.52
-100.41
-93.14
-78.63
-58.16
-34.19
-9.80
12.19
29.70
41.83
48.68
51.15
50.44
47.83
44.33
40.62
37.03
33.65
30.54
27.82
25.76
24.67
24.68
25.62
26.99
28.17
28.63
28.19
27.05
25.55
23.83
21.78
18.93
14.82
9.30
2.70
-4.23
-10.60
-15.87
-19.97
-23.29
-26.49
-30.10
-34.34
-39.09
-43.95
-48.55
-52.55
-55.84
-58.45
-60.58
-62.63
-65.17
-68.79
-74.01
-80.89
-88.73
-95.89
-100.08
-98.89
-90.60
-74.86
-52.99
-27.59
-1.91
21.13
39.59
52.63
60.43
63.74
63.56
60.94
56.92
52.45
48.31
45.01
42.69
41.15
40.06
39.18
38.43
37.98
38.04
38.69
39.78
40.89
41.49
41.12
39.64
37.14
33.88
30.05
25.64
20.52
14.55
7.88
0.94
-5.59
-11.16
-15.63
-19.26
-22.72
-26.61
-31.23
-36.34
-41.40
-45.79
-49.14
-51.47
-53.12
-54.68
-56.74
-59.84
-64.42
-70.61
-77.98
-85.32
-90.63
-91.49
-85.95
-73.13
-53.85
-30.41
-5.97
16.37
34.32
46.78
53.80
56.07
54.64
50.58
44.85
38.30
31.68
25.62
20.54
16.71
14.17
12.79
12.35
12.64
13.48
14.79
16.44
18.19
19.58
20.02
18.97
16.13
11.64
6.03
0.10
-5.47
-10.38
-14.80
-19.31
-24.47
-30.52
-37.19
-43.69
-49.10
-52.76
-54.65
-55.40
-56.19
-58.26
-62.49
-68.98
-76.96
-84.75
-90.07
-90.65
-84.73
-71.68
-52.25
-28.46
-3.33
20.04
39.15
52.71
60.75
64.31
64.83
63.52
60.91
57.06
51.91
45.77
39.56
34.46
31.45
30.77
31.71
33.00
33.54
32.93
31.67
30.73
30.79
31.82
32.64
31.70
27.77
20.64
11.32
1.55
-7.04
-13.68
-18.80
-23.58
-29.21
-36.17
-43.91
-51.20
-56.82
-60.16
-61.62
-62.26
-63.27
-65.46
-69.08
-74.02
-80.03
-86.70
-93.37
-98.63
-100.30
-95.93
-83.63
-63.14
-36.19
-6.19
22.75
47.15
65.01
76.04
81.17
81.91
79.73
75.77
70.81
65.42
60.15
55.47
51.82
49.39
48.12
47.77
47.96
48.27
48.35
48.05
47.30
46.13
44.57
42.59
40.07
36.82
32.64
27.40
21.12
14.03
6.58
-0.64
-7.08
-12.40
-16.66
-20.23
-23.77
-27.85
-32.78
-38.41
-44.19
-49.43
-53.57
-56.43
-58.30
-59.84
-61.88
-65.23
-70.40
-77.41
-85.63
-93.56
-98.96
-99.32
-92.51
-77.50
-55.08
-27.67
1.14
27.62
48.92
63.61
71.73
74.38
73.13
69.40
64.30
58.61
52.91
47.71
43.50
40.68
39.43
39.58
40.66
42.10
43.35
44.09
44.28
44.04
43.46
42.45
40.71
37.77
33.39
27.50
20.35
12.51
4.59
-2.91
-9.64
-15.45
-20.37
-24.49
-28.03
-31.22
-34.24
-37.23
-40.15
-42.80
-44.94
-46.46
-47.41
-48.23
-49.58
-52.24
-56.89
-63.73
-72.25
-81.05
-87.97
-90.45
-86.29
-74.41
-55.31
-31.19
-5.27
19.04
39.04
53.36
61.95
65.68
65.76
63.31
59.25
54.33
49.30
44.84
41.53
39.59
38.84
38.74
38.66
38.13
37.04
35.57
34.06
32.67
31.34
29.70
27.38
24.09
19.77
14.56
8.70
2.39
-4.21
-10.95
-17.63
-23.86
-29.29
-33.62
-36.83
-39.25
-41.36
-43.66
-46.46
-49.69
-52.92
-55.61
-57.34
-58.14
-58.47
-59.17
-61.21
-65.37
-71.88
-80.10
-88.45
-94.58
-95.88
-90.30
-77.02
-56.84
-31.97
-5.48
19.60
40.94
57.21
68.08
73.85
75.21
72.97
68.09
61.62
54.62
48.08
42.68
38.82
36.51
35.54
35.66
36.68
38.48
40.91
43.65
46.19
47.95
48.43
47.33
44.68
40.70
35.75
30.07
23.84
17.06
9.79
2.16
-5.60
-13.13
-20.10
-26.24
-31.43
-35.67
-39.16
-42.22
-45.44
-49.55
-55.17
-62.46
-70.60
-77.68
-81.03
-78.12
-67.56
-49.73
-26.89
-2.39
20.41
39.12
52.67
61.06
64.93
65.07
62.23
57.24
51.13
45.03
39.94
36.36
34.17
32.86
31.89
31.07
30.61
30.95
32.36
34.65
37.11
38.74
38.61
36.18
31.47
24.99
17.55
9.93
2.70
-3.94
-10.16
-16.29
-22.62
-29.23
-35.83
-42.03
-47.44
-51.87
-55.41
-58.34
-61.17
-64.62
-69.42
-75.99
-83.93
-91.66
-96.43
-95.11
-85.31
-66.56
-40.78
-11.82
15.84
38.57
54.57
64.06
68.53
69.69
68.83
66.50
62.93
58.42
53.59
49.30
46.37
45.14
45.45
46.67
48.05
49.07
49.49
49.36
48.87
48.08
46.96
45.27
42.75
39.15
34.34
28.30
21.25
13.55
5.79
-1.41
-7.57
-12.53
-16.65
-20.67
-25.34
-31.22
-38.28
-45.95
-53.35
-59.70
-64.63
-68.32
-71.44
-74.84
-79.42
-85.84
-94.24
-104.01
-113.52
-120.27
-121.32
-114.31
-98.26
-74.13
-44.76
-14.05
14.13
36.89
52.86
62.11
65.69
65.15
62.02
57.63
53.01
48.83
45.59
43.52
42.73
43.13
44.42
46.05
47.48
48.33
48.53
48.44
48.54
49.13
50.09
50.78
50.40
48.27
44.32
39.06
33.38
28.23
24.16
21.16
18.74
16.21
13.00
8.95
4.43
0.13
-3.16
-5.01
-5.51
-5.32
-5.35
-6.41
-8.90
-12.61
-16.92
-21.11
-24.70
-27.57
-30.03
-32.69
-36.25
-41.43
-48.67
-57.90
-68.17
-77.50
-83.16
-82.38
-73.25
-55.60
-31.28
-3.68
23.27
46.15
62.95
73.18
77.63
77.70
74.84
70.19
64.57
58.63
52.97
48.21
44.81
42.87
42.09
41.80
41.26
40.06
38.22
36.17
34.44
33.25
32.30
30.83
27.97
23.09
16.18
7.82
-0.95
-9.14
-16.01
-21.43
-25.75
-29.61
-33.60
-38.03
-42.87
-47.95
-53.02
-57.91
-62.51
-66.63
-70.07
-72.71
-74.58
-76.10
-77.76
-79.86
-82.33
-84.57
-85.83
-85.60
-84.00
-81.92
-80.72
-81.68
-85.31
-91.06
-97.21
-101.28
-100.72
-93.87
-80.25
-60.78
-37.35
-12.24
12.40
34.74
53.45
67.51
76.40
80.20
79.72
76.41
71.90
67.55
64.14
61.73
59.94
58.42
57.09
56.13
55.80
56.23
57.33
58.71
59.89
60.43
59.96
58.29
55.33
51.19
46.24
40.98
36.05
31.93
28.77
26.31
23.88
20.71
16.27
10.47
3.70
-3.31
-9.81
-15.30
-19.72
-23.39
-26.84
-30.68
-35.42
-41.45
-48.82
-57.03
-64.77
-70.01
-70.51
-64.64
-52.17
-34.55
-14.57
4.56
20.18
30.88
36.58
37.99
36.08
31.57
24.93
16.57
7.12
-2.48
-11.12
-17.89
-22.26
-24.31
-24.54
-23.56
-21.81
-19.39
-16.15
-11.92
-6.85
-1.44
3.47
6.96
8.28
7.16
3.79
-1.11
-6.64
-12.00
-16.69
-20.74
-24.57
-28.76
-33.71
-39.44
-45.64
-51.85
-57.72
-63.14
-68.31
-73.53
-79.17
-85.60
-93.10
-101.76
-111.11
-119.97
-126.30
-127.73
-122.13
-108.61
-87.88
-62.23
-34.80
-8.68
13.76
31.37
43.97
52.11
56.50
57.89
56.94
54.36
50.84
47.12
43.89
41.65
40.65
40.83
41.93
43.67
45.78
48.15
50.72
53.41
56.02
58.16
59.44
59.53
58.30
55.83
52.39
48.28
43.76
39.01
34.15
29.29
24.56
20.11
16.02
12.27
8.68
5.01
1.02
-3.43
-8.31
-13.42
-18.52
-23.44
-28.25
-33.37
-39.48
-47.24
-56.86
-67.65
-77.75
-84.48
-85.01
-77.30
-60.84
-36.98
-8.41
21.56
49.95
74.70
94.74
109.77
119.97
125.69
127.51
126.21
122.80
118.35
113.73
109.46
105.70
102.36
99.31
96.63
94.55
93.38
93.28
94.04
95.10
95.65
94.91
92.30
87.74
81.46
73.88
65.46
56.51
47.14
37.40
27.34
17.12
7.08
-2.44
-11.17
-19.00
-26.06
-32.70
-39.32
-46.17
-53.30
-60.50
-67.42
-73.75
-79.32
-84.19
-88.65
-93.18
-98.33
-104.59
-112.12
-120.42
-128.16
-133.27
-133.34
-126.42
-111.69
-89.91
-63.33
-35.10
-8.38
14.38
31.89
43.98
51.25
54.64
55.08
53.30
49.94
45.58
40.95
36.82
33.92
32.65
33.06
34.85
37.50
40.55
43.80
47.19
50.74
54.26
57.32
59.29
59.60
57.90
54.29
49.07
42.71
35.66
28.28
20.92
13.91
7.46
1.60
-3.92
-9.54
-15.58
-22.06
-28.50
-34.12
-38.32
-40.89
-42.30
-43.42
-45.29
-48.72
-54.04
-61.01
-68.75
-75.73
-80.09
-79.84
-73.49
-60.48
-41.51
-18.47
5.96
29.06
48.50
62.88
71.79
75.66
75.53
72.68
68.20
62.90
57.18
51.29
45.47
40.12
35.71
32.59
30.76
29.87
29.39
28.86
28.18
27.61
27.62
28.54
30.38
32.83
35.42
37.80
39.99
42.27
45.04
48.63
52.96
57.70
62.28
66.06
68.51
69.20
67.78
63.99
57.74
49.10
38.32
25.64
11.27
-4.70
-21.88
-39.20
-54.72
-65.66
-69.16
-63.14
-47.22
-23.11
5.71
34.95
60.51
79.43
90.26
92.92
88.39
78.20
64.13
47.97
31.36
15.63
1.69
-10.09
-19.78
-27.79
-34.55
-40.39
-45.39
-49.41
-52.28
-53.83
-54.10
-53.34
-52.04
-50.78
-50.13
-50.48
-51.95
-54.40
-57.56
-61.08
-64.77
-68.47
-72.07
-75.36
-78.09
-80.10
-81.39
-82.43
-83.94
-86.79
-91.54
-97.95
-104.82
-110.07
-111.24
-106.22
-93.98
-74.94
-50.95
-24.75
0.71
22.91
40.20
51.91
58.10
59.38
56.62
50.84
43.15
34.70
26.49
19.33
13.66
9.49
6.54
4.39
2.71
1.30
0.18
-0.58
-0.93
-0.92
-0.81
-0.95
-1.85
-4.03
-7.97
-13.95
-21.90
-31.37
-41.64
-51.96
-61.80
-71.11
-80.19
-89.40
-98.64
-106.95
-112.50
-113.02
-106.65
-92.56
-71.51
-45.68
-18.11
8.08
30.29
46.78
56.63
59.60
55.95
46.37
31.99
14.29
-5.03
-24.29
-42.14
-57.70
-70.69
-81.24
-89.80
-96.91
-102.92
-107.92
-111.69
-113.86
-114.04
-112.09
-108.17
-102.82
-96.83
-91.09
-86.44
-83.39
-82.01
-81.84
-82.06
-81.72
-80.23
-77.58
-74.54
-72.41
-72.48
-75.44
-80.84
-87.04
-91.48
-91.41
-84.74
-70.50
-49.13
-22.26
7.75
38.28
66.82
91.38
110.48
123.45
130.50
132.62
131.39
128.51
125.33
122.61
120.47
118.67
117.00
115.49
114.43
114.20
115.00
116.76
119.04
121.29
123.01
123.84
123.62
122.25
119.62
115.64
110.16
103.14
94.67
84.98
74.46
63.58
52.79
42.43
32.60
23.01
13.06
1.91
-11.25
-26.72
-43.94
-61.22
-75.95
-85.24
-86.76
-79.61
-64.65
-44.29
-21.75
-0.15
18.16
31.90
40.74
44.98
45.26
42.44
37.52
31.61
25.80
20.88
17.26
14.97
13.75
13.29
13.54
14.72
17.23
21.49
27.62
35.26
43.71
52.18
60.08
67.27
74.07
80.92
88.20
95.87
103.47
110.37
116.07
120.49
124.00
127.24
130.76
134.77
138.87
142.10
143.19
140.84
134.13
123.00
108.59
93.37
80.81
74.45
76.80
88.37
107.23
129.45
150.12
164.85
170.69
166.74
153.99
134.61
111.22
86.09
60.80
36.12
12.29
-10.68
-32.61
-52.98
-71.19
-86.76
-99.63
-110.05
-118.36
-124.72
-128.88
-130.39
-128.96
-124.92
-119.40
-114.13
-110.88
-110.91
-114.65
-121.62
-130.62
-140.22
-148.95
-155.42
-158.26
-156.20
-148.23
-134.00
-114.38
-91.41
-67.87
-46.32
-28.12
-13.09
0.16
13.32
27.48
42.68
58.15
72.90
86.28
97.96
107.73
115.05
119.00
118.46
112.70
101.79
86.83
69.82
53.17
39.11
28.90
22.35
17.84
12.91
5.47
-5.32
-18.65
-32.56
-45.07
-55.23
-63.48
-71.19
-79.84
-90.30
-102.79
-117.09
-132.84
-149.38
-165.20
-177.80
-184.10
-181.68
-170.18
-151.90
-131.16
-112.66
-99.66
-92.94
-91.22
-92.35
-94.63
-97.28
-100.07
-102.44
-102.89
-99.19
-89.15
-71.71
-47.50
-18.88
10.73
37.74
59.34
74.02
81.74
83.70
81.63
77.23
71.63
65.31
58.36
50.93
43.43
36.55
30.88
26.59
23.32
20.38
17.18
13.60
10.15
7.61
6.65
7.34
8.97
10.26
9.82
6.78
1.14
-6.28
-14.23
-21.72
-28.48
-35.03
-42.38
-51.50
-62.77
-75.82
-89.65
-103.00
-114.86
-124.79
-133.09
-140.81
-149.55
-161.05
-176.47
-195.68
-216.82
-236.56
-250.88
-256.37
-251.06
-234.87
-209.21
-176.43
-139.30
-100.70
-63.64
-31.03
-5.10
13.12
24.34
30.61
34.72
39.18
45.52
54.10
64.44
75.61
86.72
96.98
105.86
113.05
118.53
122.62
125.88
128.78
131.54
133.92
135.32
135.07
132.73
128.35
122.34
115.25
107.49
99.11
89.85
79.45
67.80
55.14
41.95
28.69
15.86
3.69
-7.63
-18.02
-27.40
-35.71
-43.04
-49.91
-57.10
-65.45
-75.33
-85.98
-95.33
-100.34
-97.82
-85.95
-65.00
-37.48
-7.28
21.56
46.11
65.06
78.55
87.43
92.73
95.19
95.41
94.06
91.89
89.75
88.35
88.00
88.60
89.68
90.69
91.13
90.77
89.54
87.65
85.24
82.37
78.98
74.84
69.73
63.45
55.89
47.19
37.63
27.64
17.74
8.44
0.06
-7.27
-13.77
-19.82
-25.85
-32.10
-38.56
-45.01
-51.15
-56.73
-61.65
-65.97
-69.85
-73.44
-77.04
-81.15
-86.31
-92.88
-100.52
-107.87
-112.63
-112.15
-104.36
-88.73
-66.55
-40.55
-14.08
9.93
29.61
44.33
54.37
60.46
63.33
63.62
61.89
58.71
54.74
50.70
47.30
44.99
43.86
43.57
43.61
43.53
43.14
42.62
42.38
42.63
43.20
43.47
42.57
39.87
35.28
29.34
22.94
16.89
11.46
6.40
1.08
-5.04
-12.06
-19.57
-26.78
-32.98
-37.81
-41.46
-44.56
-47.97
-52.47
-58.50
-66.01
-74.18
-81.50
-85.93
-85.31
-77.97
-63.25
-41.82
-15.69
12.32
39.15
62.20
79.74
91.12
96.69
97.50
94.85
89.94
83.66
76.59
69.08
61.60
54.76
49.22
45.36
43.28
42.66
43.08
44.23
45.96
48.16
50.45
51.94
51.47
48.23
42.15
34.16
25.76
18.31
12.31
7.21
1.84
-4.83
-13.01
-21.90
-30.20
-36.79
-41.27
-44.50
-47.93
-53.17
-61.20
-71.83
-83.57
-93.93
-99.97
-99.52
-91.51
-76.34
-55.68
-31.68
-6.62
17.45
38.77
55.60
66.49
70.74
68.85
62.62
54.66
47.43
42.37
39.40
37.47
35.37
32.56
29.48
27.15
26.49
27.76
30.26
32.85
34.42
34.40
32.80
29.96
26.27
21.99
17.07
11.52
5.46
-0.75
-6.71
-12.18
-17.23
-22.16
-27.45
-33.40
-40.04
-46.98
-53.63
-59.44
-64.19
-68.07
-71.73
-76.14
-82.24
-90.45
-100.17
-109.55
-115.67
-115.32
-106.15
-87.69
-61.73
-32.02
-2.96
21.69
39.78
51.01
56.44
57.62
55.89
52.21
47.18
41.46
35.86
31.27
28.41
27.60
28.67
30.97
33.74
36.38
38.69
40.79
42.89
45.02
46.95
48.10
47.89
45.96
42.39
37.65
32.40
27.18
22.37
18.14
14.49
11.50
9.25
7.67
6.50
5.26
3.30
0.15
-4.36
-9.96
-16.05
-21.82
-26.65
-30.28
-32.92
-35.24
-38.19
-42.69
-49.22
-57.39
-65.74
-71.97
-73.43
-67.98
-54.80
-34.78
-10.24
15.72
40.10
60.64
75.99
85.70
89.92
89.21
84.52
77.17
68.62
60.21
52.88
46.96
42.33
38.65
35.68
33.47
32.26
32.21
33.24
34.89
36.39
36.90
35.91
33.34
29.64
25.46
21.31
17.36
13.45
9.17
4.19
-1.49
-7.59
-13.64
-19.21
-24.11
-28.44
-32.48
-36.60
-41.11
-46.11
-51.51
-56.99
-62.11
-66.49
-69.87
-72.30
-74.14
-76.01
-78.73
-83.09
-89.56
-97.83
-106.54
-113.19
-114.73
-108.51
-93.35
-70.23
-42.21
-13.49
11.96
31.46
44.19
50.80
52.66
51.09
46.97
40.78
33.13
24.85
17.10
11.02
7.27
5.80
5.95
6.72
7.32
7.47
7.38
7.44
7.84
8.29
8.06
6.36
2.74
-2.64
-9.00
-15.29
-20.61
-24.57
-27.50
-30.28
-33.86
-38.87
-45.23
-52.16
-58.51
-63.32
-66.13
-67.23
-67.48
-67.89
-69.44
-72.77
-78.08
-84.86
-91.79
-96.77
-97.36
-91.55
-78.44
-58.86
-35.19
-10.69
11.45
28.97
40.92
47.52
49.80
49.06
46.44
42.76
38.55
34.12
29.84
26.11
23.44
22.15
22.27
23.46
25.20
27.06
28.89
30.89
33.33
36.41
39.85
43.07
45.37
46.22
45.50
43.37
40.30
36.71
32.96
29.17
25.34
21.38
17.15
12.52
7.41
1.84
-4.11
-10.15
-15.92
-21.10
-25.43
-28.94
-32.04
-35.52
-40.39
-47.60
-57.44
-69.22
-81.08
-90.16
-93.63
-89.35
-76.78
-57.06
-32.66
-6.59
18.25
39.76
56.65
68.40
75.13
77.40
76.14
72.54
67.77
62.77
58.14
54.25
51.32
49.54
49.14
50.12
52.27
55.15
58.11
60.58
62.16
62.65
62.09
60.58
58.10
54.62
50.04
44.29
37.49
29.94
22.12
14.59
7.67
1.38
-4.67
-10.98
-17.97
-25.66
-33.63
-41.20
-47.61
-52.53
-56.11
-59.02
-62.30
-67.06
-74.08
-83.41
-94.09
-103.96
-110.09
-109.49
-100.15
-81.79
-56.15
-26.37
3.82
31.25
53.91
71.04
82.82
89.84
92.77
92.32
89.30
84.72
79.65
75.05
71.47
69.01
67.37
66.14
65.11
64.24
63.81
64.05
65.00
66.37
67.64
68.26
67.76
65.93
62.68
58.07
52.21
45.27
37.52
29.35
21.20
13.42
6.22
-0.50
-6.97
-13.56
-20.53
-27.90
-35.43
-42.66
-49.11
-54.46
-58.79
-62.60
-66.79
-72.39
-80.13
-90.11
-101.34
-111.65
-118.13
-117.82
-108.65
-90.15
-63.75
-32.26
0.73
31.80
58.33
78.72
92.36
99.44
100.74
97.46
91.16
83.36
75.41
68.33
62.60
58.38
55.54
53.90
53.30
53.65
54.82
56.63
58.69
60.51
61.47
61.06
58.89
54.84
49.03
41.87
33.93
25.86
18.25
11.41
5.23
-0.73
-7.14
-14.43
-22.57
-30.97
-38.66
-44.81
-49.13
-52.17
-55.22
-59.91
-67.48
-78.10
-90.41
-101.53
-107.97
-106.61
-95.95
-76.74
-51.64
-24.35
1.65
23.84
40.78
52.00
57.55
57.95
54.27
48.11
41.30
35.34
30.68
26.94
23.27
19.15
14.91
11.64
10.54
12.12
15.67
19.66
22.40
22.88
21.20
18.22
14.95
11.91
8.62
4.14
-2.26
-10.54
-19.77
-28.67
-36.36
-42.71
-48.69
-55.35
-63.21
-71.77
-79.71
-85.77
-89.75
-92.81
-97.17
-104.59
-114.95
-125.56
-131.75
-128.76
-113.78
-87.25
-53.03
-16.73
16.24
42.45
60.99
72.76
79.39
82.29
82.16
79.34
74.36
68.18
62.10
57.32
54.46
53.55
53.90
54.69
55.22
55.19
54.78
54.32
54.14
54.25
54.21
53.26
50.48
45.26
37.60
28.24
18.41
9.46
2.18
-3.50
-8.49
-14.09
-21.23
-30.07
-39.83
-49.12
-56.60
-61.58
-64.37
-66.14
-68.54
-73.16
-80.97
-91.81
-104.23
-115.50
-122.20
-121.16
-110.45
-90.16
-62.54
-31.31
-0.65
25.96
46.43
60.12
67.47
69.55
67.64
63.08
57.21
51.27
46.29
42.82
40.88
40.04
39.65
39.22
38.51
37.60
36.75
36.23
36.16
36.51
37.11
37.62
37.62
36.59
34.01
29.57
23.32
15.82
7.95
0.70
-5.37
-10.27
-14.66
-19.50
-25.55
-33.06
-41.57
-50.08
-57.46
-63.01
-66.61
-68.88
-70.87
-73.85
-78.88
-86.37
-95.78
-105.37
-112.38
-113.58
-106.25
-89.24
-63.49
-31.96
1.16
31.68
56.42
73.81
83.90
87.80
87.14
83.56
78.47
72.92
67.62
62.93
58.97
55.72
53.10
51.07
49.57
48.51
47.75
47.12
46.42
45.58
44.56
43.33
41.76
39.60
36.41
31.83
25.72
18.28
10.10
1.98
-5.37
-11.59
-16.85
-21.74
-27.03
-33.28
-40.55
-48.33
-55.74
-61.97
-66.59
-69.74
-72.16
-74.82
-78.72
-84.57
-92.63
-102.46
-112.74
-121.15
-124.68
-120.45
-106.66
-83.43
-53.10
-19.61
12.62
39.89
60.17
73.10
79.64
81.36
79.76
75.99
70.90
65.18
59.48
54.47
50.67
48.29
47.20
46.91
46.78
46.38
45.67
44.94
44.65
44.95
45.49
45.44
43.78
39.78
33.35
25.14
16.20
7.71
0.29
-6.17
-12.40
-19.42
-27.93
-37.87
-48.40
-58.15
-65.79
-70.70
-73.19
-74.36
-75.76
-78.87
-84.65
-93.12
-103.22
-112.65
-118.32
-117.03
-106.50
-86.34
-58.36
-26.23
5.61
33.26
54.24
67.79
74.60
76.13
74.01
69.71
64.37
58.84
53.74
49.46
46.19
43.93
42.45
41.28
39.96
38.18
35.99
33.87
32.40
31.89
32.13
32.31
31.34
28.38
23.18
16.25
8.56
1.03
-5.77
-11.89
-17.83
-24.23
-31.48
-39.45
-47.51
-54.75
-60.35
-64.08
-66.44
-68.55
-71.88
-77.63
-86.31
-97.36
-108.80
-117.70
-120.59
-114.64
-98.57
-73.26
-41.65
-8.00
23.34
49.10
67.67
79.16
84.81
86.35
85.45
83.29
80.58
77.54
74.24
70.67
67.02
63.61
60.77
58.57
56.87
55.34
53.65
51.78
49.88
48.21
46.88
45.49
43.33
39.58
33.79
26.04
17.07
7.91
-0.48
-7.66
-13.83
-19.64
-25.88
-33.03
-41.12
-49.60
-57.64
-64.45
-69.51
-72.82
-74.86
-76.55
-79.07
-83.71
-91.29
-101.80
-113.92
-124.75
-130.44
-127.30
-113.18
-88.49
-56.28
-21.29
11.61
38.85
58.92
72.11
79.80
83.50
84.41
83.36
81.05
78.24
75.63
73.71
72.46
71.47
70.13
68.02
65.17
62.16
59.76
58.48
58.34
58.68
58.50
56.87
53.35
48.23
42.24
36.23
30.73
25.77
20.94
15.66
9.53
2.57
-4.77
-11.85
-18.14
-23.46
-28.10
-32.64
-37.63
-43.30
-49.49
-55.69
-61.35
-66.04
-69.69
-72.52
-75.02
-77.85
-81.78
-87.67
-96.03
-106.49
-117.27
-125.20
-126.33
-117.37
-97.04
-66.85
-30.93
5.37
37.16
61.46
77.63
86.85
91.15
92.32
91.48
89.13
85.55
81.17
76.71
72.83
70.00
68.21
67.03
65.90
64.50
62.98
61.83
61.44
61.87
62.50
62.34
60.41
56.29
50.27
43.20
36.00
29.24
23.04
17.03
10.80
4.05
-3.19
-10.56
-17.51
-23.49
-28.04
-31.08
-32.93
-34.27
-35.94
-38.57
-42.48
-47.51
-53.14
-58.74
-63.79
-67.99
-71.34
-74.29
-77.90
-83.52
-92.31
-104.31
-117.69
-128.72
-132.69
-125.60
-106.15
-76.23
-40.42
-4.34
27.46
52.56
70.66
82.61
89.14
90.50
86.91
79.21
69.32
59.81
52.91
49.62
49.10
49.49
48.99
46.89
43.89
41.42
40.72
42.00
44.08
45.29
44.19
40.40
34.64
28.19
22.06
16.67
11.52
5.92
-0.50
-7.49
-14.30
-20.18
-24.87
-28.73
-32.70
-37.66
-44.02
-51.42
-58.92
-65.50
-70.51
-73.88
-76.33
-79.03
-83.35
-90.29
-100.08
-111.69
-122.64
-129.34
-128.05
-116.12
-93.15
-61.44
-25.38
9.89
40.03
62.65
77.44
85.62
88.91
88.77
86.24
82.01
76.79
71.47
66.91
63.75
62.08
61.46
61.23
60.80
59.95
58.89
57.98
57.52
57.37
57.06
55.90
53.33
49.15
43.54
36.96
29.89
22.62
15.27
7.93
0.79
-5.83
-11.59
-16.38
-20.45
-24.45
-29.09
-34.82
-41.60
-48.81
-55.55
-61.13
-65.28
-68.36
-71.17
-74.76
-80.15
-88.01
-98.13
-109.13
-118.36
-122.31
-117.65
-102.48
-77.33
-45.19
-10.62
21.74
48.44
67.88
80.12
86.20
87.39
84.92
79.95
73.65
67.19
61.52
57.18
54.22
52.30
50.92
49.71
48.56
47.47
46.57
45.89
45.37
44.79
43.88
42.41
40.21
37.18
33.24
28.29
22.31
15.38
7.80
0.12
-7.12
-13.47
-18.91
-23.80
-28.74
-34.37
-40.99
-48.32
-55.73
-62.37
-67.68
-71.49
-74.21
-76.63
-79.72
-84.35
-91.13
-100.09
-110.39
-120.05
-126.05
-125.04
-114.46
-93.54
-63.95
-29.41
5.36
36.08
60.03
76.32
85.63
89.44
89.29
86.49
82.01
76.61
71.00
65.74
61.28
57.84
55.34
53.54
52.10
50.78
49.60
48.77
48.55
49.06
50.05
50.87
50.72
48.90
45.13
39.65
33.13
26.41
20.11
14.47
9.29
4.13
-1.34
-7.23
-13.23
-18.75
-23.20
-26.35
-28.46
-30.23
-32.54
-36.00
-40.64
-45.87
-50.77
-54.48
-56.68
-57.72
-58.51
-60.25
-64.05
-70.52
-79.50
-89.78
-99.07
-104.29
-102.28
-90.82
-69.59
-40.40
-6.89
26.54
55.98
78.86
94.26
102.61
104.98
102.60
96.60
87.98
77.75
67.10
57.19
49.06
43.35
40.23
39.33
39.97
41.32
42.72
43.82
44.63
45.25
45.75
45.85
44.90
42.13
36.86
28.94
18.90
7.91
-2.64
-11.50
-18.17
-22.93
-26.73
-30.67
-35.57
-41.50
-47.99
-54.18
-59.27
-62.93
-65.28
-66.84
-68.36
-70.62
-74.41
-80.38
-88.56
-97.98
-106.38
-110.50
-107.09
-94.17
-71.97
-43.04
-11.49
18.41
43.49
62.25
74.64
81.49
83.67
81.95
77.12
70.16
62.42
55.34
49.95
46.67
45.21
44.88
45.02
45.43
46.27
47.99
50.77
54.31
57.86
60.40
61.10
59.68
56.42
52.01
47.06
41.94
36.54
30.55
23.70
15.99
7.73
-0.47
-8.13
-14.98
-21.08
-26.82
-32.75
-39.31
-46.72
-54.79
-63.01
-70.66
-77.12
-82.12
-86.00
-89.68
-94.54
-101.87
-112.25
-124.76
-136.72
-144.09
-142.53
-129.14
-103.68
-68.91
-29.89
7.70
39.40
62.90
78.07
86.18
88.87
87.49
83.13
76.77
69.65
63.03
57.95
54.79
53.23
52.47
51.63
50.27
48.50
46.85
45.87
45.73
46.15
46.46
45.97
44.23
41.17
36.93
31.71
25.57
18.53
10.70
2.43
-5.70
-13.05
-19.29
-24.54
-29.41
-34.62
-40.69
-47.62
-54.81
-61.34
-66.37
-69.58
-71.34
-72.66
-74.81
-79.03
-86.01
-95.62
-106.57
-116.33
-121.50
-118.64
-105.43
-81.57
-49.28
-12.70
23.23
54.19
77.57
92.71
100.47
102.46
100.39
95.73
89.67
83.18
77.04
71.77
67.60
64.44
62.05
60.25
58.95
58.31
58.50
59.54
61.18
62.89
64.00
63.89
62.21
58.86
54.08
48.20
41.64
34.74
27.73
20.68
13.57
6.29
-1.20
-8.74
-16.00
-22.57
-28.19
-33.03
-37.65
-42.87
-49.32
-57.04
-65.32
-73.02
-79.01
-82.94
-85.39
-87.73
-91.62
-98.30
-108.09
-120.03
-131.78
-140.01
-141.09
-132.15
-112.02
-82.01
-45.66
-7.89
26.50
53.88
72.59
82.80
85.85
83.64
78.08
70.84
63.40
56.57
50.82
46.18
42.51
39.77
38.17
37.90
38.92
40.60
42.08
42.56
41.81
40.32
38.99
38.46
38.67
38.59
36.88
32.49
25.34
16.46
7.41
-0.45
-6.45
-11.11
-15.46
-20.42
-26.37
-32.92
-39.31
-45.02
-49.90
-54.40
-59.05
-64.01
-69.01
-73.44
-76.87
-79.50
-82.27
-86.59
-93.49
-102.64
-111.87
-117.40
-115.04
-101.83
-77.33
-44.23
-7.54
27.12
55.27
74.76
85.78
89.99
89.45
85.68
79.58
71.78
63.07
54.55
47.48
42.87
40.98
41.35
42.94
44.61
45.58
45.62
45.05
44.38
43.99
43.77
43.12
41.16
37.14
30.81
22.62
13.64
5.11
-2.09
-7.80
-12.66
-17.70
-23.86
-31.52
-40.27
-49.10
-56.79
-62.51
-66.12
-68.19
-69.85
-72.49
-77.35
-85.09
-95.41
-106.69
-116.07
-120.00
-115.28
-100.15
-75.15
-43.08
-8.32
24.53
51.83
71.60
83.61
88.76
88.58
84.67
78.55
71.49
64.60
58.66
54.11
51.04
49.19
48.18
47.66
47.36
47.24
47.30
47.60
48.00
48.23
47.90
46.58
44.02
40.16
35.22
29.48
23.29
16.91
10.54
4.26
-1.87
-7.81
-13.49
-18.76
-23.61
-28.04
-32.19
-36.32
-40.78
-45.82
-51.45
-57.38
-63.00
-67.74
-71.26
-73.75
-76.07
-79.54
-85.57
-94.82
-106.71
-118.91
-127.77
-129.25
-120.38
-100.38
-71.15
-36.70
-1.95
28.84
53.01
69.77
79.77
84.26
84.60
82.00
77.52
72.19
67.07
62.98
60.40
59.30
59.25
59.60
59.83
59.73
59.49
59.52
60.22
61.65
63.42
64.70
64.56
62.28
57.69
51.29
43.98
36.75
30.29
24.84
20.10
15.50
10.53
4.93
-1.14
-7.20
-12.69
-17.19
-20.68
-23.54
-26.37
-29.83
-34.34
-39.98
-46.46
-53.24
-59.70
-65.34
-69.88
-73.42
-76.44
-79.90
-85.01
-92.72
-103.01
-114.31
-123.51
-126.67
-120.44
-103.38
-76.67
-43.78
-9.32
22.48
48.82
68.59
81.91
89.50
92.10
90.46
85.52
78.61
71.37
65.33
61.45
59.85
59.79
60.16
60.02
59.03
57.60
56.59
56.77
58.34
60.78
62.95
63.64
62.11
58.28
52.73
46.35
39.95
33.94
28.30
22.73
16.94
10.87
4.68
-1.24
-6.54
-11.03
-14.76
-18.03
-21.31
-24.98
-29.35
-34.46
-40.12
-46.02
-51.78
-57.02
-61.52
-65.32
-68.86
-72.91
-78.51
-86.30
-96.07
-106.33
-114.28
-116.67
-110.73
-95.38
-71.67
-42.46
-11.48
17.64
42.36
61.30
74.09
81.03
82.76
80.16
74.40
66.87
58.97
51.86
46.25
42.33
39.93
38.70
38.28
38.40
39.00
39.93
41.10
42.31
43.22
43.42
42.53
40.15
36.12
30.45
23.50
15.86
8.19
1.00
-5.51
-11.68
-18.01
-24.93
-32.48
-40.24
-47.45
-53.44
-57.88
-61.08
-63.82
-67.23
-72.33
-79.67
-88.93
-98.62
-106.14
-108.41
-102.71
-87.78
-64.39
-35.29
-4.39
24.38
48.21
65.74
76.99
82.78
84.16
82.06
77.32
70.69
63.12
55.59
49.04
44.19
41.37
40.43
40.80
41.72
42.51
42.86
42.88
42.95
43.32
43.92
44.14
43.07
39.94
34.46
27.03
18.62
10.37
3.09
-3.00
-8.27
-13.44
-19.15
-25.67
-32.76
-39.87
-46.35
-51.78
-56.09
-59.50
-62.46
-65.38
-68.74
-73.11
-79.22
-87.55
-97.81
-108.48
-116.62
-118.64
-111.43
-93.74
-66.86
-34.39
-1.00
28.99
52.82
69.60
79.89
84.95
85.98
83.99
79.76
74.12
68.02
62.39
57.91
54.87
53.11
52.18
51.61
51.09
50.55
50.18
50.13
50.42
50.76
50.59
49.33
46.54
42.20
36.66
30.46
24.02
17.53
10.90
4.07
-2.86
-9.51
-15.38
-20.25
-24.31
-28.25
-32.88
-38.70
-45.56
-52.72
-59.13
-63.96
-67.05
-69.01
-71.15
-74.95
-81.56
-91.23
-102.88
-114.14
-121.68
-122.17
-113.29
-94.53
-67.47
-35.29
-1.95
28.60
53.44
70.99
81.06
84.77
84.03
80.98
77.31
73.80
70.38
66.63
62.33
57.83
54.10
52.02
52.05
53.75
56.15
58.22
59.37
59.56
59.12
58.37
57.28
55.13
51.18
44.97
36.75
27.60
18.86
11.58
6.06
1.47
-3.39
-9.35
-16.43
-23.66
-29.76
-34.00
-36.68
-39.17
-43.08
-49.26
-57.22
-65.33
-71.70
-75.25
-76.39
-77.27
-80.58
-88.24
-100.07
-113.38
-123.71
-126.32
-117.92
-98.07
-69.10
-35.20
-1.00
29.74
54.77
73.23
85.32
91.57
92.75
89.76
83.74
76.03
67.97
60.67
54.90
50.83
48.23
46.61
45.50
44.67
44.15
44.17
44.93
46.35
47.95
48.96
48.57
46.29
42.10
36.46
30.11
23.72
17.61
11.73
5.78
-0.53
-7.17
-13.84
-20.03
-25.39
-29.93
-34.05
-38.38
-43.35
-48.98
-54.83
-60.16
-64.44
-67.52
-69.80
-72.15
-75.66
-81.23
-89.19
-98.79
-108.08
-114.18
-113.97
-105.10
-86.98
-61.09
-30.65
0.42
28.56
51.33
67.69
77.63
81.77
80.99
76.34
69.11
60.73
52.65
45.98
41.27
38.41
36.85
35.94
35.22
34.66
34.51
35.03
36.21
37.61
38.37
37.63
34.83
29.93
23.41
16.03
8.56
1.50
-5.02
-11.24
-17.51
-24.13
-31.13
-38.23
-44.98
-50.84
-55.48
-58.88
-61.39
-63.69
-66.70
-71.31
-78.05
-86.61
-95.50
-102.05
-102.97
-95.50
-78.54
-53.32
-23.16
7.57
34.81
55.94
70.19
78.20
81.32
80.83
77.62
72.35
65.63
58.29
51.31
45.65
41.90
40.07
39.61
39.72
39.68
39.17
38.40
37.87
38.01
38.81
39.67
39.65
37.84
33.80
27.73
20.36
12.62
5.23
-1.49
-7.57
-13.27
-18.85
-24.48
-30.27
-36.24
-42.40
-48.68
-54.82
-60.48
-65.30
-69.11
-72.13
-75.06
-78.91
-84.80
-93.25
-103.67
-114.00
-121.02
-121.24
-112.07
-92.98
-65.74
-33.98
-1.97
26.66
49.75
66.63
77.72
83.87
85.94
84.80
81.37
76.74
72.02
68.10
65.38
63.70
62.55
61.37
59.85
58.11
56.52
55.57
55.48
56.05
56.66
56.46
54.71
51.17
46.09
40.08
33.86
27.79
21.89
15.82
9.28
2.27
-4.79
-11.31
-16.82
-21.27
-25.20
-29.40
-34.53
-40.78
-47.66
-54.37
-60.07
-64.41
-67.60
-70.37
-73.73
-78.62
-85.69
-94.97
-105.60
-115.60
-122.15
-122.10
-113.06
-94.21
-66.93
-34.42
-0.82
29.91
54.98
73.14
84.40
89.70
90.30
87.61
82.98
77.66
72.68
68.72
65.99
64.28
63.11
62.02
60.77
59.44
58.42
58.07
58.57
59.72
60.88
61.22
59.96
56.64
51.35
44.65
37.35
30.25
23.76
17.81
12.00
5.87
-0.71
-7.37
-13.52
-18.49
-22.14
-24.85
-27.48
-30.88
-35.45
-41.00
-46.90
-52.40
-57.04
-60.79
-64.06
-67.50
-71.76
-77.48
-85.16
-94.76
-105.38
-114.88
-120.10
-117.68
-105.27
-82.53
-51.75
-17.06
16.74
45.66
67.46
81.67
89.08
91.08
89.00
84.08
77.44
70.17
63.26
57.40
52.89
49.67
47.49
46.07
45.31
45.14
45.52
46.21
46.82
46.95
46.20
44.40
41.57
37.87
33.38
28.04
21.70
14.36
6.31
-1.84
-9.25
-15.25
-19.57
-22.52
-24.86
-27.47
-31.07
-35.88
-41.65
-47.74
-53.48
-58.39
-62.32
-65.55
-68.60
-72.26
-77.26
-84.16
-93.01
-102.95
-112.08
-117.49
-116.09
-105.45
-85.02
-56.48
-23.51
9.33
37.89
59.48
73.33
80.16
81.51
78.96
73.73
66.70
58.57
50.16
42.35
36.01
31.79
29.85
29.86
31.12
32.84
34.35
35.42
36.10
36.58
36.95
36.96
36.05
33.55
28.99
22.31
14.08
5.28
-3.07
-10.22
-15.97
-20.66
-25.00
-29.64
-34.98
-40.98
-47.22
-53.18
-58.38
-62.65
-66.12
-69.24
-72.63
-76.97
-82.90
-90.73
-100.20
-109.98
-117.76
-120.48
-115.25
-100.44
-76.46
-45.89
-12.75
18.72
45.27
65.25
78.58
86.12
89.00
88.24
84.61
78.92
72.13
65.33
59.58
55.60
53.63
53.22
53.53
53.58
52.76
51.03
49.09
47.80
47.76
48.80
49.80
49.31
46.10
39.86
31.34
21.70
12.11
3.19
-5.04
-12.74
-19.97
-26.53
-32.20
-37.25
-42.27
-47.90
-54.33
-60.99
-66.84
-70.98
-73.37
-75.31
-78.83
-85.71
-96.27
-108.69
-119.27
-123.67
-118.46
-102.75
-78.23
-48.52
-17.69
11.13
36.27
57.19
73.74
85.20
90.71
89.89
83.69
74.57
65.68
59.56
57.14
57.29
57.83
56.82
53.70
49.53
46.28
45.59
47.89
52.01
55.94
57.80
56.70
53.00
47.83
42.42
37.49
32.94
28.19
22.64
16.09
8.86
1.55
-5.17
-10.87
-15.56
-19.64
-23.62
-28.09
-33.37
-39.49
-46.15
-52.81
-58.87
-63.91
-67.85
-71.03
-74.16
-78.20
-84.08
-92.37
-102.85
-114.12
-123.63
-128.17
-124.74
-111.58
-88.91
-58.91
-25.19
8.27
38.01
61.78
78.59
88.54
92.46
91.63
87.57
81.79
75.59
69.92
65.25
61.60
58.71
56.27
54.05
52.05
50.45
49.49
49.25
49.56
50.00
50.00
49.08
46.92
43.49
38.97
33.66
27.92
22.06
16.42
11.10
6.11
1.28
-3.59
-8.62
-13.68
-18.50
-22.72
-26.15
-28.94
-31.59
-34.76
-38.99
-44.47
-50.87
-57.46
-63.44
-68.30
-72.09
-75.56
-79.89
-86.30
-95.26
-105.99
-116.31
-122.99
-122.70
-113.17
-93.91
-66.49
-34.08
-0.37
31.26
58.31
79.34
93.73
101.61
103.56
100.73
94.65
87.04
79.40
72.69
67.35
63.38
60.62
58.95
58.38
58.88
60.24
61.98
63.48
64.30
64.15
63.05
61.18
58.60
55.15
50.50
44.34
36.63
27.77
18.55
9.81
2.23
-4.09
-9.59
-15.06
-21.16
-28.20
-35.85
-43.37
-49.92
-54.93
-58.39
-60.84
-63.13
-66.23
-70.97
-77.73
-86.32
-95.66
-103.73
-107.91
-105.51
-94.78
-75.48
-49.23
-19.08
11.28
38.52
60.37
75.76
84.76
88.10
86.88
82.29
75.59
67.93
60.29
53.46
47.86
43.64
40.69
38.78
37.60
36.94
36.65
36.70
37.08
37.66
38.14
38.00
36.61
33.41
28.16
21.13
12.99
4.72
-2.83
-9.27
-14.84
-20.29
-26.46
-33.86
-42.32
-50.97
-58.60
-64.23
-67.60
-69.31
-70.74
-73.54
-79.03
-87.73
-98.86
-110.28
-118.90
-121.30
-114.81
-98.42
-73.23
-42.23
-9.43
21.21
46.73
65.56
77.45
83.06
83.49
80.01
73.91
66.40
58.49
50.92
44.15
38.42
33.96
31.00
29.74
30.28
32.31
35.25
38.21
40.41
41.27
40.56
38.26
34.43
29.16
22.53
14.83
6.50
-1.87
-9.72
-16.74
-22.97
-28.67
-34.18
-39.79
-45.63
-51.77
-58.21
-64.86
-71.53
-77.87
-83.41
-87.76
-90.85
-93.03
-95.07
-98.07
-103.00
-110.31
-119.32
-127.94
-132.92
-130.78
-118.87
-96.62
-65.91
-30.56
4.84
36.35
61.60
79.75
91.20
96.75
97.24
93.58
86.91
78.73
70.65
64.00
59.37
56.63
55.09
53.91
52.53
50.86
49.20
47.88
47.22
47.09
47.17
46.85
45.54
42.80
38.49
32.68
25.73
18.12
10.36
2.91
-4.03
-10.53
-16.85
-23.37
-30.34
-37.74
-45.20
-52.23
-58.35
-63.35
-67.34
-70.71
-74.03
-77.94
-82.99
-89.61
-97.79
-106.64
-114.16
-117.55
-113.88
-101.25
-79.58
-50.94
-18.99
12.16
39.20
60.23
74.87
83.82
88.18
89.03
87.21
83.42
78.34
72.75
67.41
62.98
59.81
57.84
56.74
56.01
55.34
54.69
54.32
54.54
55.43
56.64
57.44
57.05
54.93
51.07
45.98
40.52
35.36
30.74
26.32
21.40
15.38
8.13
0.18
-7.55
-14.12
-19.08
-22.66
-25.60
-28.84
-32.94
-37.89
-43.22
-48.22
-52.38
-55.63
-58.27
-60.95
-64.42
-69.43
-76.53
-85.81
-96.48
-106.65
-113.47
-113.77
-105.11
-86.73
-60.09
-28.56
3.60
32.49
55.53
71.77
81.56
86.02
86.40
83.85
79.40
73.93
68.35
63.40
59.57
57.04
55.60
54.84
54.31
53.74
53.03
52.27
51.66
51.27
50.97
50.31
48.74
45.81
41.38
35.71
29.35
22.88
16.64
10.58
4.41
-2.17
-9.14
-16.02
-22.18
-27.10
-30.75
-33.70
-36.87
-41.04
-46.46
-52.78
-59.12
-64.51
-68.43
-70.97
-72.91
-75.45
-79.81
-86.65
-95.69
-105.42
-113.57
-117.40
-114.54
-103.64
-84.64
-58.94
-29.07
1.74
29.96
52.61
67.85
75.36
76.47
73.56
69.05
64.60
60.54
56.37
51.42
45.69
40.13
36.16
34.81
36.16
38.96
41.48
42.41
41.53
39.69
38.11
37.42
37.23
36.15
32.78
26.62
18.41
9.82
2.50
-2.84
-6.63
-10.29
-15.19
-21.90
-29.86
-37.77
-44.21
-48.44
-50.63
-51.95
-54.03
-58.35
-65.62
-75.18
-85.05
-92.23
-93.48
-86.60
-71.02
-48.27
-21.44
5.81
30.34
50.13
64.56
73.90
78.81
79.96
77.93
73.37
67.09
60.15
53.67
48.56
45.32
43.79
43.40
43.33
42.98
42.15
41.13
40.46
40.51
41.17
41.76
41.35
39.07
34.56
28.13
20.55
12.79
5.59
-0.68
-6.11
-11.09
-16.14
-21.70
-27.94
-34.81
-41.96
-48.91
-55.11
-60.21
-64.07
-66.86
-69.12
-71.67
-75.52
-81.56
-90.01
-99.92
-108.97
-113.78
-111.00
-98.48
-76.35
-47.14
-14.98
15.70
41.54
60.91
73.84
81.27
84.36
84.07
81.10
76.13
70.01
63.75
58.24
54.05
51.22
49.44
48.22
47.12
45.95
44.80
43.86
43.28
43.01
42.80
42.27
40.95
38.54
34.87
30.08
24.44
18.32
12.09
6.06
0.42
-4.79
-9.58
-14.14
-18.70
-23.58
-29.01
-35.02
-41.33
-47.49
-52.94
-57.34
-60.77
-63.81
-67.49
-72.91
-80.85
-91.19
-102.58
-112.33
-117.06
-113.71
-100.59
-78.19
-49.19
-17.60
12.47
37.88
57.09
69.95
77.12
79.57
78.27
74.28
68.82
63.25
58.75
55.96
54.85
54.81
55.10
55.20
55.12
55.20
55.86
57.12
58.59
59.55
59.28
57.40
54.08
49.80
45.10
40.30
35.35
30.00
23.95
17.15
9.89
2.64
-4.11
-10.02
-15.13
-19.69
-24.16
-28.94
-34.25
-40.04
-45.97
-51.65
-56.74
-61.12
-64.89
-68.31
-71.78
-75.87
-81.22
-88.25
-96.65
-105.00
-110.60
-110.19
-100.91
-81.68
-53.85
-21.09
11.85
40.61
62.41
76.55
83.94
86.22
84.99
81.38
76.08
69.76
63.14
57.09
52.32
49.15
47.41
46.56
46.03
45.51
45.06
44.97
45.49
46.50
47.47
47.63
46.34
43.32
38.76
33.19
27.17
21.06
14.91
8.62
2.07
-4.59
-11.03
-16.88
-21.88
-26.09
-29.99
-34.11
-38.93
-44.55
-50.54
-56.11
-60.55
-63.46
-65.14
-66.50
-68.74
-73.00
-79.96
-89.30
-99.62
-108.36
-112.31
-108.48
-95.02
-72.06
-42.02
-8.95
22.59
48.78
67.52
78.56
82.92
82.20
77.90
71.16
62.85
53.87
45.20
37.75
32.27
28.98
27.54
27.27
27.32
27.12
26.57
26.01
25.99
26.83
28.20
29.16
28.38
24.83
18.38
9.90
1.03
-6.56
-12.06
-15.76
-18.90
-22.99
-29.01
-36.85
-45.42
-53.21
-59.08
-62.69
-64.65
-66.18
-68.63
-73.13
-80.22
-89.60
-99.97
-108.93
-113.26
-109.71
-96.20
-72.83
-42.10
-8.39
23.49
49.79
68.66
80.20
85.66
86.47
83.65
77.92
69.92
60.73
51.85
44.75
40.36
38.67
38.76
39.47
39.86
39.63
39.22
39.32
40.35
42.10
43.64
43.73
41.28
35.86
27.93
18.58
9.21
0.89
-5.89
-11.38
-16.29
-21.45
-27.46
-34.42
-42.01
-49.60
-56.47
-62.09
-66.27
-69.17
-71.36
-73.69
-77.27
-83.11
-91.68
-102.24
-112.59
-119.23
-118.25
-106.75
-84.18
-52.79
-17.13
17.45
46.51
67.61
80.60
86.85
88.24
86.31
82.05
76.07
69.03
61.81
55.39
50.56
47.60
46.08
45.21
44.21
42.63
40.63
38.74
37.59
37.46
38.11
38.82
38.67
36.87
33.08
27.35
20.17
12.19
4.09
-3.60
-10.57
-16.71
-22.15
-27.16
-32.11
-37.29
-42.88
-48.78
-54.63
-59.92
-64.14
-67.09
-69.04
-70.78
-73.51
-78.47
-86.44
-97.15
-108.85
-118.41
-122.05
-116.47
-100.16
-74.07
-41.49
-7.05
24.74
50.61
69.06
80.15
84.92
84.84
81.39
75.97
69.95
64.47
60.28
57.65
56.29
55.72
55.47
55.32
55.29
55.45
55.86
56.48
57.17
57.74
57.94
57.38
55.72
52.50
47.60
41.24
34.08
26.99
20.76
15.73
11.58
7.39
2.15
-4.60
-12.46
-20.13
-26.10
-29.44
-30.37
-30.60
-32.27
-36.98
-44.74
-53.93
-62.03
-67.08
-68.62
-68.09
-68.00
-70.70
-77.43
-87.82
-100.23
-112.19
-120.92
-123.91
-119.06
-105.18
-82.38
-52.40
-18.47
15.37
45.22
68.17
82.88
89.68
90.08
86.26
80.36
74.08
68.57
64.19
60.87
58.23
56.00
53.98
52.24
50.85
49.97
49.57
49.53
49.67
49.70
49.39
48.45
46.73
44.17
40.74
36.45
31.30
25.30
18.59
11.46
4.38
-2.06
-7.48
-11.90
-15.80
-20.04
-25.37
-32.14
-40.00
-48.03
-55.18
-60.65
-64.29
-66.51
-68.23
-70.49
-74.27
-80.21
-88.33
-97.75
-106.43
-111.40
-109.42
-98.20
-77.34
-48.78
-16.37
15.29
42.24
62.08
74.24
79.60
79.72
76.21
70.46
63.53
56.29
49.50
43.69
39.13
35.84
33.62
32.20
31.35
30.99
31.17
32.01
33.40
34.99
36.23
36.33
34.61
30.67
24.61
17.02
8.78
0.79
-6.45
-12.90
-19.05
-25.56
-32.86
-40.87
-48.98
-56.30
-62.04
-65.91
-68.24
-70.06
-72.73
-77.54
-85.16
-94.97
-104.78
-111.14
-110.32
-99.65
-78.71
-49.63
-16.59
15.57
42.92
63.29
76.40
83.21
85.15
83.50
79.26
73.25
66.40
59.73
54.18
50.34
48.26
47.53
47.41
47.24
46.65
45.72
44.83
44.39
44.53
44.97
45.05
43.92
40.99
36.07
29.40
21.56
13.14
4.72
-3.31
-10.63
-17.08
-22.63
-27.54
-32.33
-37.57
-43.66
-50.52
-57.56
-63.87
-68.70
-71.77
-73.60
-75.35
-78.54
-84.46
-93.60
-105.07
-116.50
-124.36
-124.91
-115.47
-95.48
-66.85
-33.46
0.10
29.88
53.50
70.23
80.62
85.74
86.76
84.79
80.98
76.54
72.54
69.62
67.80
66.59
65.25
63.29
60.72
57.97
55.67
54.19
53.46
53.00
52.19
50.53
47.89
44.42
40.40
36.02
31.26
25.92
19.83
12.97
5.57
-1.91
-8.94
-15.17
-20.52
-25.22
-29.78
-34.72
-40.34
-46.64
-53.29
-59.80
-65.76
-70.95
-75.49
-79.71
-84.18
-89.62
-96.71
-105.78
-116.30
-126.45
-133.19
-132.91
-122.77
-101.89
-72.01
-37.17
-2.32
28.16
51.68
67.71
77.27
81.96
83.29
82.30
79.75
76.34
72.75
69.61
67.32
65.95
65.25
64.83
64.35
63.63
62.83
62.27
62.30
62.98
63.96
64.42
63.48
60.45
55.16
48.14
40.29
32.51
25.29
18.62
12.20
5.82
-0.51
-6.41
-11.47
-15.54
-18.92
-22.29
-26.29
-31.20
-36.80
-42.52
-47.79
-52.30
-56.21
-59.93
-64.01
-68.98
-75.46
-83.94
-94.63
-106.81
-118.44
-126.24
-126.41
-116.04
-94.56
-64.10
-29.20
4.85
33.62
54.75
68.11
75.20
77.97
78.01
76.25
73.14
69.04
64.52
60.30
57.08
55.21
54.61
54.83
55.26
55.42
55.11
54.41
53.56
52.75
51.99
51.00
49.30
46.37
41.76
35.37
27.59
19.11
10.87
3.65
-2.16
-6.70
-10.60
-14.73
-19.75
-25.98
-33.14
-40.47
-47.03
-52.08
-55.29
-56.96
-57.80
-58.75
-60.78
-64.65
-70.75
-78.94
-88.24
-96.65
-101.37
-99.41
-88.62
-68.67
-41.54
-10.89
18.93
44.23
62.92
74.65
80.38
81.63
79.79
75.87
70.65
64.80
59.08
54.25
50.98
49.60
50.06
51.86
54.23
56.40
57.84
58.40
58.27
57.74
56.89
55.40
52.71
48.26
41.94
34.26
26.29
19.21
13.76
9.85
6.66
3.01
-2.04
-8.71
-16.35
-23.78
-29.82
-33.86
-36.16
-37.74
-39.87
-43.59
-49.15
-55.99
-62.99
-69.06
-73.51
-76.43
-78.49
-80.70
-84.10
-89.52
-97.43
-107.60
-118.73
-128.19
-132.37
-127.69
-111.86
-85.11
-50.47
-12.97
21.96
50.17
69.79
81.15
86.03
86.58
84.42
80.58
75.58
69.89
64.14
59.14
55.73
54.28
54.64
56.00
57.31
57.77
57.17
56.05
55.23
55.15
55.56
55.42
53.50
49.13
42.65
35.23
28.32
22.78
18.58
14.87
10.61
5.21
-1.14
-7.66
-13.39
-17.80
-20.82
-22.84
-24.47
-26.20
-28.37
-31.20
-34.81
-39.48
-45.33
-52.21
-59.53
-66.30
-71.49
-74.65
-76.34
-78.43
-83.15
-91.99
-104.44
-117.34
-125.65
-124.34
-110.49
-84.83
-51.44
-16.19
15.71
41.25
59.99
73.11
82.03
87.14
88.12
84.72
77.69
69.02
61.25
56.31
54.75
55.50
56.67
56.65
54.93
52.21
49.89
49.19
50.55
53.28
55.98
57.11
55.70
51.61
45.51
38.53
31.77
25.82
20.69
15.84
10.56
4.39
-2.61
-9.86
-16.43
-21.61
-25.18
-27.61
-29.87
-32.99
-37.63
-43.74
-50.54
-56.92
-61.89
-65.04
-66.75
-68.05
-70.29
-74.69
-81.92
-91.81
-103.08
-113.35
-119.48
-118.30
-107.56
-86.83
-57.91
-24.49
8.96
38.33
60.92
75.77
83.47
85.48
83.51
79.15
73.68
68.09
63.08
59.06
56.11
54.11
52.82
51.93
51.19
50.47
49.82
49.40
49.36
49.73
50.28
50.48
49.62
47.12
42.77
36.92
30.28
23.75
17.97
13.06
8.60
3.85
-1.74
-8.23
-15.10
-21.41
-26.22
-29.17
-30.67
-31.82
-33.86
-37.58
-43.02
-49.41
-55.59
-60.56
-64.00
-66.30
-68.41
-71.46
-76.43
-83.86
-93.52
-104.19
-113.52
-118.46
-115.87
-103.64
-81.67
-52.09
-18.82
13.65
41.47
62.33
75.64
82.18
83.33
80.53
75.02
67.83
59.94
52.30
45.77
40.98
38.09
36.85
36.73
37.12
37.59
37.95
38.20
38.41
38.60
38.63
38.27
37.17
34.99
31.43
26.37
19.97
12.72
5.36
-1.38
-7.11
-11.94
-16.43
-21.31
-27.05
-33.61
-40.35
-46.32
-50.68
-53.14
-54.07
-54.48
-55.64
-58.69
-64.36
-72.68
-82.82
-93.01
-100.69
-102.98
-97.49
-83.14
-60.65
-32.50
-2.27
26.32
50.26
67.78
78.39
82.62
81.66
77.01
70.23
62.76
55.70
49.77
45.25
42.16
40.25
39.28
38.96
39.03
39.29
39.69
40.26
41.00
41.78
42.20
41.59
39.23
34.65
27.81
19.31
10.16
1.41
-6.25
-12.78
-18.78
-25.11
-32.36
-40.56
-49.07
-56.84
-62.98
-67.11
-69.54
-71.17
-73.20
-76.74
-82.51
-90.45
-99.45
-107.25
-110.80
-107.05
-94.11
-72.06
-43.21
-11.46
18.94
44.59
63.68
75.93
82.13
83.41
80.95
75.89
69.41
62.75
56.94
52.63
49.92
48.50
47.84
47.47
47.10
46.61
46.08
45.59
45.22
44.88
44.37
43.32
41.40
38.41
34.32
29.31
23.61
17.40
10.72
3.65
-3.67
-10.88
-17.51
-23.16
-27.69
-31.38
-34.84
-38.75
-43.59
-49.40
-55.75
-61.90
-67.08
-70.84
-73.34
-75.31
-78.00
-82.79
-90.66
-101.59
-114.02
-124.85
-130.16
-126.24
-111.14
-85.47
-52.48
-17.02
16.02
43.10
62.64
74.93
81.29
83.24
82.10
78.87
74.47
69.85
65.86
63.10
61.68
61.27
61.20
60.78
59.59
57.71
55.46
53.34
51.80
50.89
50.35
49.48
47.48
43.79
38.15
30.80
22.37
13.74
5.69
-1.33
-7.35
-12.74
-18.10
-23.91
-30.31
-37.03
-43.53
-49.22
-53.76
-57.09
-59.58
-61.84
-64.64
-68.77
-74.91
-83.33
-93.45
-103.51
-110.60
-111.37
-103.17
-85.12
-58.76
-27.74
3.37
30.51
51.20
64.92
72.61
75.85
76.15
74.56
71.78
68.42
65.09
62.45
60.95
60.63
61.04
61.50
61.29
60.12
58.18
56.07
54.41
53.49
53.04
52.22
50.13
46.14
40.25
33.17
25.92
19.40
14.08
9.75
5.78
1.51
-3.40
-8.69
-13.77
-18.03
-21.34
-24.07
-27.04
-31.04
-36.44
-42.92
-49.63
-55.60
-60.19
-63.41
-65.85
-68.54
-72.54
-78.69
-87.29
-97.86
-108.77
-117.35
-120.37
-114.96
-99.68
-75.27
-44.58
-11.85
18.62
43.60
61.49
72.30
77.08
77.31
74.48
69.87
64.51
59.22
54.61
51.08
48.82
47.76
47.56
47.63
47.35
46.25
44.34
42.03
39.91
38.51
37.87
37.50
36.44
33.75
28.82
21.77
13.43
5.08
-2.08
-7.38
-11.03
-14.01
-17.54
-22.41
-28.58
-35.13
-41.03
-45.58
-48.84
-51.48
-54.23
-57.61
-61.84
-67.06
-73.65
-81.76
-90.67
-98.23
-101.09
-95.74
-80.22
-55.32
-24.78
6.15
32.61
51.85
63.77
70.14
73.18
74.39
73.73
70.58
64.59
56.48
48.13
41.80
38.95
39.61
42.15
44.31
44.42
42.28
39.20
37.16
37.49
40.05
42.95
43.59
39.98
31.84
20.71
9.22
-0.27
-6.68
-10.73
-14.22
-19.04
-26.06
-34.78
-43.73
-51.32
-56.47
-59.21
-60.34
-61.05
-62.56
-65.82
-71.48
-79.69
-89.84
-100.22
-108.10
-110.23
-103.93
-88.20
-64.20
-35.10
-4.97
22.39
44.42
60.09
69.67
74.20
74.96
73.24
70.24
66.96
64.18
62.24
61.01
60.06
58.88
57.18
55.15
53.26
52.03
51.80
52.36
53.07
53.06
51.64
48.59
44.29
39.39
34.47
29.79
25.19
20.28
14.70
8.43
1.82
-4.55
-10.18
-14.83
-18.63
-22.04
-25.59
-29.67
-34.44
-39.74
-45.27
-50.71
-55.83
-60.56
-65.00
-69.35
-74.05
-79.72
-87.07
-96.35
-106.83
-116.43
-121.90
-119.75
-107.60
-85.29
-55.22
-21.70
10.37
37.06
56.29
68.01
73.55
74.79
73.38
70.52
66.98
63.22
59.71
56.93
55.19
54.48
54.44
54.45
54.06
53.11
51.84
50.78
50.28
50.34
50.51
50.12
48.57
45.58
41.28
36.09
30.51
24.81
19.09
13.25
7.18
0.88
-5.47
-11.57
-17.16
-22.19
-26.92
-31.74
-36.91
-42.43
-47.92
-52.79
-56.52
-58.98
-60.61
-62.41
-65.66
-71.50
-80.46
-91.80
-103.42
-112.05
-114.11
-106.93
-89.73
-64.11
-33.51
-2.21
26.08
48.92
65.47
76.04
81.49
82.83
80.97
76.94
71.84
66.88
62.99
60.58
59.48
59.02
58.50
57.48
55.99
54.41
53.17
52.52
52.34
52.21
51.57
50.07
47.52
43.92
39.44
34.24
28.58
22.73
17.04
11.73
6.91
2.44
-1.99
-6.65
-11.67
-16.82
-21.66
-25.68
-28.63
-30.77
-32.86
-35.83
-40.32
-46.29
-53.01
-59.33
-64.25
-67.44
-69.40
-71.32
-74.58
-80.29
-88.82
-99.47
-110.33
-118.47
-120.58
-113.95
-97.43
-72.11
-41.06
-8.46
21.64
46.35
64.35
75.63
80.96
81.36
77.89
71.73
64.12
56.39
49.67
44.67
41.59
40.22
40.13
40.83
41.90
42.97
43.81
44.26
44.26
43.82
42.89
41.41
39.14
35.76
31.02
24.86
17.59
9.86
2.49
-3.93
-9.19
-13.62
-17.94
-22.81
-28.52
-34.79
-40.94
-46.15
-49.99
-52.48
-54.06
-55.41
-57.19
-60.04
-64.55
-71.14
-79.60
-88.74
-96.22
-98.88
-93.83
-79.51
-56.54
-27.71
2.89
31.10
53.90
69.90
79.33
83.23
83.03
79.84
74.55
67.93
60.79
54.09
48.81
45.60
44.54
45.05
46.19
47.02
47.03
46.29
45.32
44.60
44.29
44.07
43.22
41.00
36.97
31.15
23.95
16.05
8.17
0.87
-5.51
-10.99
-15.88
-20.73
-26.02
-32.19
-39.27
-46.97
-54.65
-61.59
-67.26
-71.52
-74.61
-77.27
-80.40
-84.99
-91.72
-100.57
-110.49
-119.17
-123.30
-119.56
-105.75
-81.78
-50.07
-14.91
18.80
46.97
67.33
79.57
84.89
85.16
82.24
77.66
72.46
67.31
62.71
58.90
56.08
54.29
53.42
53.20
53.19
52.98
52.33
51.25
49.96
48.74
47.63
46.38
44.47
41.28
36.44
29.93
22.16
13.80
5.58
-1.98
-8.60
-14.25
-19.14
-23.55
-27.83
-32.23
-37.01
-42.18
-47.60
-52.99
-57.96
-62.18
-65.49
-68.00
-70.21
-73.04
-77.69
-85.13
-95.47
-107.31
-117.64
-122.41
-117.90
-102.23
-76.25
-43.48
-8.89
22.75
48.19
66.23
77.35
82.84
84.06
82.11
77.89
72.34
66.45
61.17
57.16
54.55
53.05
52.09
51.10
49.82
48.38
47.10
46.35
46.18
46.25
45.96
44.67
42.01
38.07
33.23
27.98
22.59
17.05
11.20
5.00
-1.30
-7.31
-12.73
-17.56
-22.22
-27.22
-32.83
-38.79
-44.44
-49.06
-52.43
-54.91
-57.30
-60.39
-64.67
-70.26
-77.18
-85.29
-94.18
-102.73
-108.75
-109.42
-102.09
-85.48
-60.54
-30.23
1.10
29.33
51.49
66.36
74.39
76.97
75.88
72.67
68.21
62.94
57.12
51.11
45.65
41.71
39.95
40.42
42.09
43.51
43.40
41.50
38.70
36.57
36.30
37.94
40.00
40.28
37.05
29.97
20.39
10.68
2.96
-1.88
-4.74
-7.48
-11.91
-18.71
-27.16
-35.62
-42.49
-46.99
-49.64
-51.60
-53.99
-57.23
-60.96
-64.57
-67.87
-71.33
-76.01
-82.49
-90.04
-96.22
-97.61
-91.03
-75.12
-50.94
-21.94
7.36
32.91
52.24
64.80
71.43
73.60
72.64
69.39
64.49
58.52
52.25
46.60
42.35
39.90
39.19
39.73
40.85
42.03
42.97
43.66
44.23
44.67
44.75
43.95
41.63
37.27
30.88
22.95
14.42
6.31
-0.71
-6.56
-11.71
-16.95
-22.90
-29.69
-36.89
-43.67
-49.18
-52.94
-55.07
-56.26
-57.67
-60.60
-66.04
-74.24
-84.23
-93.71
-99.57
-98.69
-89.02
-70.48
-45.10
-16.36
11.84
36.36
55.38
68.38
75.70
78.06
76.26
71.26
64.25
56.66
49.85
44.83
41.94
40.83
40.74
40.82
40.60
40.05
39.51
39.40
39.93
40.81
41.39
40.83
38.45
33.98
27.63
20.01
11.90
4.06
-3.03
-9.21
-14.65
-19.80
-25.24
-31.39
-38.42
-45.98
-53.40
-59.79
-64.40
-66.94
-67.74
-67.86
-68.79
-72.08
-78.70
-88.35
-99.15
-107.85
-110.68
-104.64
-88.67
-64.08
-34.20
-3.23
25.06
48.15
65.04
75.86
81.32
82.38
80.04
75.47
69.90
64.53
60.16
57.12
55.25
54.12
53.31
52.58
51.96
51.54
51.47
51.67
51.94
51.96
51.33
49.72
46.94
42.89
37.59
31.15
23.77
15.78
7.63
-0.19
-7.23
-13.21
-18.24
-22.77
-27.39
-32.60
-38.55
-44.86
-50.82
-55.67
-59.04
-61.14
-62.79
-65.04
-69.00
-75.39
-84.20
-94.50
-104.26
-110.63
-110.58
-101.85
-83.83
-57.99
-27.51
3.64
31.77
54.38
70.36
79.78
83.45
82.49
78.23
72.10
65.49
59.57
55.03
51.99
50.14
49.00
48.18
47.52
47.09
47.04
47.42
48.14
48.93
49.34
49.05
47.83
45.61
42.43
38.29
33.14
26.91
19.69
11.88
4.10
-2.98
-8.90
-13.62
-17.60
-21.54
-26.04
-31.32
-37.16
-43.02
-48.35
-52.78
-56.24
-58.93
-61.26
-63.70
-66.98
-71.83
-78.87
-87.99
-97.88
-105.86
-108.44
-102.42
-86.25
-60.96
-29.93
2.06
30.47
52.31
66.69
74.37
76.90
75.75
71.86
65.82
58.33
50.32
43.02
37.50
34.25
33.02
33.03
33.41
33.70
33.84
34.18
35.10
36.64
38.40
39.68
39.73
38.05
34.47
29.14
22.46
15.02
7.44
0.25
-6.11
-11.57
-16.39
-21.01
-26.02
-31.76
-38.14
-44.61
-50.32
-54.40
-56.56
-57.24
-57.58
-59.22
-63.54
-71.06
-80.99
-91.09
-98.25
-99.29
-92.01
-75.92
-52.49
-24.74
3.72
29.63
50.73
66.03
75.51
79.74
79.50
75.57
68.83
60.37
51.44
43.31
36.98
32.90
30.97
30.59
30.99
31.62
32.22
32.89
33.84
35.05
36.08
36.12
34.28
30.10
23.66
15.76
7.54
-0.04
-6.59
-12.44
-18.49
-25.52
-33.78
-42.75
-51.30
-58.16
-62.67
-65.00
-66.28
-68.07
-71.89
-78.57
-87.86
-98.18
-106.88
-110.75
-106.92
-93.83
-71.84
-43.31
-11.99
18.05
43.49
62.38
74.23
79.64
79.81
76.10
69.91
62.61
55.42
49.28
44.71
41.77
40.20
39.57
39.49
39.76
40.34
41.21
42.33
43.61
44.82
45.62
45.56
44.10
40.75
35.28
27.81
18.97
9.77
1.21
-6.02
-11.84
-16.85
-21.93
-27.83
-34.82
-42.52
-50.05
-56.40
-60.92
-63.51
-64.81
-65.96
-68.34
-73.14
-80.93
-91.23
-102.25
-111.08
-114.22
-108.75
-93.30
-68.72
-37.97
-5.29
25.02
49.73
67.23
77.51
81.60
81.02
77.39
72.14
66.48
61.32
57.19
54.25
52.42
51.42
51.03
51.03
51.30
51.68
51.98
51.96
51.47
50.53
49.20
47.45
45.08
41.64
36.67
30.00
21.96
13.41
5.42
-1.28
-6.57
-11.05
-15.67
-21.21
-27.86
-35.12
-42.12
-48.13
-52.86
-56.53
-59.65
-62.70
-65.94
-69.61
-74.07
-80.16
-88.48
-98.73
-109.01
-115.72
-114.70
-102.80
-79.53
-47.81
-12.90
19.44
45.06
62.57
73.10
78.88
81.82
82.35
80.05
74.52
66.39
57.61
50.72
47.60
48.55
51.85
54.85
55.31
52.63
48.07
43.97
42.36
43.78
46.83
48.97
47.89
42.63
33.98
23.92
14.55
7.22
1.90
-2.37
-6.86
-12.44
-19.29
-26.97
-34.74
-41.85
-47.87
-52.72
-56.51
-59.52
-62.06
-64.62
-67.80
-72.30
-78.79
-87.26
-96.62
-104.39
-107.13
-101.58
-85.94
-60.81
-29.37
3.68
33.59
56.92
72.31
80.25
82.35
80.35
75.71
69.42
62.22
54.87
48.11
42.63
38.90
37.03
36.78
37.64
39.03
40.38
41.42
42.02
42.27
42.21
41.80
40.82
38.94
35.81
31.19
25.12
17.86
9.94
1.97
-5.45
-11.91
-17.35
-22.09
-26.67
-31.70
-37.47
-43.84
-50.23
-55.97
-60.51
-63.76
-66.08
-68.06
-70.42
-73.84
-78.94
-86.16
-95.41
-105.58
-114.27
-118.10
-113.61
-98.70
-73.65
-41.38
-6.59
25.76
51.88
70.08
80.60
84.84
84.41
80.61
74.32
66.35
57.66
49.37
42.61
38.17
36.20
36.18
37.18
38.34
39.07
39.43
39.82
40.66
41.98
43.11
42.98
40.51
35.16
27.31
18.14
9.17
1.56
-4.37
-9.29
-14.42
