1550078742.00
64.000000
-0.00
-0.00
-0.00
-0.00
-0.00
-0.00
-0.00
-0.00
-0.00
-0.00
0.00
0.01
0.01
-0.00
-0.03
-0.05
-0.05
0.00
0.13
0.36
0.66
1.01
1.37
1.72
2.06
2.40
2.79
3.24
3.80
4.42
5.06
5.66
6.20
6.68
7.15
7.68
8.31
9.14
10.09
11.04
11.88
12.56
13.14
13.76
14.65
15.96
17.91
20.32
22.90
25.38
27.58
29.57
31.68
34.32
37.81
42.54
48.15
54.10
59.83
64.97
69.58
74.14
79.34
85.71
93.76
103.00
112.62
121.73
129.77
136.75
143.30
150.75
157.77
166.64
177.95
191.79
206.97
220.57
228.25
225.36
208.53
176.87
132.76
80.05
23.07
-34.94
-92.44
-149.16
-205.23
-260.37
-313.74
-363.87
-409.83
-450.91
-486.50
-515.74
-537.23
-549.22
-549.96
-538.37
-514.21
-478.67
-433.88
-382.45
-327.02
-269.84
-212.63
-156.66
-102.95
-52.37
-5.90
35.58
71.43
101.35
125.50
144.38
158.69
169.15
176.37
180.75
182.57
182.07
179.51
175.23
169.65
163.18
156.15
148.81
141.30
133.69
126.02
118.33
110.69
103.16
95.80
88.68
81.83
75.25
68.95
62.95
57.25
51.86
46.78
42.03
37.59
33.45
29.61
26.07
22.81
19.83
17.11
14.67
12.48
10.54
8.83
7.35
6.07
4.97
4.05
3.27
2.62
2.09
1.65
1.30
1.01
0.79
0.61
0.47
0.37
0.29
0.23
0.19
0.16
0.15
0.14
0.15
0.17
0.19
0.22
0.25
0.29
0.33
0.37
0.41
0.46
0.51
0.56
0.61
0.66
0.72
0.78
0.84
0.92
0.99
1.08
1.18
1.29
1.41
1.55
1.70
1.87
2.06
2.28
2.51
2.77
3.06
3.37
3.72
4.10
4.51
4.96
5.45
5.97
6.53
7.14
7.78
8.47
9.21
9.99
10.81
11.69
12.60
13.56
14.58
15.67
16.82
18.03
19.28
20.57
21.83
23.00
23.99
24.69
24.96
24.69
23.79
22.17
19.82
16.78
13.10
8.96
4.51
-0.02
-4.41
-8.46
-11.99
-14.87
-17.01
-18.40
-19.05
-19.04
-18.46
-17.44
-16.08
-14.52
-12.87
-11.20
-9.58
-7.96
-6.36
-4.74
-3.08
-1.36
0.43
2.24
4.07
5.93
7.88
9.92
12.04
14.29
16.66
19.11
21.59
24.05
26.53
29.21
32.02
35.04
38.34
41.90
45.58
49.17
52.51
55.61
58.76
61.95
65.39
69.28
73.59
77.98
81.96
85.08
87.18
88.62
89.46
90.05
90.63
90.92
90.02
86.47
78.49
64.10
46.33
26.62
6.31
-13.62
-32.82
-51.57
-70.57
-90.71
-112.89
-137.71
-165.90
-196.73
-227.66
-254.48
-272.30
-277.19
-267.82
-246.09
-216.39
-184.46
-154.76
-129.43
-108.45
-90.71
-75.17
-61.47
-49.74
-39.94
-31.75
-24.19
-16.21
-7.36
2.02
10.86
18.03
22.88
25.56
26.80
27.60
28.74
30.42
32.24
33.51
33.64
32.45
30.25
27.59
25.02
22.88
21.14
19.52
17.68
15.42
12.78
10.05
7.51
5.33
3.39
1.28
-1.44
-5.11
-9.58
-14.30
-18.36
-20.76
-20.77
-18.16
-13.24
-6.74
0.43
7.48
13.85
19.25
23.58
26.79
28.89
29.91
30.05
29.62
28.99
28.46
28.11
27.86
27.52
27.00
26.40
25.97
25.91
26.25
26.70
26.82
26.17
24.53
22.06
19.20
16.42
14.09
12.24
10.64
8.93
6.82
4.19
1.12
-2.14
-5.34
-8.39
-11.27
-14.08
-16.91
-19.88
-23.08
-26.61
-30.42
-34.27
-37.58
-39.50
-39.13
-35.81
-29.46
-20.71
-10.77
-1.10
7.08
13.04
16.74
18.63
19.39
19.65
19.81
20.03
20.30
20.57
20.89
21.37
22.14
23.20
24.45
25.61
26.43
26.74
26.53
25.93
25.04
23.88
22.33
20.23
17.50
14.29
10.87
7.63
4.84
2.53
0.53
-1.44
-3.64
-6.16
-8.90
-11.62
-14.09
-16.32
-18.53
-21.15
-24.57
-28.85
-33.60
-37.85
-40.46
-40.36
-37.08
-30.87
-22.60
-13.51
-4.72
2.97
9.22
14.01
17.47
19.68
20.74
20.78
20.08
19.09
18.33
18.21
18.92
20.29
21.93
23.35
24.18
24.32
23.89
23.15
22.30
21.37
20.18
18.54
16.35
13.75
11.02
8.44
6.10
3.86
1.47
-1.29
-4.38
-7.56
-10.51
-13.00
-14.99
-16.65
-18.27
-20.17
-22.62
-25.82
-29.79
-34.34
-38.93
-42.72
-44.71
-44.01
-40.12
-33.14
-23.78
-13.20
-2.73
6.42
13.50
18.26
21.01
22.35
22.98
23.37
23.69
23.84
23.71
23.32
22.90
22.69
22.87
23.34
23.83
24.07
23.94
23.53
23.01
22.33
21.27
19.53
16.92
13.64
10.22
7.28
5.20
3.81
2.57
0.83
-1.75
-4.93
-8.06
-10.43
-11.71
-12.27
-12.98
-14.75
-18.10
-22.85
-28.24
-33.31
-37.18
-39.44
-39.89
-38.37
-34.71
-28.73
-20.53
-10.79
-0.68
8.31
14.90
18.52
19.43
18.55
17.02
15.76
15.19
15.19
15.40
15.54
15.56
15.69
16.18
17.13
18.37
19.50
20.11
19.98
19.11
17.65
15.82
13.72
11.42
8.97
6.46
4.03
1.73
-0.50
-2.86
-5.56
-8.65
-12.00
-15.29
-18.27
-20.85
-23.25
-25.88
-29.15
-33.22
-37.84
-42.35
-45.81
-47.25
-45.96
-41.67
-34.68
-25.75
-15.93
-6.26
2.37
9.37
14.52
17.85
19.70
20.56
20.97
21.43
22.22
23.31
24.47
25.39
25.91
26.11
26.23
26.49
26.93
27.28
27.14
26.15
24.20
21.46
18.31
15.11
12.10
9.37
6.93
4.68
2.51
0.28
-2.19
-5.02
-8.21
-11.54
-14.74
-17.57
-20.01
-22.35
-25.05
-28.54
-32.94
-37.89
-42.54
-45.78
-46.53
-44.08
-38.32
-29.75
-19.44
-8.72
1.18
9.33
15.32
19.21
21.41
22.44
22.75
22.64
22.23
21.64
21.03
20.64
20.68
21.26
22.23
23.28
24.04
24.27
23.96
23.30
22.49
21.61
20.54
19.03
16.89
14.12
10.97
7.85
5.04
2.65
0.48
-1.78
-4.39
-7.38
-10.54
-13.53
-16.12
-18.36
-20.57
-23.20
-26.61
-30.83
-35.46
-39.82
-43.15
-44.75
-44.15
-41.08
-35.51
-27.64
-18.05
-7.68
2.24
10.48
16.23
19.35
20.33
20.07
19.45
19.08
19.06
19.28
19.56
19.84
20.24
20.92
21.96
23.31
24.61
25.44
25.42
24.40
22.51
20.14
17.75
15.66
13.83
11.98
9.75
6.94
3.69
0.38
-2.59
-4.99
-6.98
-8.94
-11.25
-14.05
-17.13
-20.11
-22.71
-24.93
-27.20
-30.06
-33.80
-38.10
-41.97
-44.03
-43.03
-38.37
-30.44
-20.41
-9.86
-0.17
7.77
13.69
17.75
20.35
21.79
22.28
22.00
21.14
20.02
19.01
18.48
18.71
19.74
21.41
23.31
24.97
25.96
26.03
25.18
23.58
21.46
19.05
16.47
13.75
10.90
7.92
4.87
1.89
-0.90
-3.38
-5.56
-7.60
-9.72
-12.16
-15.02
-18.22
-21.64
-25.18
-28.88
-32.82
-36.92
-40.76
-43.49
-44.03
-41.50
-35.64
-26.97
-16.70
-6.28
2.99
10.34
15.60
19.00
20.92
21.72
21.62
20.83
19.58
18.23
17.20
16.83
17.28
18.45
19.98
21.45
22.43
22.71
22.28
21.29
19.98
18.50
16.79
14.73
12.15
9.03
5.55
2.01
-1.27
-4.14
-6.65
-8.95
-11.25
-13.64
-16.16
-18.86
-21.84
-25.22
-29.01
-32.96
-36.46
-38.67
-38.71
-35.98
-30.36
-22.35
-12.94
-3.40
5.11
11.78
16.36
19.02
20.23
20.42
19.90
18.84
17.42
15.92
14.75
14.31
14.78
16.03
17.64
19.05
19.80
19.68
18.78
17.41
15.92
14.49
13.09
11.47
9.32
6.47
3.02
-0.69
-4.17
-7.06
-9.28
-11.07
-12.85
-15.03
-17.83
-21.25
-25.13
-29.22
-33.17
-36.46
-38.37
-38.07
-34.93
-28.77
-20.11
-10.07
-0.08
8.58
15.13
19.41
21.75
22.68
22.67
22.02
20.92
19.52
18.11
17.06
16.75
17.33
18.68
20.34
21.76
22.41
22.07
20.78
18.88
16.75
14.68
12.73
10.81
8.70
6.20
3.25
0.02
-3.17
-5.96
-8.20
-9.97
-11.64
-13.68
-16.41
-19.87
-23.76
-27.63
-31.02
-33.61
-35.17
-35.42
-34.01
-30.61
-25.10
-17.82
-9.57
-1.42
5.59
10.79
14.00
15.41
15.44
14.50
12.94
11.06
9.18
7.60
6.61
6.40
6.97
8.12
9.45
10.53
11.04
10.89
10.23
9.33
8.39
7.38
6.00
3.96
1.15
-2.20
-5.58
-8.52
-10.83
-12.78
-14.95
-17.92
-21.95
-26.92
-32.25
-37.24
-41.11
-43.18
-42.88
-39.85
-34.05
-25.87
-16.16
-6.12
3.03
10.33
15.37
18.25
19.48
19.64
19.23
18.43
17.30
15.93
14.55
13.55
13.30
13.89
15.06
16.11
16.33
15.25
12.92
9.82
6.62
3.78
1.25
-1.48
-5.10
-9.99
-15.93
-22.13
-27.58
-31.56
-34.05
-35.77
-37.90
-41.47
-46.98
-54.17
-62.05
-69.18
-73.91
-74.87
-71.17
-62.60
-49.80
-34.18
-17.61
-2.02
11.07
20.87
27.40
31.28
33.44
34.79
35.95
37.31
39.10
41.33
44.00
46.95
49.89
52.48
54.38
55.43
55.69
55.43
55.01
54.68
54.44
54.03
53.07
51.24
48.49
45.01
41.22
37.50
34.04
30.80
27.55
24.10
20.37
16.51
12.69
9.02
5.40
1.60
-2.56
-7.03
-11.34
-14.77
-16.51
-16.06
-13.42
-9.16
-4.23
0.44
4.19
6.79
8.32
9.02
9.00
8.24
6.72
4.54
2.07
-0.11
-1.51
-1.88
-1.41
-0.59
0.02
0.03
-0.61
-1.71
-3.02
-4.41
-5.97
-7.88
-10.32
-13.25
-16.43
-19.47
-22.05
-24.07
-25.64
-27.11
-28.85
-31.16
-34.15
-37.77
-41.79
-45.79
-49.21
-51.36
-51.48
-48.99
-43.63
-35.67
-25.88
-15.46
-5.68
2.38
8.12
11.52
12.99
13.15
12.59
11.70
10.67
9.58
8.59
7.92
7.84
8.43
9.49
10.63
11.38
11.50
11.11
10.57
10.23
10.16
10.02
9.27
7.47
4.55
0.99
-2.47
-5.14
-6.82
-7.84
-8.95
-10.95
-14.33
-19.11
-24.84
-30.74
-35.84
-39.20
-39.93
-37.46
-31.64
-22.92
-12.31
-1.06
9.49
18.43
25.28
30.00
32.76
33.83
33.44
31.89
29.48
26.62
23.77
21.38
19.81
19.29
19.82
21.16
22.77
24.01
24.34
23.53
21.78
19.53
17.25
15.11
12.89
10.18
6.65
2.39
-2.10
-6.06
-8.94
-10.69
-11.89
-13.49
-16.34
-20.81
-26.54
-32.55
-37.56
-40.37
-40.21
-36.86
-30.63
-22.23
-12.60
-2.80
6.19
13.67
19.22
22.79
24.56
24.86
24.07
22.59
20.83
19.27
18.32
18.21
18.87
19.94
20.89
21.22
20.68
19.32
17.41
15.26
13.07
10.87
8.56
5.98
3.07
-0.11
-3.39
-6.53
-9.36
-11.85
-14.06
-16.21
-18.53
-21.22
-24.43
-28.25
-32.70
-37.53
-42.17
-45.66
-46.82
-44.62
-38.63
-29.27
-17.82
-6.03
4.51
12.71
18.22
21.33
22.59
22.54
21.53
19.83
17.75
15.73
14.33
14.02
14.90
16.69
18.68
20.12
20.49
19.71
18.13
16.29
14.55
12.88
10.93
8.25
4.61
0.18
-4.52
-8.83
-12.28
-14.72
-16.39
-17.79
-19.46
-21.86
-25.26
-29.63
-34.62
-39.52
-43.33
-44.93
-43.37
-38.26
-29.90
-19.31
-7.92
2.85
12.01
19.13
24.33
27.93
30.19
31.16
30.79
29.14
26.59
23.79
21.54
20.44
20.64
21.90
23.58
25.04
25.76
25.49
24.26
22.29
19.89
17.38
14.94
12.61
10.24
7.58
4.40
0.64
-3.59
-7.95
-12.01
-15.38
-17.86
-19.52
-20.77
-22.22
-24.54
-28.17
-33.10
-38.68
-43.68
-46.59
-46.09
-41.54
-33.26
-22.41
-10.66
0.35
9.48
16.27
20.82
23.54
24.88
25.17
24.70
23.80
22.88
22.32
22.34
22.85
23.52
23.96
23.91
23.38
22.57
21.74
20.99
20.20
19.13
17.58
15.56
13.24
10.88
8.64
6.49
4.29
1.92
-0.62
-3.22
-5.66
-7.81
-9.66
-11.38
-13.24
-15.43
-18.05
-21.09
-24.50
-28.28
-32.49
-37.04
-41.51
-45.01
-46.31
-44.25
-38.23
-28.64
-16.78
-4.53
6.33
14.68
20.21
23.32
24.68
24.86
24.22
22.98
21.39
19.88
18.97
19.08
20.23
22.06
23.88
25.03
25.17
24.43
23.29
22.26
21.52
20.83
19.61
17.38
14.02
9.97
6.01
2.93
1.14
0.50
0.40
0.09
-1.01
-3.10
-6.04
-9.47
-13.00
-16.34
-19.27
-21.76
-23.87
-25.92
-28.35
-31.57
-35.68
-40.13
-43.76
-45.04
-42.65
-36.07
-25.92
-13.80
-1.76
8.43
15.74
20.09
22.06
22.47
21.84
20.47
18.47
16.10
13.89
12.55
12.56
13.97
16.08
17.92
18.61
17.86
16.13
14.39
13.51
13.76
14.61
14.98
13.91
11.06
7.01
2.91
-0.12
-1.53
-1.71
-1.64
-2.33
-4.29
-7.28
-10.53
-13.25
-15.04
-16.07
-16.93
-18.26
-20.42
-23.50
-27.35
-31.71
-36.17
-40.18
-42.95
-43.50
-41.03
-35.22
-26.50
-16.02
-5.30
4.25
11.73
16.88
19.97
21.45
21.75
21.16
19.91
18.30
16.72
15.59
15.17
15.49
16.29
17.21
17.93
18.28
18.26
17.97
17.51
16.89
16.01
14.71
12.91
10.65
8.14
5.69
3.62
2.08
1.10
0.50
0.06
-0.46
-1.26
-2.49
-4.23
-6.47
-9.07
-11.77
-14.24
-16.25
-17.82
-19.22
-20.91
-23.35
-26.72
-30.76
-34.74
-37.58
-38.16
-35.68
-29.96
-21.57
-11.70
-1.80
6.88
13.54
18.00
20.50
21.45
21.22
20.05
18.17
15.90
13.68
12.01
11.28
11.60
12.78
14.35
15.80
16.80
17.23
17.21
16.94
16.54
15.96
15.02
13.51
11.38
8.81
6.08
3.54
1.39
-0.37
-1.90
-3.40
-5.01
-6.77
-8.65
-10.52
-12.28
-13.83
-15.15
-16.26
-17.23
-18.28
-19.68
-21.77
-24.75
-28.53
-32.58
-35.93
-37.36
-35.84
-30.92
-22.99
-13.19
-3.03
6.08
13.23
18.16
21.04
22.25
22.11
20.85
18.70
16.04
13.41
11.47
10.62
10.98
12.25
13.90
15.39
16.47
17.13
17.55
17.75
17.55
16.63
14.72
11.85
8.41
5.03
2.23
0.18
-1.33
-2.75
-4.38
-6.27
-8.13
-9.60
-10.50
-11.05
-11.65
-12.72
-14.40
-16.41
-18.31
-19.79
-20.93
-22.28
-24.50
-27.88
-31.98
-35.65
-37.36
-35.90
-30.87
-22.87
-13.30
-3.75
4.52
10.86
15.23
17.91
19.26
19.50
18.74
17.17
15.11
13.02
11.45
10.77
11.15
12.39
14.04
15.57
16.50
16.60
15.94
14.80
13.63
12.72
12.10
11.49
10.44
8.61
5.97
2.83
-0.24
-2.77
-4.57
-5.83
-6.98
-8.44
-10.39
-12.74
-15.16
-17.28
-18.95
-20.25
-21.49
-23.05
-25.25
-28.17
-31.61
-35.15
-38.15
-39.91
-39.80
-37.42
-32.67
-25.88
-17.75
-9.21
-1.24
5.37
10.21
13.23
14.66
14.92
14.42
13.51
12.51
11.66
11.13
11.11
11.62
12.59
13.88
15.27
16.52
17.39
17.67
17.26
16.11
14.36
12.17
9.78
7.35
4.97
2.60
0.24
-2.08
-4.21
-5.99
-7.37
-8.46
-9.48
-10.66
-12.12
-13.75
-15.39
-16.91
-18.41
-20.16
-22.55
-25.83
-29.88
-34.17
-37.75
-39.56
-38.67
-34.60
-27.54
-18.28
-8.09
1.70
9.99
16.21
20.29
22.55
23.48
23.50
22.93
22.01
20.96
20.10
19.72
20.05
21.08
22.51
23.86
24.67
24.69
24.03
23.02
22.06
21.33
20.65
19.61
17.80
15.08
11.67
8.10
4.87
2.26
0.17
-1.75
-3.84
-6.27
-8.91
-11.44
-13.55
-15.17
-16.50
-17.97
-20.06
-23.07
-27.00
-31.53
-36.07
-39.86
-42.06
-41.93
-39.00
-33.21
-25.01
-15.34
-5.44
3.48
10.53
15.29
17.89
18.80
18.67
18.12
17.55
17.16
17.00
17.04
17.22
17.61
18.27
19.24
20.40
21.52
22.26
22.35
21.67
20.30
18.52
16.57
14.61
12.65
10.58
8.26
5.69
3.00
0.37
-2.03
-4.17
-6.17
-8.19
-10.35
-12.65
-15.00
-17.28
-19.50
-21.79
-24.45
-27.76
-31.85
-36.37
-40.57
-43.30
-43.39
-40.10
-33.45
-24.31
-14.12
-4.43
3.65
9.66
13.81
16.57
18.39
19.53
20.01
19.89
19.35
18.70
18.25
18.19
18.52
19.15
19.95
20.86
21.88
22.95
23.91
24.50
24.44
23.53
21.77
19.36
16.60
13.85
11.36
9.21
7.34
5.54
3.59
1.33
-1.20
-3.87
-6.44
-8.75
-10.76
-12.62
-14.53
-16.73
-19.40
-22.79
-27.06
-32.15
-37.63
-42.60
-45.75
-45.87
-42.27
-35.25
-25.96
-15.99
-6.74
1.03
7.30
12.45
16.77
20.14
22.17
22.49
21.26
19.20
17.44
16.95
18.16
20.59
23.29
25.23
25.91
25.55
24.83
24.49
24.87
25.58
25.83
24.88
22.44
18.85
14.94
11.56
9.27
8.03
7.36
6.62
5.32
3.34
0.83
-1.90
-4.54
-7.03
-9.41
-11.82
-14.39
-17.15
-20.13
-23.40
-26.97
-30.89
-35.02
-38.98
-42.12
-43.57
-42.53
-38.49
-31.50
-22.27
-12.02
-2.18
6.05
11.99
15.60
17.34
17.90
17.88
17.67
17.40
17.11
16.85
16.76
16.99
17.65
18.72
20.03
21.32
22.34
22.93
23.02
22.58
21.65
20.25
18.42
16.24
13.82
11.31
8.88
6.68
4.77
3.13
1.59
-0.01
-1.87
-4.06
-6.52
-9.06
-11.45
-13.52
-15.29
-16.99
-19.02
-21.81
-25.63
-30.43
-35.77
-40.87
-44.67
-46.19
-44.67
-39.88
-32.18
-22.53
-12.17
-2.36
5.97
12.36
16.79
19.55
20.99
21.40
21.10
20.41
19.74
19.49
19.96
21.15
22.83
24.59
26.08
27.08
27.58
27.67
27.43
26.89
25.94
24.51
22.51
19.95
16.94
13.68
10.42
7.42
4.87
2.78
1.07
-0.51
-2.22
-4.26
-6.69
-9.43
-12.32
-15.14
-17.74
-20.11
-22.41
-25.00
-28.26
-32.45
-37.49
-42.82
-47.37
-49.98
-49.60
-45.76
-38.73
-29.42
-19.08
-8.92
0.17
7.61
13.15
16.73
18.50
18.80
18.20
17.38
16.95
17.22
18.15
19.44
20.74
21.85
22.79
23.65
24.48
25.13
25.35
24.94
23.90
22.46
20.95
19.55
18.28
16.80
14.77
12.08
8.93
5.84
3.31
1.59
0.51
-0.55
-2.29
-5.12
-8.89
-12.97
-16.52
-18.95
-20.26
-21.13
-22.51
-25.24
-29.63
-35.28
-41.25
-46.33
-49.35
-49.51
-46.44
-40.30
-31.66
-21.50
-10.93
-1.06
7.30
13.74
18.21
20.95
22.34
22.74
22.54
22.08
21.75
21.86
22.59
23.90
25.51
27.04
28.14
28.66
28.67
28.41
28.10
27.76
27.23
26.19
24.37
21.72
18.45
14.99
11.77
9.09
6.99
5.24
3.55
1.57
-0.85
-3.70
-6.76
-9.76
-12.47
-14.80
-16.85
-18.86
-21.05
-23.60
-26.65
-30.21
-34.24
-38.49
-42.40
-45.15
-45.70
-43.21
-37.39
-28.71
-18.34
-7.79
1.57
8.89
13.98
17.15
18.90
19.75
20.01
19.90
19.60
19.35
19.42
20.04
21.28
23.00
24.85
26.41
27.40
27.70
27.45
26.85
26.10
25.20
24.00
22.26
19.87
16.94
13.77
10.80
8.32
6.40
4.82
3.19
1.20
-1.33
-4.30
-7.41
-10.30
-12.73
-14.64
-16.17
-17.63
-19.36
-21.67
-24.74
-28.61
-33.10
-37.74
-41.80
-44.35
-44.50
-41.61
-35.63
-27.15
-17.32
-7.51
1.08
7.74
12.35
15.24
16.92
17.82
18.18
18.10
17.67
17.08
16.64
16.70
17.45
18.89
20.76
22.65
24.12
24.93
25.01
24.50
23.64
22.55
21.23
19.50
17.19
14.24
10.87
7.55
4.84
3.14
2.48
2.47
2.41
1.64
-0.20
-3.04
-6.45
-9.93
-13.10
-15.94
-18.63
-21.48
-24.66
-28.12
-31.75
-35.32
-38.67
-41.57
-43.62
-44.20
-42.59
-38.25
-31.13
-21.88
-11.71
-2.07
5.81
11.33
14.57
16.10
16.67
16.83
16.84
16.71
16.40
16.00
15.83
16.17
17.20
18.79
20.55
21.98
22.74
22.73
22.10
21.16
20.11
18.97
17.61
15.87
13.65
11.04
8.28
5.68
3.48
1.75
0.34
-1.03
-2.68
-4.77
-7.23
-9.80
-12.19
-14.24
-16.06
-17.94
-20.28
-23.36
-27.28
-31.85
-36.70
-41.27
-44.83
-46.56
-45.64
-41.52
-34.16
-24.20
-12.90
-1.86
7.41
13.95
17.54
18.69
18.39
17.63
17.10
17.10
17.51
18.08
18.66
19.34
20.27
21.48
22.76
23.71
23.98
23.53
22.67
21.82
21.23
20.64
19.48
17.21
13.75
9.63
5.77
2.94
1.34
0.46
-0.56
-2.44
-5.34
-8.79
-12.02
-14.43
-15.89
-16.98
-18.52
-21.27
-25.47
-30.76
-36.39
-41.51
-45.46
-48.00
-49.01
-48.36
-45.68
-40.58
-32.87
-22.98
-11.93
-1.29
7.50
13.55
16.78
17.85
17.69
17.19
16.87
16.88
17.14
17.57
18.17
18.99
20.03
21.20
22.34
23.26
23.82
23.96
23.67
22.93
21.71
19.96
17.72
15.10
12.31
9.57
7.04
4.77
2.68
0.64
-1.49
-3.80
-6.29
-8.96
-11.79
-14.77
-17.87
-21.10
-24.45
-27.97
-31.77
-35.95
-40.42
-44.84
-48.43
-50.18
-49.11
-44.69
-37.11
-27.32
-16.73
-6.75
1.63
8.05
12.68
15.94
18.19
19.63
20.31
20.33
19.93
19.51
19.54
20.34
21.90
23.96
26.04
27.71
28.73
29.05
28.83
28.22
27.26
25.85
23.84
21.17
17.95
14.48
11.15
8.31
6.05
4.23
2.48
0.32
-2.57
-6.27
-10.49
-14.73
-18.48
-21.48
-23.89
-26.24
-29.19
-33.27
-38.50
-44.31
-49.68
-53.36
-54.28
-51.84
-46.06
-37.58
-27.45
-16.88
-6.97
1.48
8.01
12.58
15.38
16.82
17.37
17.54
17.78
18.38
19.46
20.96
22.70
24.51
26.32
28.09
29.78
31.18
32.00
31.87
30.60
28.27
25.25
22.07
19.12
16.55
14.25
12.02
9.76
7.50
5.36
3.32
1.17
-1.37
-4.51
-8.20
-12.04
-15.59
-18.66
-21.55
-24.96
-29.62
-35.73
-42.69
-49.08
-53.13
-53.38
-49.26
-41.24
-30.68
-19.31
-8.63
0.40
7.46
12.72
16.36
18.61
19.63
19.64
19.11
18.69
18.96
20.25
22.36
24.70
26.64
27.76
28.17
28.30
28.64
29.31
29.92
29.76
28.24
25.24
21.25
17.15
13.74
11.42
9.89
8.49
6.50
3.54
-0.27
-4.42
-8.27
-11.32
-13.49
-15.06
-16.62
-18.81
-22.12
-26.74
-32.49
-38.78
-44.79
-49.52
-51.93
-51.21
-46.99
-39.50
-29.62
-18.68
-8.11
0.98
7.98
12.93
16.21
18.32
19.64
20.44
20.86
21.12
21.52
22.30
23.64
25.47
27.54
29.54
31.20
32.33
32.88
32.89
32.36
31.30
29.65
27.37
24.49
21.13
17.58
14.11
10.97
8.22
5.76
3.34
0.71
-2.27
-5.56
-9.01
-12.42
-15.68
-18.80
-21.89
-25.15
-28.79
-32.99
-37.76
-42.83
-47.58
-51.00
-51.96
-49.53
-43.39
-34.06
-22.80
-11.23
-0.85
7.40
13.29
17.12
19.45
20.74
21.28
21.23
20.75
20.13
19.77
20.04
21.09
22.78
24.73
26.47
27.65
28.14
28.01
27.43
26.47
25.10
23.16
20.52
17.27
13.63
10.03
6.80
4.05
1.68
-0.67
-3.26
-6.23
-9.45
-12.63
-15.49
-17.98
-20.33
-23.04
-26.70
-31.71
-38.03
-45.00
-51.39
-55.67
-56.45
-52.99
-45.45
-34.87
-22.87
-11.09
-0.77
7.47
13.58
17.83
20.60
22.19
22.89
23.03
23.00
23.17
23.81
24.92
26.28
27.61
28.68
29.48
30.14
30.78
31.40
31.73
31.39
30.04
27.58
24.24
20.44
16.66
13.27
10.39
7.95
5.73
3.49
1.02
-1.84
-5.11
-8.70
-12.44
-16.13
-19.64
-23.01
-26.41
-30.18
-34.67
-40.13
-46.56
-53.56
-60.25
-65.37
-67.56
-65.80
-59.83
-50.35
-38.79
-26.89
-16.11
-7.23
-0.25
5.30
10.05
14.41
18.52
22.30
25.67
28.65
31.45
34.28
37.18
40.02
42.42
44.01
44.58
44.23
43.34
42.33
41.43
40.56
39.33
37.28
34.20
30.25
25.94
21.92
18.70
16.39
14.71
13.16
11.17
8.40
4.83
0.69
-3.58
-7.63
-11.29
-14.60
-17.85
-21.43
-25.67
-30.80
-36.81
-43.38
-49.81
-55.04
-57.81
-56.97
-51.99
-43.12
-31.54
-18.97
-7.19
2.59
9.95
15.15
18.67
20.91
22.04
22.10
21.38
20.50
20.24
21.27
23.61
26.69
29.54
31.37
31.94
31.63
31.10
30.85
30.86
30.64
29.55
27.21
23.75
19.78
16.05
13.08
10.82
8.87
6.69
3.97
0.80
-2.39
-5.24
-7.57
-9.74
-12.27
-15.54
-19.52
-23.75
-27.64
-30.91
-33.79
-37.06
-41.43
-46.99
-52.77
-56.95
-57.52
-53.21
-44.05
-31.56
-18.03
-5.68
4.13
11.15
15.95
19.33
21.85
23.61
24.48
24.43
23.76
23.05
22.89
23.63
25.22
27.25
29.21
30.68
31.47
31.60
31.22
30.51
29.51
28.16
26.31
23.85
20.78
17.25
13.55
10.03
6.92
4.32
2.10
0.01
-2.21
-4.76
-7.69
-10.86
-14.04
-17.04
-19.76
-22.34
-25.11
-28.47
-32.77
-38.01
-43.78
-49.18
-53.04
-54.21
-51.99
-46.32
-37.82
-27.64
-17.03
-7.06
1.57
8.56
13.87
17.55
19.68
20.42
20.09
19.17
18.24
17.80
18.11
19.10
20.48
21.89
23.10
24.07
24.91
25.66
26.21
26.27
25.51
23.71
20.96
17.62
14.16
11.01
8.38
6.24
4.38
2.54
0.48
-1.93
-4.72
-7.79
-10.95
-14.03
-16.90
-19.55
-22.19
-25.14
-28.79
-33.39
-38.83
-44.54
-49.50
-52.40
-52.06
-47.82
-39.85
-29.17
-17.42
-6.27
3.00
9.85
14.46
17.44
19.41
20.76
21.57
21.76
21.37
20.64
20.07
20.18
21.25
23.17
25.46
27.49
28.72
28.98
28.42
27.30
25.82
23.95
21.53
18.47
14.93
11.33
8.23
5.90
4.29
2.94
1.30
-1.00
-4.02
-7.44
-10.85
-13.93
-16.57
-18.91
-21.23
-23.83
-27.03
-31.03
-35.83
-41.25
-46.73
-51.35
-54.00
-53.64
-49.62
-41.99
-31.50
-19.58
-7.86
2.23
9.84
14.83
17.67
19.05
19.62
19.70
19.38
18.68
17.80
17.16
17.29
18.47
20.61
23.09
25.14
26.17
26.07
25.22
24.21
23.45
22.94
22.28
20.92
18.56
15.35
11.78
8.47
5.85
4.00
2.60
1.15
-0.78
-3.41
-6.66
-10.18
-13.56
-16.48
-18.87
-20.98
-23.23
-26.10
-29.94
-34.76
-40.25
-45.65
-50.00
-52.24
-51.51
-47.40
-40.08
-30.33
-19.31
-8.30
1.62
9.72
15.70
19.53
21.44
21.78
21.01
19.71
18.47
17.83
18.06
19.10
20.62
22.12
23.22
23.83
24.07
24.20
24.42
24.66
24.72
24.25
23.06
21.09
18.53
15.65
12.76
10.09
7.74
5.73
3.96
2.27
0.49
-1.55
-3.97
-6.79
-9.88
-13.05
-16.04
-18.64
-20.82
-22.81
-25.05
-28.11
-32.32
-37.56
-43.15
-47.83
-50.19
-49.08
-44.07
-35.63
-24.98
-13.74
-3.37
5.21
11.73
16.42
19.70
21.86
23.00
23.14
22.43
21.33
20.44
20.34
21.26
22.96
24.85
26.29
26.86
26.57
25.77
24.91
24.30
23.88
23.34
22.28
20.44
17.82
14.74
11.60
8.76
6.40
4.42
2.59
0.63
-1.65
-4.25
-7.05
-9.88
-12.61
-15.14
-17.49
-19.70
-21.83
-24.00
-26.39
-29.27
-32.79
-36.84
-40.88
-44.01
-45.10
-43.34
-38.42
-30.79
-21.51
-11.87
-3.07
4.16
9.55
13.27
15.62
16.86
17.12
16.45
15.03
13.26
11.76
11.18
11.91
13.85
16.47
19.06
20.97
21.96
22.11
21.70
20.92
19.76
18.09
15.82
13.02
9.98
7.06
4.51
2.36
0.45
-1.49
-3.68
-6.15
-8.81
-11.45
-13.84
-15.91
-17.73
-19.55
-21.75
-24.64
-28.31
-32.52
-36.63
-39.76
-41.01
-39.78
-35.86
-29.54
-21.53
-12.72
-4.06
3.67
9.89
14.32
16.92
17.93
17.73
16.80
15.59
14.50
13.77
13.53
13.79
14.47
15.43
16.55
17.70
18.72
19.43
19.60
18.97
17.42
15.00
11.98
8.81
5.88
3.41
1.34
-0.57
-2.62
-4.95
-7.55
-10.29
-13.02
-15.71
-18.42
-21.19
-24.01
-26.87
-29.84
-33.10
-36.87
-41.17
-45.58
-49.14
-50.65
-49.04
-43.93
-35.73
-25.61
-15.01
-5.13
3.35
10.23
15.60
19.51
21.85
22.54
21.74
19.97
18.12
17.03
17.24
18.62
20.65
22.60
24.01
24.77
25.15
25.40
25.58
25.30
24.00
21.38
17.56
13.27
9.49
6.97
5.87
5.55
4.96
3.20
-0.03
-4.28
-8.57
-12.06
-14.43
-16.09
-17.91
-20.72
-24.89
-30.28
-36.34
-42.45
-48.01
-52.55
-55.46
-56.05
-53.63
-47.90
-39.15
-28.42
-17.09
-6.63
1.94
8.25
12.50
15.21
16.94
18.08
18.91
19.57
20.21
21.03
22.16
23.57
25.08
26.39
27.30
27.74
27.82
27.73
27.57
27.22
26.44
24.99
22.82
20.09
17.14
14.30
11.74
9.44
7.19
4.76
2.02
-1.02
-4.26
-7.48
-10.57
-13.52
-16.46
-19.61
-23.24
-27.56
-32.64
-38.41
-44.51
-50.24
-54.62
-56.49
-54.87
-49.29
-40.05
-28.29
-15.67
-3.92
5.70
12.66
17.17
19.84
21.40
22.33
22.87
23.08
23.06
23.02
23.30
24.18
25.68
27.54
29.29
30.52
31.03
30.92
30.49
30.01
29.53
28.82
27.53
25.36
22.29
18.64
14.96
11.75
9.26
7.36
5.63
3.52
0.65
-3.02
-7.17
-11.29
-14.91
-17.92
-20.58
-23.46
-27.21
-32.23
-38.40
-45.08
-51.16
-55.32
-56.41
-53.74
-47.34
-37.92
-26.65
-14.90
-3.88
5.56
12.98
18.32
21.78
23.73
24.66
25.05
25.36
25.92
26.91
28.32
30.04
31.87
33.57
34.90
35.68
35.76
35.15
33.97
32.41
30.66
28.83
26.86
24.61
21.94
18.86
15.58
12.49
9.96
8.23
7.09
6.02
4.40
1.79
-1.87
-6.13
-10.31
-13.85
-16.57
-18.79
-21.16
-24.37
-28.81
-34.43
-40.71
-46.82
-51.82
-54.77
-54.86
-51.56
-44.77
-34.92
-23.05
-10.62
0.84
10.12
16.65
20.56
22.47
23.19
23.40
23.48
23.51
23.48
23.45
23.60
24.21
25.44
27.22
29.24
31.01
32.11
32.30
31.64
30.35
28.71
26.88
24.90
22.71
20.27
17.64
14.95
12.34
9.87
7.51
5.17
2.71
0.03
-2.95
-6.19
-9.61
-13.04
-16.28
-19.21
-21.87
-24.53
-27.60
-31.50
-36.44
-42.11
-47.69
-51.91
-53.42
-51.27
-45.26
-36.08
-25.10
-13.86
-3.67
4.78
11.30
16.08
19.33
21.16
21.71
21.19
20.09
19.06
18.64
19.15
20.48
22.22
23.89
25.18
25.99
26.46
26.72
26.83
26.65
25.88
24.28
21.74
18.43
14.79
11.35
8.58
6.64
5.29
4.01
2.23
-0.43
-3.92
-7.85
-11.66
-14.91
-17.53
-19.76
-22.10
-25.06
-29.02
-34.12
-40.23
-46.84
-53.09
-57.74
-59.49
-57.30
-50.83
-40.64
-28.16
-15.21
-3.52
5.84
12.54
16.93
19.66
21.34
22.40
23.02
23.30
23.36
23.43
23.78
24.63
26.02
27.79
29.56
30.91
31.49
31.18
30.14
28.68
27.07
25.43
23.63
21.43
18.63
15.27
11.59
8.02
4.95
2.54
0.64
-1.12
-3.17
-5.81
-9.01
-12.47
-15.76
-18.57
-20.93
-23.23
-26.07
-30.02
-35.29
-41.56
-48.03
-53.54
-56.94
-57.29
-54.15
-47.63
-38.38
-27.40
-15.88
-4.96
4.48
11.88
17.11
20.38
22.14
22.98
23.39
23.72
24.08
24.50
24.95
25.51
26.26
27.32
28.61
29.90
30.84
31.14
30.68
29.56
27.96
26.09
24.02
21.71
19.11
16.24
13.24
10.35
7.72
5.43
3.33
1.16
-1.42
-4.60
-8.38
-12.54
-16.67
-20.39
-23.49
-26.02
-28.34
-30.97
-34.42
-38.88
-44.10
-49.27
-53.26
-54.86
-53.18
-47.91
-39.47
-28.81
-17.18
-5.81
4.34
12.63
18.76
22.72
24.68
25.04
24.37
23.30
22.48
22.34
23.05
24.49
26.29
28.00
29.29
30.02
30.25
30.13
29.80
29.27
28.49
27.28
25.58
23.41
20.92
18.33
15.81
13.45
11.23
9.11
7.00
4.79
2.37
-0.35
-3.40
-6.67
-9.95
-13.01
-15.73
-18.25
-20.91
-24.20
-28.45
-33.76
-39.77
-45.79
-50.77
-53.66
-53.54
-49.94
-43.00
-33.49
-22.59
-11.67
-1.85
6.07
11.76
15.28
16.94
17.31
17.05
16.80
17.01
17.67
18.53
19.20
19.52
19.66
20.08
21.11
22.76
24.51
25.64
25.59
24.28
22.17
19.98
18.26
17.16
16.34
15.28
13.58
11.22
8.51
5.94
3.84
2.30
1.02
-0.37
-2.20
-4.54
-7.22
-9.99
-12.66
-15.24
-18.03
-21.36
-25.40
-29.89
-34.18
-37.20
-37.93
-35.67
-30.38
-22.70
-13.73
-4.74
3.18
9.36
13.57
15.89
16.61
16.08
14.68
12.84
10.97
9.45
8.56
8.49
9.22
10.59
12.30
13.99
15.31
16.02
16.01
15.35
14.18
12.66
10.88
8.85
6.54
3.93
1.12
-1.73
-4.44
-6.87
-8.96
-10.80
-12.52
-14.34
-16.38
-18.70
-21.32
-24.22
-27.40
-30.82
-34.30
-37.44
-39.59
-39.92
-37.74
-32.75
-25.25
-16.11
-6.52
2.29
9.45
14.54
17.61
18.98
19.05
18.24
16.86
15.24
13.69
12.56
12.11
12.40
13.32
14.58
15.82
16.73
17.14
16.97
16.21
14.86
12.93
10.49
7.69
4.78
1.96
-0.60
-2.90
-5.08
-7.33
-9.84
-12.69
-15.88
-19.27
-22.68
-25.90
-28.90
-31.84
-35.12
-39.15
-44.15
-49.83
-55.29
-59.20
-60.22
-57.47
-50.87
-41.20
-29.77
-18.03
-7.19
1.97
9.12
14.28
17.63
19.58
20.58
21.17
21.82
22.87
24.39
26.18
27.93
29.31
30.11
30.31
30.10
29.69
29.27
28.84
28.26
27.25
25.59
23.20
20.24
16.93
13.59
10.41
7.47
4.79
2.31
-0.06
-2.42
-4.95
-7.86
-11.24
-15.05
-19.07
-23.08
-26.97
-30.92
-35.38
-40.79
-47.16
-53.86
-59.59
-62.76
-62.12
-57.16
-48.49
-37.49
-25.81
-14.86
-5.38
2.54
9.18
14.91
19.83
23.81
26.72
28.56
29.60
30.35
31.28
32.74
34.64
36.61
38.08
38.63
38.20
37.08
35.80
34.85
34.32
33.88
32.91
30.81
27.42
23.09
18.58
14.71
11.94
10.17
8.84
7.20
4.72
1.23
-3.03
-7.57
-11.91
-15.75
-19.08
-22.18
-25.47
-29.35
-34.10
-39.64
-45.59
-51.28
-55.76
-58.06
-57.26
-52.83
-44.79
-33.81
-21.14
-8.37
3.00
11.99
18.33
22.41
24.96
26.70
28.11
29.33
30.34
31.13
31.82
32.58
33.59
34.88
36.31
37.62
38.56
38.93
38.67
37.76
36.22
34.11
31.52
28.49
25.14
21.54
17.87
14.31
11.08
8.39
6.33
4.78
3.46
1.93
-0.18
-3.07
-6.64
-10.53
-14.30
-17.60
-20.40
-22.99
-25.90
-29.64
-34.47
-40.21
-46.24
-51.55
-54.98
-55.47
-52.36
-45.57
-35.72
-23.93
-11.66
-0.30
9.15
16.22
20.95
23.74
25.11
25.56
25.50
25.26
25.12
25.26
25.82
26.75
27.90
29.08
30.09
30.82
31.21
31.25
30.98
30.37
29.40
28.04
26.25
23.99
21.28
18.19
14.88
11.59
8.61
6.13
4.21
2.66
1.13
-0.75
-3.26
-6.42
-9.94
-13.41
-16.43
-18.86
-20.91
-23.09
-26.03
-30.14
-35.44
-41.33
-46.83
-50.70
-51.81
-49.49
-43.62
-34.73
-23.84
-12.20
-1.06
8.53
15.89
20.77
23.29
23.89
23.20
21.94
20.78
20.21
20.47
21.55
23.15
24.86
26.34
27.36
27.91
28.13
28.15
27.96
27.44
26.36
24.57
22.07
19.03
15.70
12.35
9.21
6.40
3.97
1.88
-0.00
-1.87
-3.95
-6.42
-9.30
-12.46
-15.64
-18.53
-20.95
-22.90
-24.63
-26.58
-29.12
-32.51
-36.60
-40.82
-44.22
-45.72
-44.45
-40.03
-32.76
-23.51
-13.51
-3.94
4.33
10.89
15.72
18.99
20.91
21.60
21.23
20.09
18.65
17.48
17.06
17.59
18.92
20.63
22.23
23.34
23.73
23.38
22.36
20.77
18.72
16.33
13.74
11.12
8.68
6.54
4.73
3.18
1.75
0.23
-1.52
-3.59
-5.96
-8.54
-11.16
-13.66
-15.88
-17.71
-19.16
-20.38
-21.78
-23.87
-27.06
-31.40
-36.33
-40.71
-43.18
-42.57
-38.51
-31.38
-22.27
-12.46
-3.04
5.35
12.41
17.97
21.75
23.47
23.03
20.73
17.42
14.25
12.21
11.79
12.68
14.09
15.21
15.61
15.46
15.28
15.56
16.43
17.42
17.83
17.02
14.84
11.66
8.19
5.13
2.88
1.37
0.17
-1.20
-3.05
-5.40
-7.99
-10.45
-12.49
-14.04
-15.27
-16.49
-17.98
-19.97
-22.57
-25.78
-29.43
-33.18
-36.44
-38.42
-38.29
-35.48
-29.87
-21.97
-12.73
-3.34
5.11
11.86
16.58
19.28
20.24
19.84
18.53
16.77
15.02
13.64
12.86
12.74
13.16
13.91
14.74
15.47
15.95
16.12
15.89
15.21
14.07
12.46
10.51
8.38
6.27
4.28
2.44
0.65
-1.24
-3.27
-5.40
-7.45
-9.28
-10.78
-12.04
-13.27
-14.74
-16.65
-19.05
-21.86
-24.89
-27.88
-30.53
-32.44
-33.08
-31.95
-28.60
-22.94
-15.33
-6.62
2.05
9.51
14.96
18.17
19.42
19.34
18.56
17.54
16.44
15.30
14.16
13.21
12.74
12.98
13.95
15.46
17.11
18.50
19.37
19.58
19.08
17.86
15.84
13.02
9.51
5.51
1.34
-2.71
-6.44
-9.74
-12.56
-14.93
-16.86
-18.43
-19.77
-21.09
-22.57
-24.33
-26.45
-28.91
-31.63
-34.36
-36.68
-37.92
-37.31
-34.23
-28.52
-20.64
-11.65
-2.87
4.57
10.03
13.53
15.52
16.57
17.06
17.09
16.58
15.49
14.02
12.60
11.62
11.33
11.65
12.24
12.77
13.04
13.12
13.14
13.09
12.78
11.86
10.11
7.66
4.96
2.57
0.85
-0.32
-1.41
-3.00
-5.34
-8.22
-11.08
-13.37
-14.85
-15.82
-16.93
-18.78
-21.67
-25.40
-29.38
-32.89
-35.23
-35.98
-34.86
-31.70
-26.48
-19.44
-11.15
-2.48
5.54
11.97
16.25
18.31
18.54
17.59
16.12
14.64
13.52
12.86
12.66
12.87
13.36
14.02
14.74
15.39
15.89
16.10
15.85
15.05
13.65
11.72
9.49
7.21
5.14
3.37
1.81
0.21
-1.67
-3.97
-6.57
-9.22
-11.57
-13.42
-14.78
-15.93
-17.32
-19.33
-22.19
-25.79
-29.69
-33.21
-35.63
-36.25
-34.64
-30.62
-24.40
-16.49
-7.58
1.48
9.91
17.03
22.38
25.73
27.12
26.85
25.45
23.61
22.03
21.25
21.50
22.69
24.47
26.33
27.85
28.77
29.07
28.88
28.48
28.20
28.35
29.04
29.98
30.40
29.09
24.82
16.87
5.46
-8.15
-22.06
-34.28
-43.41
-48.97
-51.35
-51.40
-50.07
-48.06
-45.92
-44.07
-42.94
-42.81
-43.60
-44.76
-45.20
-43.69
-39.25
-31.63
-21.44
-10.06
0.87
9.92
16.30
19.96
21.46
21.68
21.44
21.28
21.40
21.67
21.87
21.83
21.57
21.28
21.20
21.46
21.95
22.32
22.19
21.32
19.71
17.63
15.43
13.35
11.46
9.65
7.85
6.09
4.51
3.29
2.42
1.59
0.27
-2.02
-5.54
-10.11
-15.15
-20.00
-24.20
-27.69
-30.80
-33.90
-37.11
-40.02
-41.77
-41.38
-38.16
-32.06
-23.71
-14.21
-4.82
3.49
10.14
15.02
18.31
20.28
21.20
21.27
20.71
19.83
19.02
18.65
18.97
19.93
21.25
22.55
23.45
23.81
23.67
23.17
22.40
21.30
19.72
17.53
14.77
11.70
8.66
6.01
3.91
2.28
0.83
-0.79
-2.85
-5.37
-8.18
-10.97
-13.42
-15.44
-17.16
-19.00
-21.46
-24.91
-29.36
-34.30
-38.78
-41.65
-41.87
-38.89
-32.83
-24.50
-15.11
-5.96
2.00
8.24
12.69
15.57
17.12
17.60
17.22
16.35
15.41
14.89
15.14
16.27
18.07
20.15
22.10
23.59
24.50
24.75
24.27
23.00
20.89
18.04
14.76
11.51
8.77
6.80
5.49
4.46
3.20
1.36
-1.01
-3.60
-5.96
-7.87
-9.46
-11.13
-13.31
-16.26
-19.95
-24.18
-28.64
-33.04
-37.09
-40.31
-41.96
-41.25
-37.59
-31.11
-22.59
-13.33
-4.65
2.54
8.04
12.14
15.29
17.68
19.22
19.73
19.24
18.20
17.40
17.51
18.82
20.90
22.97
24.29
24.54
24.01
23.34
23.09
23.37
23.61
23.00
20.93
17.34
12.90
8.70
5.64
4.06
3.44
2.80
1.18
-1.79
-5.77
-9.85
-13.12
-15.11
-16.11
-16.93
-18.50
-21.36
-25.53
-30.59
-35.91
-40.87
-44.95
-47.59
-48.17
-46.07
-40.93
-32.97
-23.06
-12.50
-2.67
5.38
11.23
15.01
17.25
18.55
19.37
20.05
20.74
21.52
22.36
23.18
23.83
24.20
24.20
23.92
23.49
23.11
22.85
22.63
22.24
21.40
19.91
17.80
15.27
12.66
10.24
8.15
6.35
4.70
3.02
1.20
-0.76
-2.84
-4.96
-7.10
-9.22
-11.36
-13.60
-16.13
-19.14
-22.86
-27.41
-32.65
-38.07
-42.82
-45.86
-46.22
-43.33
-37.24
-28.65
-18.74
-8.81
0.04
7.11
12.22
15.62
17.70
18.92
19.60
19.98
20.17
20.28
20.44
20.82
21.52
22.50
23.60
24.58
25.25
25.55
25.63
25.65
25.69
25.58
25.02
23.68
21.46
18.55
15.44
12.64
10.52
9.14
8.18
7.17
5.61
3.20
-0.08
-3.95
-7.98
-11.76
-15.03
-17.83
-20.49
-23.51
-27.30
-32.04
-37.43
-42.75
-46.95
-48.90
-47.70
-42.99
-35.08
-24.92
-13.87
-3.35
5.54
12.15
16.43
18.72
19.61
19.69
19.45
19.22
19.17
19.41
19.98
20.94
22.27
23.84
25.41
26.66
27.32
27.29
26.70
25.83
24.92
24.00
22.86
21.20
18.80
15.80
12.64
9.89
7.92
6.70
5.74
4.41
2.24
-0.83
-4.42
-7.97
-11.03
-13.60
-16.00
-18.69
-22.00
-25.91
-30.15
-34.31
-37.99
-40.86
-42.53
-42.48
-40.14
-35.08
-27.35
-17.68
-7.35
2.08
9.35
13.88
15.87
16.16
15.78
15.51
15.71
16.26
16.86
17.25
17.45
17.65
18.08
18.87
20.00
21.26
22.41
23.25
23.57
23.30
22.31
20.61
18.28
15.52
12.61
9.83
7.38
5.30
3.48
1.73
-0.11
-2.16
-4.42
-6.81
-9.24
-11.59
-13.81
-15.92
-18.08
-20.50
-23.46
-27.09
-31.32
-35.75
-39.64
-42.02
-41.93
-38.77
-32.52
-23.81
-13.79
-3.83
4.94
11.82
16.64
19.62
21.11
21.40
20.69
19.24
17.41
15.75
14.80
14.87
15.91
17.49
19.01
20.00
20.31
20.07
19.63
19.22
18.85
18.28
17.21
15.48
13.12
10.41
7.72
5.27
3.09
0.98
-1.35
-4.11
-7.29
-10.68
-13.93
-16.75
-19.05
-20.97
-22.85
-25.10
-28.08
-31.92
-36.52
-41.39
-45.75
-48.60
-49.05
-46.46
-40.75
-32.41
-22.38
-11.91
-2.13
6.08
12.23
16.27
18.44
19.19
19.06
18.55
18.09
17.98
18.37
19.23
20.44
21.76
23.01
24.08
24.94
25.61
26.06
26.15
25.67
24.47
22.54
20.02
17.17
14.27
11.49
8.89
6.43
4.02
1.58
-0.94
-3.61
-6.43
-9.37
-12.36
-15.31
-18.16
-20.95
-23.84
-27.02
-30.73
-35.04
-39.76
-44.33
-47.88
-49.36
-47.89
-43.07
-35.24
-25.36
-14.81
-4.93
3.34
9.69
14.27
17.50
19.70
21.06
21.63
21.51
20.98
20.48
20.42
21.01
22.13
23.39
24.34
24.68
24.40
23.78
23.13
22.64
22.23
21.55
20.20
17.99
15.04
11.78
8.74
6.21
4.18
2.30
0.14
-2.57
-5.79
-9.24
-12.55
-15.49
-18.07
-20.53
-23.22
-26.45
-30.39
-34.90
-39.60
-43.81
-46.71
-47.44
-45.40
-40.37
-32.64
-22.99
-12.54
-2.50
6.13
12.74
17.20
19.77
20.90
21.09
20.76
20.21
19.67
19.37
19.48
20.09
21.18
22.56
23.98
25.19
25.96
26.10
25.54
24.27
22.44
20.31
18.16
16.17
14.37
12.59
10.63
8.35
5.79
3.15
0.66
-1.58
-3.61
-5.62
-7.71
-9.91
-12.18
-14.59
-17.41
-21.01
-25.66
-31.17
-36.70
-40.98
-42.67
-41.00
-36.01
-28.56
-19.88
-11.13
-3.03
4.13
10.29
15.30
18.89
20.81
21.03
19.99
18.52
17.52
17.61
18.77
20.50
22.14
23.23
23.79
24.20
24.82
25.72
26.37
26.03
24.14
20.70
16.40
12.29
9.20
7.39
6.28
4.96
2.69
-0.69
-4.63
-8.29
-10.98
-12.57
-13.56
-14.75
-16.81
-20.00
-24.13
-28.74
-33.34
-37.43
-40.60
-42.35
-42.17
-39.60
-34.48
-27.14
-18.36
-9.21
-0.75
6.15
11.08
14.02
15.24
15.22
14.46
13.45
12.53
11.97
11.87
12.28
13.13
14.29
15.55
16.67
17.50
17.87
17.75
17.11
15.98
14.33
12.18
9.61
6.81
4.03
1.47
-0.80
-2.89
-5.00
-7.29
-9.81
-12.46
-15.17
-17.94
-20.98
-24.57
-28.88
-33.86
-39.04
-43.63
-46.71
-47.43
-45.27
-40.20
-32.66
-23.49
-13.73
-4.36
3.84
10.39
15.11
18.09
19.53
19.75
19.15
18.14
17.14
16.51
16.48
17.11
18.28
19.74
21.17
22.26
22.80
22.64
21.79
20.30
18.32
16.02
13.55
11.02
8.42
5.68
2.69
-0.63
-4.22
-7.88
-11.34
-14.36
-16.84
-18.96
-21.07
-23.71
-27.29
-32.00
-37.63
-43.53
-48.77
-52.26
-53.06
-50.60
-44.85
-36.35
-26.06
-15.18
-4.88
3.92
10.71
15.37
18.13
19.44
19.84
19.82
19.76
19.90
20.33
21.06
22.09
23.36
24.88
26.50
27.98
28.94
29.01
27.97
25.88
23.10
20.16
17.44
15.02
12.69
10.12
7.11
3.73
0.27
-2.90
-5.68
-8.16
-10.68
-13.54
-16.92
-20.84
-25.27
-30.18
-35.58
-41.28
-46.68
-50.73
-52.12
-49.78
-43.37
-33.50
-21.72
-9.92
0.23
7.88
13.04
16.38
18.71
20.59
22.06
22.90
23.00
22.52
22.03
22.21
23.42
25.57
27.98
29.80
30.37
29.55
27.68
25.38
23.21
21.40
19.77
17.96
15.61
12.57
8.97
5.13
1.43
-1.81
-4.50
-6.72
-8.73
-10.82
-13.27
-16.29
-20.00
-24.43
-29.58
-35.27
-41.06
-46.15
-49.45
-49.82
-46.51
-39.45
-29.44
-17.92
-6.58
3.19
10.65
15.79
19.08
21.18
22.64
23.75
24.60
25.20
25.65
26.10
26.73
27.60
28.66
29.72
30.54
30.93
30.77
30.04
28.77
27.02
24.89
22.49
19.92
17.25
14.48
11.53
8.39
5.10
1.78
-1.39
-4.31
-6.97
-9.46
-11.98
-14.74
-17.92
-21.73
-26.30
-31.66
-37.57
-43.45
-48.34
-51.06
-50.62
-46.44
-38.75
-28.49
-17.18
-6.38
2.69
9.48
14.10
17.08
19.03
20.31
21.05
21.26
21.00
20.59
20.50
21.18
22.80
25.11
27.54
29.46
30.36
30.12
28.93
27.17
25.16
23.03
20.68
17.94
14.69
10.99
7.08
3.24
-0.29
-3.43
-6.28
-9.01
-11.81
-14.86
-18.31
-22.28
-26.91
-32.28
-38.29
-44.52
-50.18
-54.14
-55.21
-52.49
-45.73
-35.57
-23.35
-10.77
0.61
9.75
16.32
20.53
22.85
23.78
23.74
23.08
22.17
21.42
21.22
21.81
23.20
25.10
27.10
28.78
29.87
30.27
30.07
29.39
28.27
26.68
24.51
21.73
18.46
15.00
11.69
8.77
6.23
3.81
1.18
-1.90
-5.44
-9.23
-12.94
-16.38
-19.53
-22.63
-26.08
-30.26
-35.46
-41.66
-48.49
-55.10
-60.32
-62.87
-61.70
-56.41
-47.41
-35.82
-23.16
-10.90
-0.15
8.51
14.97
19.42
22.20
23.70
24.37
24.68
25.08
25.89
27.24
29.03
31.00
32.86
34.41
35.57
36.32
36.64
36.47
35.73
34.32
32.23
29.56
26.52
23.33
20.16
17.11
14.22
11.44
8.68
5.81
2.70
-0.72
-4.43
-8.32
-12.25
-16.11
-19.94
-23.94
-28.44
-33.71
-39.81
-46.36
-52.44
-56.74
-57.86
-54.82
-47.42
-36.46
-23.52
-10.50
1.07
10.33
17.13
21.80
24.74
26.29
26.64
26.13
25.29
24.78
25.16
26.57
28.69
30.94
32.72
33.72
34.01
33.85
33.51
33.00
32.17
30.80
28.78
26.28
23.64
21.20
19.13
17.15
14.82
11.71
7.67
3.00
-1.64
-5.65
-8.70
-11.11
-13.53
-16.64
-20.84
-26.01
-31.68
-37.34
-42.64
-47.46
-51.57
-54.34
-54.76
-51.69
-44.48
-33.51
-20.20
-6.79
4.64
12.83
17.71
20.15
21.34
22.23
23.15
23.90
24.12
23.68
22.87
22.24
22.31
23.31
25.10
27.20
29.04
30.14
30.20
29.18
27.21
24.56
21.55
18.40
15.32
12.39
9.59
6.89
4.19
1.43
-1.41
-4.30
-7.17
-9.94
-12.62
-15.24
-17.99
-21.07
-24.71
-29.03
-34.03
-39.44
-44.74
-49.09
-51.47
-50.93
-46.88
-39.38
-29.20
-17.69
-6.44
3.19
10.43
15.15
17.81
19.12
19.68
19.88
19.83
19.54
19.13
18.83
18.96
19.76
21.20
22.96
24.51
25.39
25.32
24.34
22.68
20.63
18.39
16.00
13.43
10.62
7.65
4.64
1.77
-0.89
-3.45
-6.05
-8.92
-12.17
-15.79
-19.65
-23.59
-27.54
-31.58
-35.92
-40.73
-45.98
-51.27
-55.73
-58.21
-57.63
-53.26
-45.12
-34.03
-21.43
-8.99
1.88
10.39
16.40
20.32
22.79
24.32
25.20
25.57
25.47
25.11
24.75
24.68
25.05
25.80
26.71
27.51
27.98
28.06
27.72
26.94
25.69
23.84
21.34
18.28
14.88
11.45
8.23
5.28
2.49
-0.39
-3.50
-6.80
-10.07
-13.07
-15.71
-18.15
-20.74
-23.91
-27.97
-33.00
-38.78
-44.80
-50.29
-54.31
-55.86
-54.14
-48.80
-40.16
-29.20
-17.31
-5.94
3.86
11.60
17.25
21.13
23.62
25.00
25.50
25.30
24.62
23.79
23.12
22.90
23.29
24.24
25.55
26.83
27.65
27.66
26.73
25.01
22.84
20.59
18.45
16.35
14.08
11.42
8.38
5.17
2.12
-0.54
-2.83
-5.06
-7.65
-10.82
-14.55
-18.53
-22.46
-26.20
-30.00
-34.27
-39.31
-44.90
-50.19
-53.77
-54.25
-50.76
-43.26
-32.73
-20.75
-9.03
1.10
8.96
14.49
18.10
20.32
21.59
22.24
22.42
22.30
22.04
21.90
22.12
22.92
24.29
26.04
27.79
29.11
29.60
29.11
27.66
25.52
22.99
20.35
17.75
15.19
12.60
9.88
7.00
4.02
1.01
-1.94
-4.83
-7.68
-10.56
-13.50
-16.52
-19.65
-23.01
-26.80
-31.23
-36.33
-41.72
-46.60
-49.83
-50.24
-47.09
-40.32
-30.69
-19.54
-8.43
1.34
9.03
14.54
18.19
20.45
21.69
22.08
21.63
20.45
18.85
17.33
16.48
16.69
18.00
20.03
22.19
23.88
24.78
24.89
24.41
23.59
22.52
21.07
19.05
16.33
13.01
9.40
5.85
2.63
-0.21
-2.82
-5.39
-8.09
-10.96
-13.93
-16.97
-20.15
-23.72
-27.94
-32.91
-38.36
-43.58
-47.48
-48.87
-46.94
-41.47
-33.08
-22.95
-12.49
-2.95
4.96
10.99
15.30
18.14
19.67
19.97
19.16
17.53
15.66
14.21
13.73
14.40
15.97
17.90
19.61
20.72
21.15
21.07
20.66
19.94
18.76
16.84
14.05
10.45
6.38
2.28
-1.52
-4.86
-7.86
-10.74
-13.72
-16.88
-20.14
-23.48
-26.98
-30.86
-35.38
-40.56
-45.97
-50.70
-53.51
-53.26
-49.31
-41.82
-31.74
-20.47
-9.49
0.13
7.85
13.61
17.59
20.03
21.10
21.01
20.11
18.95
18.15
18.24
19.41
21.49
23.95
26.21
27.78
28.39
28.05
26.93
25.22
23.10
20.65
17.88
14.77
11.38
7.79
4.16
0.62
-2.75
-5.94
-8.97
-11.89
-14.74
-17.58
-20.55
-23.85
-27.76
-32.56
-38.29
-44.67
-50.91
-55.85
-58.21
-56.94
-51.65
-42.75
-31.45
-19.34
-7.92
1.73
9.18
14.51
18.11
20.37
21.65
22.26
22.54
22.85
23.49
24.58
26.00
27.49
28.74
29.61
30.13
30.42
30.51
30.26
29.39
27.69
25.17
22.09
18.87
15.82
12.98
10.13
6.95
3.25
-0.87
-5.05
-8.86
-12.04
-14.61
-16.92
-19.46
-22.76
-27.19
-32.80
-39.32
-46.08
-52.12
-56.30
-57.58
-55.26
-49.18
-39.90
-28.52
-16.60
-5.64
3.29
9.73
13.96
16.69
18.71
20.53
22.21
23.57
24.40
24.86
25.37
26.49
28.50
31.22
33.95
35.88
36.45
35.62
33.82
31.67
29.58
27.58
25.31
22.34
18.53
14.15
9.77
5.97
2.99
0.65
-1.60
-4.29
-7.64
-11.48
-15.38
-18.93
-22.05
-25.05
-28.51
-32.96
-38.57
-44.92
-51.06
-55.67
-57.48
-55.58
-49.78
-40.66
-29.39
-17.46
-6.21
3.42
11.02
16.70
20.76
23.55
25.36
26.40
26.91
27.21
27.64
28.52
29.96
31.85
33.83
35.49
36.45
36.48
35.59
33.93
31.73
29.20
26.51
23.68
20.68
17.50
14.18
10.85
7.67
4.70
1.84
-1.06
-4.20
-7.62
-11.24
-14.83
-18.25
-21.48
-24.73
-28.42
-32.92
-38.45
-44.77
-51.15
-56.39
-59.13
-58.17
-52.98
-43.92
-32.14
-19.32
-7.08
3.40
11.57
17.48
21.51
24.07
25.57
26.29
26.55
26.74
27.23
28.28
29.91
31.90
33.83
35.30
36.11
36.26
35.92
35.23
34.22
32.77
30.69
27.90
24.52
20.81
17.12
13.69
10.62
7.81
5.07
2.24
-0.78
-3.93
-7.10
-10.20
-13.19
-16.16
-19.29
-22.77
-26.84
-31.66
-37.28
-43.52
-49.83
-55.29
-58.70
-58.90
-55.16
-47.49
-36.75
-24.42
-12.18
-1.43
7.05
13.09
17.01
19.38
20.72
21.45
21.86
22.16
22.51
23.12
24.12
25.52
27.25
29.06
30.64
31.67
31.97
31.49
30.39
28.77
26.72
24.25
21.31
18.01
14.53
11.16
8.09
5.27
2.45
-0.65
-4.21
-8.04
-11.77
-15.02
-17.69
-20.12
-22.98
-26.90
-32.26
-38.85
-45.97
-52.54
-57.37
-59.50
-58.26
-53.43
-45.32
-34.66
-22.54
-10.25
1.03
10.35
17.21
21.62
23.98
24.91
25.08
24.99
25.00
25.25
25.77
26.54
27.52
28.67
29.89
31.01
31.87
32.24
31.94
30.82
28.85
26.07
22.70
19.00
15.32
11.89
8.80
6.00
3.29
0.48
-2.56
-5.84
-9.26
-12.63
-15.86
-18.92
-21.98
-25.39
-29.58
-34.92
-41.51
-48.97
-56.49
-62.90
-66.91
-67.44
-63.91
-56.40
-45.61
-32.78
-19.39
-6.85
3.77
11.94
17.62
21.23
23.40
24.76
25.81
26.86
28.06
29.44
30.98
32.56
34.07
35.33
36.19
36.58
36.52
36.09
35.38
34.38
32.99
31.06
28.45
25.17
21.42
17.53
13.87
10.64
7.83
5.26
2.60
-0.38
-3.80
-7.61
-11.66
-15.75
-19.72
-23.52
-27.24
-31.15
-35.65
-41.04
-47.37
-54.11
-60.19
-64.09
-64.32
-59.98
-51.16
-38.96
-25.19
-11.77
-0.13
9.05
15.83
20.72
24.23
26.70
28.32
29.20
29.62
29.94
30.59
31.78
33.44
35.21
36.64
37.36
37.27
36.54
35.49
34.38
33.19
31.74
29.70
26.83
23.18
19.10
15.10
11.60
8.75
6.39
4.12
1.51
-1.68
-5.45
-9.58
-13.74
-17.67
-21.25
-24.52
-27.67
-30.96
-34.65
-39.03
-44.25
-50.17
-56.23
-61.43
-64.44
-63.99
-59.31
-50.45
-38.39
-24.75
-11.36
0.30
9.43
15.98
20.40
23.28
25.14
26.25
26.77
26.89
26.93
27.27
28.22
29.81
31.73
33.50
34.69
35.14
34.95
34.43
33.79
33.02
31.84
29.89
26.94
23.09
18.73
14.48
10.87
8.10
5.96
3.94
1.47
-1.75
-5.66
-9.83
-13.75
-17.12
-20.02
-22.89
-26.31
-30.74
-36.26
-42.55
-48.93
-54.52
-58.38
-59.63
-57.64
-52.16
-43.47
-32.40
-20.23
-8.30
2.24
10.72
16.94
21.11
23.56
24.67
24.74
24.13
23.21
22.41
22.10
22.46
23.46
24.89
26.43
27.75
28.57
28.71
28.07
26.65
24.58
22.09
19.41
16.72
14.09
11.49
8.86
6.14
3.39
0.69
-1.92
-4.44
-7.00
-9.74
-12.70
-15.87
-19.10
-22.37
-25.74
-29.44
-33.72
-38.60
-43.70
-48.13
-50.71
-50.34
-46.35
-38.82
-28.60
-17.04
-5.53
4.74
13.15
19.41
23.57
25.81
26.45
25.91
24.76
23.60
22.89
22.75
23.01
23.37
23.60
23.74
24.00
24.54
25.32
25.79
25.28
23.30
19.83
15.48
11.18
7.72
5.39
3.77
2.06
-0.49
-4.14
-8.59
-13.16
-17.21
-20.42
-23.01
-25.46
-28.29
-31.84
-36.17
-41.18
-46.62
-52.08
-57.03
-60.60
-61.80
-59.72
-53.89
-44.55
-32.71
-19.81
-7.40
3.30
11.62
17.45
21.07
22.95
23.60
23.56
23.34
23.35
23.91
25.09
26.79
28.70
30.46
31.78
32.52
32.62
32.12
31.07
29.49
27.38
24.81
21.87
18.72
15.49
12.24
8.94
5.50
1.83
-2.11
-6.19
-10.21
-13.92
-17.19
-20.06
-22.75
-25.68
-29.28
-33.88
-39.54
-45.97
-52.46
-57.96
-61.22
-61.11
-56.98
-48.87
-37.62
-24.68
-11.74
-0.24
8.92
15.56
20.01
22.86
24.68
25.85
26.55
26.95
27.23
27.62
28.35
29.49
30.95
32.49
33.80
34.65
34.91
34.56
33.58
32.02
29.92
27.34
24.37
21.10
17.62
13.98
10.26
6.54
2.88
-0.65
-4.10
-7.53
-11.03
-14.68
-18.49
-22.44
-26.63
-31.19
-36.32
-42.08
-48.20
-53.91
-58.02
-59.23
-56.53
-49.66
-39.25
-26.68
-13.72
-1.93
7.72
14.95
20.03
23.41
25.46
26.40
26.38
25.65
24.65
23.97
24.04
25.02
26.67
28.47
29.84
30.45
30.27
29.50
28.34
26.85
24.91
22.37
19.21
15.61
11.93
8.45
5.21
1.97
-1.55
-5.50
-9.72
-13.80
-17.39
-20.35
-22.99
-25.85
-29.52
-34.36
-40.30
-46.88
-53.22
-58.20
-60.76
-60.02
-55.58
-47.65
-37.02
-24.91
-12.68
-1.50
7.76
14.69
19.27
21.83
22.89
23.08
23.00
23.13
23.73
24.85
26.43
28.35
30.47
32.65
34.69
36.35
37.25
37.05
35.54
32.75
28.96
24.63
20.27
16.27
12.74
9.57
6.47
3.16
-0.47
-4.36
-8.28
-11.99
-15.41
-18.67
-22.09
-26.06
-30.94
-36.88
-43.74
-51.04
-57.93
-63.28
-65.84
-64.58
-58.98
-49.32
-36.71
-22.75
-9.16
2.70
12.12
19.01
23.72
26.77
28.60
29.61
30.15
30.55
31.10
31.97
33.16
34.48
35.65
36.45
36.77
36.66
36.22
35.51
34.46
32.90
30.67
27.74
24.29
20.61
17.02
13.69
10.57
7.45
4.13
0.47
-3.48
-7.57
-11.65
-15.69
-19.78
-24.14
-29.01
-34.59
-40.96
-47.99
-55.26
-61.99
-67.01
-69.05
-67.02
-60.42
-49.58
-35.70
-20.56
-6.06
6.28
15.63
21.92
25.65
27.64
28.65
29.22
29.65
30.03
30.37
30.71
31.15
31.77
32.58
33.50
34.32
34.82
34.83
34.26
33.12
31.48
29.33
26.69
23.51
19.87
15.98
12.13
8.63
5.60
2.90
0.18
-2.99
-6.85
-11.31
-16.00
-20.39
-24.14
-27.31
-30.37
-34.03
-38.90
-45.08
-52.00
-58.38
-62.54
-63.00
-58.85
-50.23
-38.26
-24.70
-11.39
0.30
9.70
16.84
22.03
25.62
27.79
28.64
28.35
27.39
26.38
25.90
26.28
27.44
29.01
30.53
31.69
32.38
32.61
32.42
31.70
30.27
27.92
24.64
20.65
16.44
12.55
9.37
6.98
5.04
3.06
0.55
-2.68
-6.44
-10.33
-13.98
-17.24
-20.29
-23.52
-27.30
-31.90
-37.34
-43.46
-49.81
-55.61
-59.78
-61.09
-58.49
-51.54
-40.66
-27.17
-12.84
0.58
11.83
20.32
26.05
29.35
30.74
30.78
30.02
29.00
28.14
27.75
27.91
28.56
29.59
30.86
32.21
33.37
34.04
33.88
32.67
30.41
27.32
23.74
20.01
16.26
12.53
8.73
4.79
0.73
-3.35
-7.30
-11.06
-14.65
-18.17
-21.73
-25.39
-29.19
-33.22
-37.69
-42.93
-49.13
-56.11
-63.00
-68.33
-70.33
-67.59
-59.63
-47.16
-31.94
-16.19
-1.85
9.91
18.83
25.15
29.32
31.62
32.24
31.43
29.75
28.02
27.03
27.22
28.42
30.03
31.37
32.05
32.12
31.92
31.74
31.53
30.87
29.29
26.52
22.76
18.58
14.61
11.26
8.36
5.42
1.89
-2.46
-7.36
-12.16
-16.24
-19.32
-21.76
-24.24
-27.49
-31.91
-37.46
-43.74
-50.30
-56.61
-62.15
-66.10
-67.37
-64.80
-57.61
-45.90
-30.90
-14.66
0.48
12.70
21.20
26.26
28.88
30.20
31.00
31.61
31.98
32.01
31.82
31.73
32.10
33.06
34.46
35.90
36.92
37.19
36.57
35.08
32.84
29.97
26.62
23.00
19.29
15.66
12.15
8.67
5.03
1.09
-3.16
-7.52
-11.69
-15.41
-18.57
-21.37
-24.24
-27.66
-32.09
-37.74
-44.55
-52.08
-59.48
-65.56
-68.88
-68.15
-62.61
-52.36
-38.45
-22.66
-6.99
6.90
18.00
26.08
31.37
34.39
35.68
35.74
35.05
34.08
33.35
33.22
33.88
35.27
37.09
38.95
40.49
41.44
41.65
41.06
39.66
37.46
34.53
30.95
26.90
22.59
18.20
13.94
9.91
6.12
2.56
-0.88
-4.29
-7.74
-11.27
-14.87
-18.53
-22.27
-26.20
-30.53
-35.56
-41.51
-48.31
-55.38
-61.55
-65.26
-64.95
-59.75
-49.76
-36.26
-21.28
-6.96
5.06
14.04
20.09
23.78
25.74
26.44
26.09
24.90
23.26
21.72
20.95
21.38
23.12
25.79
28.72
31.21
32.70
33.01
32.20
30.49
28.05
24.99
21.37
17.29
13.04
8.95
5.26
2.00
-1.05
-4.23
-7.75
-11.57
-15.40
-18.87
-21.82
-24.48
-27.40
-31.25
-36.52
-43.28
-51.07
-58.90
-65.46
-69.30
-69.16
-64.34
-54.90
-41.77
-26.61
-11.31
2.43
13.46
21.40
26.41
29.00
29.81
29.40
28.34
27.03
25.88
25.25
25.39
26.38
28.13
30.38
32.69
34.54
35.45
35.16
33.66
31.27
28.40
25.41
22.47
19.41
16.00
12.04
7.59
2.96
-1.37
-5.06
-7.99
-10.35
-12.57
-15.08
-18.23
-22.17
-26.96
-32.57
-38.82
-45.30
-51.17
-55.26
-56.27
-53.20
-45.75
-34.53
-20.88
-6.59
6.68
17.64
25.61
30.41
32.23
31.59
29.20
25.89
22.52
19.83
18.33
18.18
19.25
21.14
23.28
25.12
26.16
26.16
25.08
23.11
20.56
17.70
14.70
11.54
8.10
4.24
-0.12
-4.92
-9.92
-14.80
-19.19
-22.84
-25.71
-28.05
-30.39
-33.43
-37.76
-43.57
-50.43
-57.20
-62.29
-63.99
-61.13
-53.36
-41.38
-26.67
-11.08
3.63
16.15
25.79
32.44
36.33
37.96
37.88
36.66
34.90
33.07
31.58
30.65
30.35
30.53
30.91
31.19
31.05
30.30
28.91
26.92
24.49
21.75
18.81
15.68
12.34
8.70
4.69
0.30
-4.37
-9.12
-13.71
-18.01
-21.98
-25.87
-30.08
-35.10
-41.35
-48.93
-57.45
-65.90
-72.78
-76.38
-75.32
-69.00
-57.82
-43.24
-27.21
-11.71
1.79
12.55
20.47
25.86
29.09
30.54
30.61
29.79
28.69
27.94
27.96
28.85
30.32
31.76
32.61
32.45
31.26
29.33
27.08
24.87
22.82
20.78
18.39
15.30
11.30
6.40
0.90
-4.80
-10.32
-15.39
-19.94
-24.10
-28.13
-32.48
-37.68
-44.15
-51.98
-60.64
-68.79
-74.53
-75.87
-71.49
-61.24
-46.40
-29.21
-12.16
2.81
14.70
23.49
29.67
33.85
36.40
37.50
37.29
36.10
34.53
33.23
32.71
33.12
34.22
35.51
36.42
36.56
35.81
34.26
32.18
29.78
27.18
24.33
21.04
17.11
12.47
7.18
1.50
-4.18
-9.55
-14.41
-18.77
-22.79
-26.76
-31.04
-36.03
-42.15
-49.71
-58.63
-68.20
-76.91
-82.78
-83.80
-78.73
-67.58
-51.76
-33.62
-15.70
0.00
12.50
21.74
28.30
32.90
36.11
38.28
39.65
40.46
41.02
41.62
42.44
43.49
44.60
45.50
45.95
45.79
44.98
43.60
41.73
39.42
36.65
33.42
29.78
25.89
21.89
17.84
13.69
9.25
4.40
-0.78
-6.01
-10.89
-15.21
-19.02
-22.70
-26.74
-31.59
-37.52
-44.56
-52.52
-60.90
-68.76
-74.66
-76.91
-74.02
-65.34
-51.46
-34.16
-15.99
0.60
14.00
23.73
30.34
34.90
38.33
41.18
43.38
44.64
44.87
44.32
43.59
43.37
44.00
45.33
46.74
47.57
47.41
46.37
44.94
43.62
42.57
41.52
39.79
36.80
32.44
27.13
21.70
16.95
13.22
10.24
7.31
3.66
-1.05
-6.57
-12.24
-17.35
-21.59
-25.21
-29.03
-34.01
-40.84
-49.60
-59.54
-69.18
-76.56
-79.74
-77.33
-68.93
-55.36
-38.41
-20.42
-3.56
10.71
21.84
29.99
35.64
39.26
41.12
41.41
40.43
38.74
37.06
36.11
36.28
37.54
39.45
41.37
42.80
43.47
43.46
42.98
42.22
41.18
39.67
37.45
34.45
30.85
27.07
23.53
20.40
17.40
13.96
9.40
3.31
-4.19
-12.48
-20.65
-27.89
-33.80
-38.49
-42.55
-46.78
-51.93
-58.45
-66.24
-74.55
-82.00
-86.80
-87.20
-82.08
-71.30
-55.88
-37.74
-19.21
-2.41
11.21
21.06
27.35
30.77
32.25
32.59
32.42
32.15
32.02
32.15
32.64
33.49
34.63
35.93
37.22
38.33
39.09
39.38
39.04
37.88
35.79
32.75
28.89
24.52
20.03
15.75
11.92
8.57
5.56
2.60
-0.62
-4.31
-8.50
-13.06
-17.72
-22.26
-26.58
-30.82
-35.41
-40.88
-47.73
-56.05
-65.18
-73.66
-79.43
-80.42
-75.25
-63.91
-47.81
-29.36
-11.23
4.53
16.90
25.91
32.19
36.56
39.59
41.57
42.62
42.84
42.47
41.78
41.02
40.29
39.47
38.33
36.71
34.67
32.57
30.81
29.66
29.02
28.39
27.12
24.76
21.25
17.00
12.66
8.81
5.76
3.42
1.45
-0.58
-3.02
-6.04
-9.66
-13.75
-18.05
-22.31
-26.32
-30.12
-33.97
-38.41
-44.06
-51.34
-60.03
-69.05
-76.54
-80.25
-78.37
-70.13
-56.33
-39.05
-21.00
-4.56
8.87
18.99
26.37
31.75
35.60
38.00
38.90
38.43
37.14
35.87
35.41
36.19
38.04
40.35
42.35
43.46
43.52
42.75
41.57
40.33
39.11
37.68
35.63
32.59
28.43
23.40
18.10
13.26
9.45
6.85
5.12
3.61
1.56
-1.55
-5.79
-10.80
-15.94
-20.65
-24.66
-28.06
-31.35
-35.11
-39.88
-45.93
-53.16
-61.08
-68.68
-74.55
-77.09
-74.91
-67.30
-54.59
-38.20
-20.29
-3.18
11.32
22.23
29.48
33.60
35.42
35.70
35.04
33.92
32.72
31.81
31.47
31.88
33.03
34.71
36.58
38.19
39.19
39.39
38.79
37.56
35.93
34.06
31.95
29.47
26.43
22.71
18.42
13.86
9.53
5.88
3.15
1.18
-0.53
-2.64
-5.70
-9.92
-14.99
-20.32
-25.23
-29.25
-32.36
-34.92
-37.55
-40.87
-45.29
-50.97
-57.69
-64.81
-71.29
-75.71
-76.54
-72.55
-63.23
-49.12
-31.78
-13.44
3.62
17.65
27.78
34.07
37.16
37.97
37.31
35.79
33.83
31.83
30.15
29.17
29.12
30.01
31.54
33.20
34.46
34.96
34.63
33.63
32.23
30.61
28.73
26.39
23.34
19.49
15.05
10.48
6.29
2.87
0.30
-1.70
-3.58
-5.80
-8.63
-12.02
-15.69
-19.26
-22.44
-25.19
-27.71
-30.35
-33.51
-37.44
-42.21
-47.66
-53.35
-58.62
-62.50
-63.83
-61.50
-54.81
-43.80
-29.45
-13.43
2.31
16.06
26.69
33.72
37.14
37.23
34.49
29.60
23.52
17.39
12.36
9.23
8.36
9.57
12.28
15.76
19.27
22.24
24.31
25.34
25.33
24.44
22.79
20.45
17.49
14.01
10.21
6.40
2.90
-0.10
-2.63
-4.97
-7.50
-10.50
-14.03
-17.87
-21.65
-24.98
-27.72
-30.06
-32.47
-35.55
-39.74
-45.02
-50.80
-55.89
-58.81
-58.22
-53.34
-44.23
-31.83
-17.69
-3.52
9.24
19.62
27.21
31.98
34.11
33.94
31.90
28.65
24.98
21.68
19.39
18.40
18.65
19.80
21.41
23.11
24.58
25.58
25.86
25.21
23.48
20.71
17.12
13.11
9.05
5.23
1.69
-1.66
-5.02
-8.52
-12.18
-15.87
-19.52
-23.05
-26.51
-29.95
-33.36
-36.68
-39.88
-43.06
-46.54
-50.74
-55.83
-61.40
-66.31
-68.85
-67.32
-60.71
-49.31
-34.58
-18.71
-3.82
8.67
18.36
25.49
30.53
33.68
34.91
34.18
31.81
28.66
25.88
24.45
24.72
26.23
28.03
29.23
29.42
28.80
27.91
27.17
26.59
25.68
23.83
20.68
16.38
11.50
6.74
2.60
-0.84
-3.87
-6.92
-10.30
-14.01
-17.84
-21.44
-24.58
-27.24
-29.74
-32.61
-36.40
-41.46
-47.76
-54.63
-60.93
-65.08
-65.62
-61.54
-52.68
-39.90
-24.82
-9.45
4.43
15.64
23.76
28.96
31.75
32.65
32.16
30.72
28.77
26.85
25.46
24.99
25.52
26.86
28.61
30.27
31.46
31.96
31.76
30.97
29.70
28.00
25.84
23.16
19.91
16.18
12.17
8.05
3.93
-0.18
-4.41
-8.77
-13.20
-17.50
-21.46
-25.00
-28.34
-31.90
-36.19
-41.58
-48.02
-54.92
-61.14
-65.24
-65.82
-61.95
-53.49
-41.21
-26.59
-11.47
2.46
13.93
22.34
27.71
30.46
31.28
30.85
29.77
28.53
27.51
26.99
27.13
27.90
29.12
30.49
31.66
32.36
32.48
31.98
30.90
29.20
26.80
23.66
19.89
15.76
11.62
7.76
4.27
1.03
-2.18
-5.55
-9.14
-12.85
-16.49
-19.93
-23.18
-26.44
-30.06
-34.46
-39.92
-46.41
-53.41
-59.83
-64.21
-65.02
-61.19
-52.48
-39.68
-24.41
-8.69
5.60
17.16
25.43
30.52
32.95
33.43
32.59
31.02
29.18
27.48
26.25
25.76
26.11
27.29
28.97
30.68
31.87
32.07
31.04
28.92
26.06
22.91
19.73
16.54
13.13
9.25
4.82
-0.01
-4.92
-9.52
-13.60
-17.15
-20.32
-23.32
-26.39
-29.72
-33.56
-38.18
-43.96
-51.07
-59.15
-67.11
-73.13
-75.16
-71.62
-62.06
-47.57
-30.40
-13.22
1.77
13.42
21.73
27.38
31.14
33.46
34.41
34.02
32.50
30.49
28.78
28.10
28.76
30.57
32.95
35.22
36.84
37.48
37.09
35.74
33.61
30.84
27.59
24.00
20.23
16.39
12.56
8.74
4.90
0.99
-3.02
-7.14
-11.31
-15.44
-19.47
-23.42
-27.40
-31.72
-36.75
-42.88
-50.30
-58.74
-67.33
-74.57
-78.61
-77.73
-71.00
-58.69
-42.27
-24.10
-6.66
8.16
19.42
27.19
32.15
35.14
36.82
37.55
37.54
37.01
36.33
35.93
36.10
36.95
38.23
39.54
40.43
40.65
40.11
38.90
37.13
34.80
31.83
28.15
23.84
19.14
14.49
10.32
6.81
3.83
0.98
-2.20
-5.99
-10.29
-14.76
-18.95
-22.66
-26.09
-29.82
-34.56
-40.80
-48.53
-56.96
-64.68
-69.84
-70.76
-66.38
-56.72
-42.91
-26.90
-10.85
3.46
15.01
23.63
29.60
33.44
35.55
36.24
35.89
34.98
34.12
33.84
34.36
35.60
37.16
38.63
39.65
40.13
40.05
39.44
38.23
36.32
33.61
30.14
26.17
22.06
18.23
14.88
11.99
9.28
6.39
3.06
-0.71
-4.73
-8.70
-12.44
-16.01
-19.68
-23.83
-28.82
-34.91
-42.20
-50.49
-59.19
-67.18
-72.92
-74.75
-71.43
-62.59
-49.02
-32.51
-15.29
0.48
13.39
22.84
29.00
32.51
34.10
34.39
33.82
32.79
31.64
30.79
30.58
31.20
32.59
34.48
36.44
38.03
38.94
39.00
38.16
36.44
33.91
30.66
26.81
22.53
18.01
13.48
9.12
5.10
1.46
-1.86
-5.05
-8.36
-11.99
-16.00
-20.26
-24.54
-28.67
-32.81
-37.36
-42.84
-49.39
-56.49
-62.70
-66.11
-64.90
-58.11
-46.13
-30.56
-13.73
2.13
15.43
25.51
32.42
36.58
38.48
38.54
37.23
35.13
32.93
31.33
30.84
31.53
33.16
35.21
37.16
38.64
39.46
39.53
38.80
37.18
34.60
31.07
26.74
21.94
17.07
12.47
8.33
4.62
1.07
-2.68
-6.89
-11.62
-16.59
-21.32
-25.36
-28.61
-31.42
-34.53
-38.76
-44.69
-52.35
-61.13
-69.84
-76.91
-80.67
-79.75
-73.37
-61.69
-45.87
-27.97
-10.32
5.07
17.01
25.39
30.86
34.37
36.73
38.25
38.92
38.71
37.87
36.96
36.67
37.39
38.97
40.73
41.86
41.83
40.70
38.98
37.32
36.05
34.98
33.49
30.90
26.99
22.12
17.10
12.76
9.55
7.22
4.97
1.88
-2.59
-8.30
-14.50
-20.19
-24.68
-27.89
-30.51
-33.61
-38.22
-44.83
-53.18
-62.20
-70.26
-75.47
-76.22
-71.56
-61.53
-47.22
-30.56
-13.82
1.07
12.92
21.45
27.08
30.52
32.39
33.14
33.07
32.53
32.01
32.02
32.93
34.76
37.14
39.47
41.18
41.93
41.71
40.79
39.46
37.88
35.99
33.49
30.14
25.88
21.03
16.18
11.91
8.52
5.85
3.37
0.42
-3.37
-7.98
-12.97
-17.79
-22.03
-25.64
-28.92
-32.40
-36.63
-42.01
-48.67
-56.33
-64.15
-70.78
-74.57
-74.00
-68.15
-57.19
-42.38
-25.73
-9.45
4.72
15.81
23.67
28.67
31.42
32.51
32.42
31.61
30.53
29.59
29.08
29.13
29.67
30.58
31.67
32.80
33.76
34.29
34.10
32.96
30.84
27.94
24.60
21.14
17.72
14.31
10.72
6.83
2.63
-1.73
-6.03
-10.08
-13.81
-17.29
-20.68
-24.19
-28.01
-32.39
-37.51
-43.47
-50.11
-56.82
-62.47
-65.55
-64.59
-58.64
-47.78
-33.15
-16.75
-0.75
13.07
23.81
31.40
36.35
39.35
40.93
41.47
41.27
40.75
40.47
41.06
42.87
45.75
48.96
51.40
52.01
50.14
45.83
39.61
32.23
24.33
16.28
8.28
0.60
-6.38
-12.19
-16.56
-19.69
-22.15
-24.70
-27.89
-31.77
-35.96
-39.86
-43.06
-45.59
-47.94
-50.79
-54.78
-60.23
-66.99
-74.41
-81.33
-86.30
-87.78
-84.52
-75.98
-62.57
-45.69
-27.40
-9.86
5.13
16.61
24.47
29.30
32.02
33.52
34.46
35.25
36.01
36.78
37.57
38.41
39.37
40.47
41.68
42.90
43.91
44.39
44.05
42.66
40.14
36.63
32.43
27.97
23.59
19.48
15.65
11.98
8.29
4.40
0.25
-4.12
-8.58
-12.99
-17.17
-21.10
-24.90
-28.91
-33.61
-39.45
-46.61
-54.69
-62.60
-68.66
-71.06
-68.42
-60.41
-47.91
-32.80
-17.36
-3.52
7.55
15.67
21.26
25.05
27.65
29.48
30.75
31.61
32.22
32.78
33.48
34.45
35.70
37.06
38.20
38.74
38.32
36.78
34.21
30.88
27.21
23.56
20.11
16.89
13.77
10.55
7.07
3.26
-0.83
-5.02
-9.12
-12.96
-16.52
-19.97
-23.58
-27.68
-32.55
-38.41
-45.31
-53.05
-61.07
-68.27
-73.16
-74.15
-70.02
-60.50
-46.46
-29.83
-12.95
2.06
13.91
22.29
27.68
30.89
32.62
33.25
32.95
31.88
30.41
29.15
28.75
29.61
31.59
34.14
36.39
37.64
37.53
36.15
34.00
31.56
29.21
27.01
24.76
22.17
19.01
15.22
10.98
6.64
2.54
-1.05
-4.09
-6.78
-9.44
-12.43
-16.07
-20.61
-26.28
-33.26
-41.53
-50.62
-59.46
-66.39
-69.50
-67.34
-59.42
-46.54
-30.61
-14.03
1.04
13.21
22.07
27.93
31.37
32.93
32.92
31.57
29.24
26.54
24.29
23.21
23.66
25.49
28.06
30.52
32.06
32.26
31.06
28.72
25.66
22.24
18.68
15.02
11.12
6.85
2.16
-2.83
-7.83
-12.53
-16.69
-20.33
-23.68
-27.09
-30.90
-35.36
-40.71
-47.15
-54.74
-63.21
-71.72
-78.75
-82.39
-80.88
-73.29
-59.99
-42.66
-23.80
-6.02
8.78
19.80
27.28
32.08
35.12
37.03
38.07
38.30
37.83
36.99
36.26
36.02
36.43
37.30
38.23
38.83
38.80
38.12
36.82
35.01
32.71
29.89
26.52
22.64
18.32
13.75
9.08
4.47
0.03
-4.16
-8.06
-11.68
-15.11
-18.52
-22.19
-26.48
-31.80
-38.51
-46.66
-55.93
-65.34
-73.32
-77.98
-77.68
-71.58
-60.02
-44.54
-27.39
-10.86
3.34
14.46
22.57
28.20
32.02
34.50
35.96
36.63
36.70
36.43
36.08
35.88
36.02
36.64
37.76
39.20
40.53
41.13
40.46
38.28
34.83
30.76
26.79
23.36
20.40
17.43
13.86
9.40
4.26
-1.00
-5.76
-9.70
-13.07
-16.42
-20.41
-25.42
-31.44
-38.14
-45.19
-52.30
-59.34
-65.91
-71.03
-73.18
-70.74
-62.71
-49.42
-32.61
-15.08
0.42
12.14
19.79
24.30
27.09
29.17
30.86
31.85
31.76
30.64
29.15
28.25
28.69
30.54
33.22
35.68
36.94
36.49
34.46
31.43
28.06
24.76
21.57
18.15
14.15
9.36
3.94
-1.66
-6.85
-11.17
-14.43
-16.87
-19.10
-21.89
-25.99
-31.87
-39.49
-48.23
-56.91
-64.01
-67.89
-67.29
-61.62
-51.26
-37.46
-22.06
-6.98
6.27
16.98
25.07
30.91
34.87
37.17
37.87
37.12
35.40
33.47
32.20
32.15
33.37
35.30
37.11
37.99
37.53
35.76
33.06
29.91
26.69
23.55
20.42
17.15
13.52
9.39
4.73
-0.35
-5.60
-10.69
-15.35
-19.50
-23.25
-26.98
-31.17
-36.30
-42.71
-50.40
-58.95
-67.39
-74.27
-77.92
-76.92
-70.58
-59.28
-44.48
-28.28
-12.78
0.51
10.97
18.79
24.55
28.82
31.94
33.99
35.06
35.36
35.27
35.30
35.79
36.80
38.10
39.28
39.97
39.96
39.22
37.85
35.95
33.55
30.62
27.16
23.26
19.06
14.75
10.47
6.26
2.11
-2.02
-6.14
-10.21
-14.21
-18.16
-22.19
-26.60
-31.75
-37.95
-45.27
-53.27
-60.97
-66.90
-69.40
-67.16
-59.65
-47.42
-32.09
-15.90
-1.07
10.84
19.29
24.68
27.95
30.04
31.57
32.71
33.43
33.75
33.85
34.04
34.57
35.49
36.57
37.51
37.91
37.54
36.33
34.39
31.94
29.26
26.55
23.96
21.39
18.65
15.52
11.85
7.69
3.32
-0.90
-4.67
-7.95
-10.94
-14.01
-17.61
-22.06
-27.55
-34.09
-41.44
-49.09
-56.15
-61.32
-63.17
-60.54
-52.99
-41.20
-26.78
-11.90
1.43
11.93
19.28
23.97
26.85
28.69
29.92
30.67
30.97
30.92
30.87
31.21
32.24
33.91
35.85
37.46
38.15
37.61
35.84
33.21
30.20
27.22
24.50
21.97
19.41
16.54
13.19
9.37
5.27
1.16
-2.69
-6.12
-9.21
-12.19
-15.47
-19.48
-24.59
-30.94
-38.26
-45.81
-52.40
-56.61
-57.19
-53.45
-45.55
-34.48
-21.79
-9.09
2.37
11.86
19.20
24.49
27.93
29.69
30.00
29.19
27.73
26.23
25.29
25.29
26.33
28.19
30.45
32.56
33.98
34.34
33.44
31.32
28.22
24.51
20.58
16.67
12.85
9.07
5.17
1.08
-3.11
-7.18
-10.86
-14.04
-16.82
-19.60
-22.94
-27.38
-33.27
-40.52
-48.59
-56.41
-62.60
-65.73
-64.71
-59.13
-49.49
-37.07
-23.60
-10.76
0.26
8.98
15.53
20.36
23.90
26.47
28.19
29.18
29.59
29.71
29.82
30.15
30.74
31.47
32.14
32.54
32.50
31.94
30.82
29.16
26.99
24.42
21.56
18.53
15.42
12.27
9.06
5.75
2.32
-1.17
-4.58
-7.78
-10.71
-13.44
-16.24
-19.49
-23.59
-28.80
-35.14
-42.27
-49.51
-55.81
-59.92
-60.71
-57.44
-50.06
-39.29
-26.49
-13.31
-1.22
8.81
16.39
21.70
25.18
27.33
28.58
29.25
29.55
29.62
29.57
29.51
29.57
29.85
30.33
30.90
31.31
31.28
30.57
29.15
27.16
24.87
22.49
20.18
17.88
15.48
12.85
9.92
6.71
3.35
-0.04
-3.33
-6.44
-9.34
-12.14
-15.01
-18.23
-22.04
-26.64
-32.11
-38.28
-44.67
-50.40
-54.27
-55.04
-51.81
-44.44
-33.74
-21.32
-9.09
1.33
9.17
14.49
17.94
20.28
21.96
22.99
23.18
22.46
21.11
19.71
18.94
19.26
20.69
22.81
24.92
26.38
26.75
25.95
24.20
21.87
19.28
16.65
13.97
11.16
8.12
4.86
1.51
-1.72
-4.68
-7.30
-9.67
-11.95
-14.37
-17.12
-20.45
-24.59
-29.70
-35.76
-42.35
-48.58
-53.22
-54.94
-52.81
-46.60
-36.92
-25.09
-12.70
-1.18
8.57
16.23
21.89
25.83
28.22
29.17
28.77
27.31
25.23
23.12
21.37
20.24
19.72
19.71
20.12
20.94
22.10
23.39
24.32
24.30
22.92
20.20
16.68
13.18
10.38
8.50
7.09
5.33
2.53
-1.49
-6.25
-10.89
-14.63
-17.21
-19.08
-21.08
-24.07
-28.49
-34.24
-40.79
-47.35
-53.06
-57.14
-58.77
-57.20
-51.94
-43.02
-31.18
-17.85
-4.81
6.34
14.61
19.87
22.67
23.90
24.41
24.73
25.10
25.55
26.02
26.50
27.03
27.59
28.16
28.67
29.08
29.36
29.47
29.28
28.61
27.26
25.11
22.21
18.80
15.24
11.85
8.75
5.87
2.99
-0.12
-3.58
-7.31
-11.09
-14.65
-17.78
-20.51
-23.05
-25.80
-29.21
-33.64
-39.14
-45.36
-51.45
-56.15
-58.11
-56.20
-49.99
-39.93
-27.32
-13.98
-1.71
8.23
15.31
19.74
22.10
23.04
23.05
22.42
21.39
20.21
19.18
18.62
18.71
19.50
20.84
22.47
24.06
25.24
25.66
25.10
23.50
21.05
18.10
15.02
12.05
9.26
6.50
3.57
0.40
-2.87
-6.02
-8.79
-11.12
-13.14
-15.13
-17.36
-20.02
-23.22
-27.03
-31.54
-36.72
-42.25
-47.34
-50.77
-51.22
-47.71
-40.16
-29.42
-17.12
-5.10
5.14
12.82
17.88
20.70
21.84
21.69
20.58
18.81
16.77
14.98
13.90
13.79
14.59
15.92
17.28
18.21
18.49
18.10
17.16
15.79
14.01
11.78
9.08
5.98
2.66
-0.66
-3.80
-6.70
-9.39
-11.96
-14.49
-17.08
-19.80
-22.75
-26.00
-29.60
-33.61
-38.13
-43.23
-48.85
-54.58
-59.52
-62.39
-61.82
-57.03
-48.15
-36.29
-23.16
-10.49
0.50
9.32
16.01
20.81
23.91
25.43
25.56
24.69
23.40
22.33
21.92
22.26
23.14
24.25
25.25
25.99
26.41
26.48
26.14
25.21
23.52
21.03
17.91
14.51
11.22
8.26
5.62
3.02
0.12
-3.27
-7.03
-10.78
-14.12
-16.83
-19.04
-21.25
-24.10
-28.11
-33.49
-39.95
-46.72
-52.60
-56.18
-56.26
-52.15
-44.02
-32.88
-20.34
-8.18
2.22
10.21
15.81
19.51
21.83
23.15
23.61
23.32
22.51
21.57
21.00
21.18
22.20
23.83
25.61
27.06
27.81
27.68
26.71
25.09
22.99
20.57
17.90
14.97
11.79
8.39
4.88
1.36
-2.06
-5.34
-8.48
-11.48
-14.38
-17.18
-19.94
-22.87
-26.28
-30.51
-35.72
-41.75
-47.86
-52.87
-55.39
-54.29
-49.09
-40.18
-28.77
-16.49
-4.84
5.18
13.11
19.06
23.26
25.91
27.14
27.06
25.94
24.26
22.70
21.83
22.01
23.17
24.94
26.75
28.11
28.70
28.46
27.49
25.92
23.89
21.52
18.85
15.93
12.78
9.39
5.76
1.97
-1.86
-5.49
-8.73
-11.50
-13.90
-16.22
-18.86
-22.20
-26.54
-31.95
-38.16
-44.51
-49.94
-53.16
-53.01
-48.80
-40.71
-29.71
-17.38
-5.40
4.99
13.16
19.12
23.20
25.73
26.85
26.61
25.17
22.97
20.78
19.40
19.36
20.65
22.73
24.75
25.96
25.98
24.92
23.17
21.19
19.17
17.02
14.45
11.24
7.36
3.04
-1.31
-5.31
-8.74
-11.61
-14.09
-16.44
-18.89
-21.69
-25.12
-29.44
-34.75
-40.77
-46.71
-51.29
-53.11
-51.09
-44.95
-35.30
-23.52
-11.29
-0.07
9.22
16.29
21.27
24.46
26.14
26.53
25.87
24.54
23.07
22.07
22.00
23.07
25.09
27.53
29.70
30.98
31.04
29.95
28.07
25.88
23.71
21.60
19.33
16.55
13.05
8.95
4.64
0.65
-2.61
-5.05
-6.86
-8.50
-10.43
-12.96
-16.26
-20.36
-25.21
-30.60
-36.08
-40.84
-43.73
-43.59
-39.70
-32.14
-21.96
-10.85
-0.64
7.31
12.49
15.18
16.17
16.27
16.00
15.53
14.80
13.85
12.88
12.25
12.28
13.06
14.41
15.87
17.02
17.54
17.39
16.75
15.85
14.84
13.70
12.25
10.27
7.63
4.39
0.78
-2.85
-6.23
-9.23
-11.88
-14.35
-16.80
-19.38
-22.29
-25.78
-30.08
-35.29
-41.13
-46.72
-50.79
-51.95
-49.35
-42.93
-33.47
-22.35
-10.97
-0.40
8.80
16.41
22.24
26.07
27.72
27.27
25.29
22.76
20.76
20.12
20.97
22.88
25.11
26.98
28.14
28.70
28.92
28.98
28.76
27.94
26.27
23.79
20.85
17.98
15.52
13.43
11.20
8.22
4.08
-1.13
-6.94
-12.70
-18.01
-22.83
-27.55
-32.60
-38.12
-43.78
-48.69
-51.72
-51.82
-48.32
-41.29
-31.46
-20.13
-8.75
1.41
9.60
15.54
19.42
21.54
22.14
21.42
19.65
17.26
14.94
13.39
13.16
14.36
16.61
19.19
21.28
22.29
22.01
20.59
18.42
15.89
13.20
10.31
7.01
3.08
-1.48
-6.40
-11.18
-15.30
-18.44
-20.67
-22.43
-24.40
-27.26
-31.46
-37.04
-43.49
-49.80
-54.66
-56.70
-54.95
-49.16
-39.93
-28.58
-16.73
-5.85
3.15
9.99
14.84
18.06
19.92
20.57
20.19
19.09
17.79
16.88
16.81
17.71
19.36
21.23
22.71
23.32
22.81
21.19
18.68
15.63
12.33
9.01
5.72
2.47
-0.82
-4.15
-7.38
-10.29
-12.65
-14.37
-15.61
-16.82
-18.68
-21.85
-26.78
-33.44
-41.25
-49.10
-55.58
-59.27
-59.16
-54.94
-47.09
-36.73
-25.32
-14.23
-4.42
3.70
10.14
15.17
19.02
21.88
23.85
25.10
25.89
26.57
27.43
28.61
30.02
31.39
32.42
32.90
32.78
32.16
31.20
30.03
28.66
27.01
24.92
22.31
19.09
15.34
11.14
6.67
2.14
-2.23
-6.23
-9.76
-13.02
-16.40
-20.51
-25.88
-32.68
-40.54
-48.51
-55.21
-59.26
-59.64
-55.97
-48.62
-38.50
-26.90
-15.12
-4.26
4.87
11.96
17.03
20.43
22.66
24.23
25.53
26.79
28.01
29.10
30.03
30.86
31.81
33.04
34.57
36.22
37.53
38.06
37.55
36.03
33.80
31.20
28.39
25.31
21.72
17.46
12.63
7.66
3.08
-0.71
-3.64
-6.03
-8.50
-11.70
-16.11
-21.93
-28.97
-36.66
-44.01
-49.79
-52.73
-51.85
-46.84
-38.22
-27.19
-15.35
-4.16
5.43
13.10
18.99
23.40
26.49
28.28
28.76
28.11
26.86
25.72
25.35
26.07
27.69
29.65
31.24
31.96
31.68
30.55
28.92
27.02
24.93
22.57
19.81
16.57
12.91
8.94
4.85
0.76
-3.28
-7.24
-11.09
-14.81
-18.45
-22.15
-26.24
-31.16
-37.29
-44.68
-52.88
-60.82
-66.98
-69.82
-68.20
-61.89
-51.61
-38.85
-25.43
-12.90
-2.20
6.48
13.38
18.95
23.49
27.08
29.66
31.24
32.08
32.62
33.32
34.44
35.96
37.56
38.87
39.59
39.64
39.09
38.06
36.58
34.57
31.95
28.73
25.07
21.28
17.60
14.13
10.75
7.14
3.06
-1.54
-6.46
-11.36
-15.97
-20.24
-24.46
-29.15
-34.83
-41.83
-50.03
-58.79
-66.93
-72.98
-75.49
-73.47
-66.72
-55.92
-42.53
-28.29
-14.79
-3.09
6.37
13.71
19.31
23.60
26.94
29.61
31.85
33.85
35.77
37.66
39.49
41.17
42.59
43.71
44.55
45.11
45.34
45.12
44.26
42.66
40.29
37.33
34.00
30.53
27.06
23.60
20.05
16.28
12.21
7.80
3.17
-1.52
-6.07
-10.39
-14.53
-18.79
-23.57
-29.29
-36.14
-43.92
-51.91
-58.91
-63.47
-64.29
-60.57
-52.34
-40.59
-26.97
-13.32
-1.13
8.79
16.33
21.86
25.85
28.61
30.28
30.93
30.77
30.16
29.59
29.44
29.92
31.01
32.48
34.06
35.40
36.17
36.10
35.03
32.99
30.21
27.06
23.87
20.80
17.80
14.66
11.16
7.25
3.06
-1.09
-4.94
-8.34
-11.40
-14.35
-17.51
-21.14
-25.49
-30.74
-37.00
-44.11
-51.44
-57.80
-61.67
-61.58
-56.73
-47.37
-34.81
-21.00
-7.84
3.33
12.01
18.39
22.93
26.04
27.95
28.73
28.56
27.81
27.07
26.92
27.72
29.44
31.69
33.86
35.39
35.94
35.53
34.36
32.78
30.99
28.99
26.64
23.77
20.35
16.53
12.46
8.26
3.94
-0.58
-5.23
-9.74
-13.76
-17.04
-19.78
-22.57
-26.21
-31.34
-38.08
-45.94
-53.94
-60.85
-65.58
-67.20
-65.10
-59.05
-49.29
-36.62
-22.39
-8.22
4.22
13.76
20.03
23.45
25.02
25.88
26.88
28.36
30.07
31.58
32.53
32.97
33.31
34.05
35.46
37.36
39.11
39.94
39.28
37.05
33.62
29.64
25.71
22.21
19.14
16.23
13.20
9.83
6.11
2.14
-1.87
-5.77
-9.44
-12.87
-16.14
-19.45
-23.10
-27.47
-32.90
-39.38
-46.51
-53.30
-58.42
-60.44
-58.33
-51.81
-41.48
-28.68
-15.12
-2.43
8.24
16.33
21.86
25.24
26.99
27.61
27.50
27.00
26.44
26.12
26.24
26.88
27.92
29.14
30.27
31.11
31.56
31.53
30.94
29.73
27.83
25.31
22.34
19.16
15.95
12.76
9.53
6.18
2.70
-0.73
-3.83
-6.45
-8.66
-10.83
-13.44
-16.92
-21.43
-26.86
-32.88
-39.04
-44.80
-49.43
-52.02
-51.58
-47.36
-39.21
-27.76
-14.39
-0.81
11.45
21.34
28.39
32.61
34.20
33.51
30.98
27.16
22.77
18.59
15.28
13.27
12.60
13.02
14.04
15.06
15.57
15.30
14.24
12.64
10.85
9.16
7.59
5.90
3.75
0.86
-2.77
-6.83
-10.85
-14.34
-17.10
-19.24
-21.16
-23.38
-26.34
-30.37
-35.54
-41.78
-48.71
-55.57
-61.26
-64.39
-63.71
-58.54
-49.06
-36.39
-22.27
-8.59
3.17
12.16
18.27
21.86
23.53
23.80
23.10
21.74
20.04
18.43
17.41
17.44
18.74
21.06
23.73
25.90
26.84
26.32
24.62
22.35
20.11
18.16
16.31
14.15
11.34
7.85
3.95
0.07
-3.49
-6.76
-10.07
-13.82
-18.22
-23.21
-28.56
-34.05
-39.66
-45.61
-52.05
-58.71
-64.56
-68.05
-67.50
-61.92
-51.49
-37.74
-23.01
-9.59
0.99
8.39
13.25
16.57
19.16
21.28
22.78
23.44
23.27
22.68
22.28
22.65
24.01
26.16
28.54
30.45
31.38
31.10
29.79
27.83
25.69
23.63
21.63
19.43
16.68
13.13
8.82
4.09
-0.55
-4.62
-7.90
-10.54
-13.00
-15.90
-19.82
-25.05
-31.55
-38.91
-46.35
-52.83
-57.16
-58.28
-55.47
-48.72
-38.72
-26.81
-14.56
-3.37
5.86
12.81
17.58
20.49
21.96
22.35
22.05
21.45
20.95
20.84
21.30
22.33
23.78
25.39
26.84
27.78
27.93
27.24
25.79
23.86
21.76
19.64
17.37
14.66
11.20
6.93
2.14
-2.60
-6.72
-9.91
-12.32
-14.47
-17.08
-20.73
-25.72
-31.94
-38.86
-45.62
-51.06
-53.93
-53.23
-48.43
-39.89
-28.70
-16.42
-4.61
5.61
13.73
19.70
23.70
25.89
26.43
25.55
23.72
21.68
20.23
19.96
21.03
23.08
25.46
27.44
28.52
28.56
27.63
25.97
23.79
21.19
18.21
14.81
10.98
6.75
2.17
-2.60
-7.35
-11.82
-15.82
-19.32
-22.58
-26.01
-30.16
-35.46
-42.00
-49.44
-56.85
-62.90
-66.09
-65.21
-59.76
-50.17
-37.74
-24.26
-11.43
-0.42
8.34
14.99
19.89
23.38
25.62
26.71
26.86
26.51
26.23
26.53
27.66
29.45
31.44
33.02
33.74
33.42
32.23
30.53
28.65
26.72
24.64
22.10
18.81
14.63
9.71
4.43
-0.75
-5.48
-9.57
-13.14
-16.44
-19.82
-23.62
-28.20
-33.82
-40.57
-48.19
-55.88
-62.33
-65.92
-65.27
-59.72
-49.69
-36.66
-22.66
-9.64
1.17
9.44
15.61
20.35
24.18
27.18
29.14
29.87
29.57
28.86
28.54
29.23
31.00
33.37
35.50
36.69
36.61
35.48
33.82
32.10
30.51
28.87
26.80
23.94
20.17
15.67
10.83
6.09
1.72
-2.23
-5.92
-9.63
-13.67
-18.23
-23.47
-29.49
-36.32
-43.81
-51.39
-58.03
-62.33
-62.89
-58.84
-50.26
-38.23
-24.62
-11.39
0.03
9.09
16.01
21.42
25.85
29.41
31.91
33.18
33.32
32.86
32.44
32.57
33.34
34.50
35.61
36.37
36.65
36.47
35.83
34.61
32.71
30.09
26.96
23.62
20.33
17.15
13.86
10.18
5.97
1.35
-3.31
-7.66
-11.53
-15.10
-18.91
-23.60
-29.63
-36.98
-45.09
-52.81
-58.72
-61.41
-60.08
-54.60
-45.61
-34.27
-21.91
-9.70
1.51
11.17
18.83
24.15
26.97
27.47
26.26
24.35
22.78
22.36
23.33
25.37
27.86
30.12
31.70
32.40
32.22
31.26
29.59
27.28
24.45
21.26
17.84
14.26
10.49
6.50
2.31
-1.94
-6.00
-9.65
-12.80
-15.64
-18.53
-21.98
-26.42
-32.12
-39.04
-46.71
-54.17
-60.04
-62.85
-61.41
-55.28
-45.00
-32.00
-18.14
-5.18
5.70
14.12
20.29
24.68
27.67
29.42
29.98
29.48
28.33
27.16
26.66
27.28
29.03
31.44
33.74
35.13
35.14
33.68
31.06
27.79
24.38
21.10
17.92
14.67
11.11
7.15
2.93
-1.26
-5.12
-8.50
-11.55
-14.58
-18.03
-22.23
-27.34
-33.36
-40.17
-47.46
-54.71
-61.04
-65.30
-66.28
-63.10
-55.57
-44.43
-31.17
-17.61
-5.37
4.61
12.17
17.75
22.00
25.45
28.25
30.31
31.49
31.86
31.79
31.79
32.31
33.48
35.08
36.66
37.70
37.86
37.03
35.35
33.08
30.49
27.75
24.90
21.81
18.31
14.32
9.89
5.28
0.78
-3.34
-7.07
-10.55
-14.07
-17.93
-22.29
-27.27
-32.92
-39.21
-45.91
-52.40
-57.57
-60.07
-58.64
-52.70
-42.65
-29.83
-16.12
-3.33
7.36
15.57
21.59
25.96
29.13
31.34
32.63
33.05
32.81
32.31
32.05
32.39
33.41
34.88
36.32
37.28
37.43
36.74
35.43
33.75
31.87
29.80
27.38
24.46
21.03
17.20
13.19
9.15
5.08
0.91
-3.42
-7.81
-12.10
-16.06
-19.68
-23.26
-27.38
-32.60
-39.16
-46.61
-53.79
-59.03
-60.71
-57.89
-50.64
-40.00
-27.61
-15.18
-3.94
5.53
13.23
19.30
23.87
26.86
28.17
27.90
26.48
24.66
23.29
22.98
23.95
25.92
28.28
30.31
31.45
31.45
30.38
28.53
26.24
23.74
21.08
18.17
14.83
10.96
6.64
2.11
-2.31
-6.34
-9.87
-13.00
-15.98
-19.13
-22.72
-26.98
-32.05
-37.99
-44.64
-51.49
-57.51
-61.33
-61.53
-57.21
-48.38
-36.11
-22.27
-8.89
2.41
10.89
16.64
20.28
22.51
23.78
24.26
24.01
23.19
22.22
21.69
22.11
23.64
26.04
28.70
30.92
32.12
32.09
30.92
28.92
26.47
23.85
21.17
18.41
15.43
12.11
8.41
4.39
0.23
-3.91
-7.91
-11.75
-15.51
-19.32
-23.24
-27.34
-31.68
-36.46
-41.91
-48.18
-55.00
-61.51
-66.25
-67.55
-64.17
-55.84
-43.55
-29.16
-14.85
-2.37
7.49
14.76
20.01
23.81
26.45
28.01
28.50
28.14
27.40
26.89
27.07
28.07
29.62
31.21
32.31
32.63
32.13
31.04
29.62
27.97
26.00
23.47
20.25
16.40
12.23
8.16
4.50
1.31
-1.54
-4.33
-7.26
-10.40
-13.66
-16.93
-20.24
-23.79
-27.96
-33.09
-39.29
-46.20
-52.89
-57.97
-60.00
-57.88
-51.35
-41.06
-28.46
-15.29
-3.10
7.10
14.96
20.61
24.43
26.76
27.93
28.17
27.81
27.18
26.66
26.55
27.00
27.98
29.32
30.74
31.94
32.65
32.65
31.84
30.20
27.86
25.00
21.81
18.48
15.13
11.77
8.38
4.88
1.22
-2.59
-6.43
-10.11
-13.42
-16.34
-19.05
-21.96
-25.62
-30.45
-36.54
-43.43
-50.16
-55.44
-57.93
-56.70
-51.44
-42.61
-31.28
-18.89
-6.85
3.74
12.21
18.36
22.21
23.98
23.99
22.69
20.66
18.56
17.04
16.53
17.18
18.79
20.90
22.97
24.52
25.21
24.91
23.67
21.68
19.21
16.54
13.85
11.18
8.41
5.32
1.71
-2.41
-6.82
-11.08
-14.82
-17.83
-20.30
-22.74
-25.82
-30.04
-35.49
-41.68
-47.65
-52.17
-54.10
-52.64
-47.57
-39.28
-28.69
-17.03
-5.65
4.34
12.17
17.56
20.65
21.86
21.70
20.68
19.19
17.58
16.21
15.40
15.48
16.57
18.50
20.79
22.67
23.44
22.69
20.54
17.56
14.52
11.96
9.95
7.93
5.22
1.35
-3.55
-8.80
-13.48
-16.98
-19.29
-21.13
-23.51
-27.28
-32.78
-39.67
-47.17
-54.34
-60.29
-64.32
-65.81
-64.23
-59.19
-50.68
-39.25
-26.08
-12.75
-0.86
8.45
14.81
18.52
20.38
21.22
21.65
22.01
22.41
22.89
23.54
24.47
25.68
27.01
28.11
28.64
28.36
27.26
25.61
23.71
21.75
19.70
17.30
14.27
10.46
5.96
1.14
-3.57
-7.78
-11.38
-14.46
-17.33
-20.33
-23.83
-28.16
-33.50
-39.76
-46.41
-52.41
-56.38
-56.98
-53.40
-45.75
-35.11
-23.14
-11.58
-1.66
6.06
11.69
15.63
18.25
19.74
20.14
19.56
18.37
17.17
16.62
17.23
19.03
21.56
24.07
25.78
26.25
25.50
23.97
22.17
20.45
18.76
16.80
14.15
10.62
6.38
1.89
-2.30
-5.81
-8.61
-11.04
-13.63
-16.95
-21.35
-26.91
-33.27
-39.67
-45.04
-48.18
-48.05
-44.11
-36.44
-25.83
-13.53
-1.01
10.35
19.48
25.70
28.76
28.82
26.37
22.17
17.15
12.32
8.53
6.38
6.08
7.45
9.95
12.78
15.19
16.60
16.80
15.92
14.30
12.34
10.27
8.14
5.79
3.05
-0.25
-4.05
-8.15
-12.24
-16.04
-19.42
-22.53
-25.73
-29.55
-34.43
-40.52
-47.41
-54.18
-59.46
-61.88
-60.45
-54.89
-45.76
-34.25
-21.83
-9.85
0.76
9.56
16.50
21.72
25.42
27.77
29.01
29.49
29.63
29.91
30.65
31.92
33.54
35.13
36.24
36.48
35.64
33.77
31.15
28.21
25.38
22.89
20.70
18.38
15.45
11.60
6.92
1.90
-2.75
-6.53
-9.36
-11.72
-14.36
-18.03
-23.17
-29.70
-37.05
-44.35
-50.50
-54.48
-55.44
-52.80
-46.51
-37.01
-25.31
-12.75
-0.69
9.75
17.98
23.94
27.96
30.52
32.05
32.88
33.30
33.57
33.97
34.72
35.90
37.35
38.74
39.71
40.00
39.49
38.25
36.40
34.09
31.44
28.52
25.39
22.08
18.59
14.90
11.02
7.01
2.99
-0.88
-4.52
-7.92
-11.27
-14.88
-19.14
-24.39
-30.70
-37.79
-44.86
-50.67
-53.83
-53.24
-48.41
-39.80
-28.62
-16.49
-4.95
5.00
12.98
19.06
23.48
26.38
27.79
27.73
26.47
24.60
22.98
22.34
23.08
25.00
27.41
29.43
30.32
29.81
28.15
25.91
23.64
21.61
19.66
17.41
14.44
10.62
6.19
1.66
-2.47
-5.92
-8.80
-11.46
-14.40
-17.97
-22.37
-27.65
-33.76
-40.46
-47.25
-53.18
-56.99
-57.37
-53.42
-45.17
-33.59
-20.41
-7.54
3.55
12.15
18.33
22.57
25.42
27.23
28.11
28.16
27.63
26.95
26.64
27.07
28.30
30.02
31.67
32.66
32.61
31.44
29.41
26.91
24.28
21.69
19.06
16.20
12.91
9.12
4.98
0.77
-3.20
-6.77
-9.96
-12.94
-16.01
-19.43
-23.39
-28.00
-33.35
-39.53
-46.56
-54.20
-61.76
-68.05
-71.57
-70.90
-65.32
-55.14
-41.75
-27.18
-13.45
-1.98
6.76
13.14
17.93
21.83
25.23
28.15
30.48
32.21
33.52
34.69
35.96
37.34
38.63
39.51
39.80
39.50
38.84
38.06
37.25
36.21
34.59
32.04
28.51
24.28
19.87
15.84
12.46
9.59
6.79
3.58
-0.30
-4.71
-9.17
-13.20
-16.55
-19.38
-22.29
-26.00
-31.13
-37.92
-46.05
-54.72
-62.63
-68.28
-70.25
-67.57
-60.09
-48.60
-34.69
-20.30
-7.18
3.64
11.91
18.05
22.72
26.48
29.57
32.06
33.90
35.18
36.13
37.00
37.93
38.90
39.79
40.42
40.68
40.59
40.22
39.65
38.90
37.85
36.32
34.13
31.23
27.77
24.04
20.47
17.37
14.85
12.67
10.35
7.31
3.20
-2.00
-7.85
-13.70
-18.91
-23.13
-26.51
-29.60
-33.22
-38.09
-44.60
-52.45
-60.64
-67.52
-71.27
-70.44
-64.49
-54.00
-40.56
-26.22
-12.81
-1.47
7.50
14.44
19.86
24.17
27.53
29.97
31.60
32.55
33.12
33.56
34.08
34.77
35.69
36.79
37.96
38.90
39.31
38.92
37.70
35.92
33.96
32.09
30.27
28.08
25.04
20.99
16.22
11.53
7.73
5.24
3.79
2.46
0.19
-3.58
-8.65
-14.11
-18.80
-22.07
-24.04
-25.72
-28.40
-33.11
-40.06
-48.50
-56.94
-63.63
-66.96
-65.94
-60.34
-50.69
-38.16
-24.31
-10.79
1.09
10.54
17.38
21.91
24.67
26.19
26.85
26.93
26.65
26.35
26.38
27.01
28.31
30.05
31.80
33.16
33.83
33.86
33.47
32.93
32.33
31.55
30.26
28.18
25.20
21.57
17.74
14.18
11.20
8.81
6.72
4.52
1.91
-1.24
-4.77
-8.37
-11.77
-14.80
-17.56
-20.33
-23.50
-27.42
-32.29
-38.11
-44.55
-51.02
-56.57
-60.03
-60.24
-56.36
-48.33
-36.92
-23.70
-10.51
1.05
10.11
16.49
20.61
22.99
24.08
24.14
23.42
22.26
21.13
20.51
20.72
21.79
23.50
25.46
27.25
28.58
29.23
29.14
28.27
26.63
24.23
21.13
17.45
13.45
9.41
5.70
2.59
0.15
-1.78
-3.55
-5.62
-8.33
-11.77
-15.82
-20.15
-24.43
-28.46
-32.27
-36.11
-40.40
-45.47
-51.45
-57.98
-64.17
-68.70
-70.15
-67.50
-60.44
-49.67
-36.58
-22.90
-10.18
0.56
8.92
14.98
19.07
21.60
22.96
23.61
23.97
24.47
25.38
26.79
28.53
30.32
31.88
33.01
33.71
34.05
34.11
33.90
33.28
32.13
30.29
27.79
24.65
21.05
17.16
13.21
9.49
6.26
3.61
1.43
-0.68
-3.23
-6.57
-10.70
-15.24
-19.60
-23.32
-26.32
-29.09
-32.38
-36.96
-43.14
-50.57
-58.20
-64.55
-68.06
-67.67
-62.95
-54.31
-42.76
-29.62
-16.27
-3.85
6.79
15.08
20.77
23.94
25.01
24.70
23.86
23.23
23.29
24.12
25.51
27.12
28.65
29.89
30.78
31.33
31.62
31.70
31.60
31.26
30.53
29.18
26.97
23.88
20.15
16.29
12.85
10.20
8.27
6.66
4.75
2.09
-1.39
-5.41
-9.52
-13.33
-16.78
-20.06
-23.50
-27.40
-31.94
-37.21
-43.18
-49.66
-56.10
-61.52
-64.60
-64.05
-59.07
-49.78
-37.25
-23.24
-9.63
2.07
11.13
17.51
21.73
24.40
26.08
27.09
27.62
27.80
27.83
27.97
28.46
29.43
30.76
32.19
33.33
33.90
33.77
33.06
31.97
30.72
29.32
27.63
25.37
22.43
18.85
15.00
11.34
8.27
5.87
3.86
1.73
-0.93
-4.30
-8.18
-12.12
-15.70
-18.68
-21.22
-23.74
-26.83
-30.97
-36.38
-42.84
-49.64
-55.68
-59.63
-60.34
-57.05
-49.79
-39.29
-26.90
-14.18
-2.54
7.06
14.14
18.73
21.16
21.89
21.49
20.51
19.42
18.62
18.33
18.62
19.45
20.69
22.21
23.85
25.38
26.49
26.83
26.12
24.26
21.41
17.99
14.49
11.34
8.71
6.45
4.24
1.73
-1.26
-4.64
-8.12
-11.34
-14.06
-16.36
-18.52
-20.98
-24.11
-28.13
-33.06
-38.78
-44.96
-51.03
-56.07
-58.91
-58.36
-53.64
-44.81
-32.82
-19.37
-6.36
4.69
12.97
18.45
21.63
23.19
23.69
23.47
22.76
21.73
20.69
19.97
19.91
20.61
21.98
23.66
25.21
26.28
26.61
26.19
25.11
23.51
21.53
19.21
16.57
13.61
10.33
6.85
3.34
-0.02
-3.13
-6.02
-8.82
-11.73
-14.91
-18.37
-22.04
-25.85
-29.86
-34.32
-39.52
-45.65
-52.43
-58.99
-63.91
-65.64
-63.01
-55.70
-44.49
-31.02
-17.25
-4.89
5.11
12.58
17.92
21.69
24.28
25.87
26.51
26.29
25.51
24.64
24.18
24.42
25.40
26.86
28.39
29.63
30.32
30.36
29.77
28.56
26.78
24.45
21.67
18.64
15.56
12.55
9.61
6.58
3.21
-0.62
-4.83
-9.10
-13.04
-16.40
-19.18
-21.72
-24.58
-28.34
-33.37
-39.65
-46.75
-53.77
-59.55
-62.87
-62.74
-58.63
-50.62
-39.48
-26.60
-13.59
-1.94
7.38
14.15
18.78
21.96
24.36
26.19
27.39
27.80
27.53
27.06
27.10
28.22
30.48
33.34
35.93
37.45
37.62
36.72
35.38
34.16
33.22
32.13
30.28
27.19
22.93
18.13
13.68
10.24
7.90
6.04
3.77
0.42
-4.07
-9.15
-13.90
-17.71
-20.55
-23.11
-26.44
-31.36
-38.04
-45.75
-53.05
-58.21
-59.75
-56.89
-49.74
-39.20
-26.70
-13.83
-1.94
8.05
15.76
21.20
24.64
26.40
26.83
26.25
25.05
23.62
22.44
21.88
22.18
23.31
25.04
26.94
28.54
29.49
29.61
28.95
27.66
25.93
23.86
21.45
18.67
15.54
12.16
8.75
5.51
2.52
-0.29
-3.07
-5.99
-9.08
-12.28
-15.47
-18.64
-21.92
-25.64
-30.18
-35.73
-42.06
-48.41
-53.51
-55.93
-54.53
-48.91
-39.58
-27.82
-15.29
-3.49
6.60
14.57
20.37
24.12
25.92
25.91
24.41
22.07
19.72
18.18
17.98
19.13
21.26
23.74
25.97
27.59
28.45
28.56
27.97
26.66
24.63
21.93
18.73
15.30
11.93
8.80
5.89
3.04
-0.01
-3.44
-7.22
-11.17
-14.98
-18.37
-21.25
-23.79
-26.37
-29.52
-33.75
-39.34
-46.14
-53.47
-60.15
-64.69
-65.76
-62.46
-54.77
-43.43
-29.87
-15.78
-2.70
8.25
16.54
22.15
25.49
27.17
27.83
27.97
27.91
27.83
27.83
28.02
28.56
29.60
31.12
32.96
34.73
36.00
36.39
35.78
34.25
32.00
29.21
25.99
22.35
18.34
14.14
10.05
6.35
3.14
0.22
-2.79
-6.25
-10.24
-14.46
-18.39
-21.60
-24.06
-26.34
-29.34
-33.94
-40.46
-48.36
-56.30
-62.46
-65.11
-63.20
-56.57
-46.01
-32.93
-18.93
-5.48
6.40
16.07
23.19
27.75
29.98
30.34
29.52
28.34
27.45
27.28
27.78
28.70
29.69
30.56
31.32
32.14
33.15
34.24
35.10
35.25
34.35
32.29
29.29
25.76
22.14
18.75
15.69
12.85
10.03
7.01
3.66
-0.04
-3.98
-7.97
-11.85
-15.55
-19.14
-22.84
-27.01
-31.98
-37.99
-44.96
-52.40
-59.34
-64.42
-66.24
-63.75
-56.61
-45.46
-31.73
-17.22
-3.66
7.75
16.45
22.43
25.97
27.44
27.24
25.81
23.67
21.44
19.72
18.91
19.17
20.36
22.18
24.25
26.21
27.77
28.67
28.75
27.91
26.24
23.93
21.23
18.35
15.37
12.23
8.85
5.24
1.55
-1.96
-5.04
-7.62
-9.90
-12.25
-15.10
-18.74
-23.31
-28.74
-34.87
-41.38
-47.73
-53.02
-56.05
-55.62
-50.94
-41.96
-29.65
-15.66
-1.91
10.00
19.13
25.26
28.70
30.01
29.76
28.51
26.75
24.94
23.53
22.80
22.87
23.67
24.92
26.28
27.40
28.01
27.96
27.20
25.72
23.59
20.87
17.66
14.14
10.53
7.04
3.77
0.61
-2.59
-6.05
-9.82
-13.81
-17.83
-21.71
-25.37
-28.89
-32.47
-36.38
-40.92
-46.35
-52.77
-59.87
-66.76
-71.94
-73.71
-70.68
-62.45
-49.85
-34.77
-19.53
-6.09
4.50
12.16
17.50
21.27
24.01
25.88
26.86
27.03
26.74
26.54
26.95
28.23
30.21
32.43
34.33
35.55
36.00
35.85
35.32
34.56
33.43
31.71
29.17
25.76
21.72
17.51
13.57
10.13
7.12
4.19
0.94
-2.83
-7.03
-11.31
-15.29
-18.84
-22.18
-25.86
-30.50
-36.53
-43.94
-52.17
-60.14
-66.49
-69.84
-69.15
-64.00
-54.71
-42.30
-28.25
-14.14
-1.28
9.43
17.62
23.32
26.78
28.38
28.62
28.03
27.21
26.67
26.80
27.73
29.39
31.51
33.84
36.19
38.42
40.41
41.97
42.81
42.62
41.25
38.67
35.14
31.03
26.79
22.80
19.29
16.30
13.64
10.97
7.94
4.33
0.15
-4.32
-8.68
-12.61
-16.01
-19.14
-22.50
-26.74
-32.35
-39.43
-47.56
-55.68
-62.23
-65.50
-64.14
-57.66
-46.69
-32.78
-17.99
-4.22
7.30
16.06
22.16
25.97
27.82
28.09
27.20
25.72
24.34
23.50
23.39
23.89
24.76
25.83
27.15
28.82
30.81
32.75
34.05
34.12
32.69
29.95
26.45
22.80
19.42
16.33
13.27
9.97
6.29
2.39
-1.42
-4.84
-7.77
-10.46
-13.32
-16.78
-21.00
-25.86
-31.02
-36.21
-41.33
-46.45
-51.42
-55.60
-57.73
-56.34
-50.36
-39.79
-25.91
-10.97
2.71
13.47
20.81
25.19
27.58
28.74
29.13
28.79
27.76
26.30
24.96
24.38
24.95
26.69
29.20
31.81
33.86
34.92
34.80
33.58
31.46
28.70
25.52
22.09
18.56
15.00
11.49
8.03
4.61
1.16
-2.41
-6.15
-10.05
-14.03
-18.00
-21.91
-25.77
-29.77
-34.14
-39.19
-45.17
-52.11
-59.65
-66.90
-72.53
-75.03
-73.11
-66.25
-54.90
-40.44
-24.79
-9.85
2.99
13.03
20.25
25.08
28.08
29.79
30.65
30.96
31.05
31.19
31.67
32.68
34.22
36.02
37.67
38.72
38.94
38.37
37.31
36.08
34.78
33.24
31.08
27.97
23.92
19.29
14.75
10.85
7.80
5.34
2.90
-0.12
-3.97
-8.49
-13.17
-17.47
-21.10
-24.14
-27.09
-30.60
-35.27
-41.38
-48.75
-56.69
-64.01
-69.25
-71.02
-68.37
-61.06
-49.76
-35.83
-20.97
-6.78
5.52
15.25
22.25
26.69
28.99
29.66
29.32
28.60
28.03
28.03
28.78
30.21
32.07
34.00
35.66
36.80
37.34
37.29
36.74
35.73
34.24
32.19
29.51
26.18
22.36
18.33
14.46
11.07
8.29
6.03
3.88
1.41
-1.71
-5.50
-9.65
-13.71
-17.26
-20.23
-22.96
-26.08
-30.23
-35.77
-42.52
-49.67
-55.92
-59.75
-59.87
-55.54
-46.92
-34.99
-21.35
-7.72
4.49
14.50
22.13
27.63
31.43
33.93
35.44
36.28
36.75
37.18
37.72
38.36
38.97
39.43
39.77
40.19
40.90
41.93
42.99
43.55
43.07
41.34
38.55
35.24
31.96
29.07
26.52
24.03
21.25
18.01
14.38
10.63
7.12
4.12
1.80
0.21
-0.74
-1.21
-1.58
-2.43
-4.46
-8.25
-13.91
-20.93
-28.02
-33.53
-35.87
-34.10
-28.25
-19.29
-8.76
1.75
10.97
18.19
23.17
25.98
26.85
26.18
24.44
22.19
19.98
18.25
17.25
16.99
17.33
18.03
18.76
19.19
19.01
18.03
16.23
13.83
11.17
8.68
6.66
5.24
4.36
3.77
3.17
2.24
0.72
-1.49
-4.34
-7.61
-10.95
-14.03
-16.60
-18.61
-20.26
-21.86
-23.85
-26.55
-30.08
-34.17
-38.21
-41.33
-42.68
-41.70
-38.34
-33.05
-26.60
-19.91
-13.75
-8.69
-5.03
-2.88
-2.19
-2.78
-4.33
-6.42
-8.52
-10.06
-10.53
-9.60
-7.27
-3.95
-0.38
2.53
4.16
4.28
3.21
1.55
-0.09
-1.44
-2.57
-3.84
-5.60
-7.96
-10.80
-13.76
-16.45
-18.65
-20.38
-21.87
-23.49
-25.58
-28.35
-31.80
-35.70
-39.68
-43.19
-45.57
-46.04
-43.91
-38.78
-30.73
-20.46
-9.14
1.88
11.40
18.69
23.53
26.14
26.92
26.35
24.89
22.97
21.03
19.48
18.60
18.47
18.95
19.71
20.36
20.54
20.05
18.88
17.17
15.10
12.84
10.53
8.19
5.83
3.42
0.93
-1.70
-4.45
-7.30
-10.20
-13.06
-15.82
-18.50
-21.17
-23.89
-26.78
-29.92
-33.45
-37.51
-42.19
-47.44
-52.81
-57.44
-60.19
-59.85
-55.62
-47.50
-36.34
-23.73
-11.46
-1.04
6.68
11.67
14.42
15.66
15.98
15.71
14.93
13.71
12.23
10.90
10.14
10.24
11.19
12.72
14.37
15.70
16.39
16.30
15.41
13.72
11.30
8.28
4.85
1.31
-2.08
-5.13
-7.82
-10.25
-12.54
-14.81
-17.11
-19.43
-21.74
-24.02
-26.34
-28.95
-32.20
-36.51
-42.08
-48.67
-55.47
-61.13
-64.08
-63.02
-57.35
-47.41
-34.37
-19.91
-5.73
6.84
17.03
24.66
29.87
32.97
34.33
34.34
33.48
32.26
31.26
30.90
31.39
32.70
34.59
36.72
38.73
40.24
40.91
40.51
39.03
36.70
33.94
31.19
28.67
26.24
23.52
20.13
15.93
11.08
5.99
1.09
-3.32
-7.21
-10.67
-13.89
-17.08
-20.47
-24.36
-29.04
-34.66
-41.14
-47.89
-53.80
-57.37
-57.13
-52.08
-42.25
-28.73
-13.57
0.90
12.82
21.31
26.59
29.59
31.34
32.44
32.91
32.46
30.98
28.84
26.86
25.96
26.65
28.74
31.33
33.29
33.83
32.76
30.55
27.94
25.52
23.43
21.35
18.73
15.20
10.75
5.74
0.69
-3.93
-7.90
-11.26
-14.18
-16.88
-19.52
-22.26
-25.33
-29.08
-33.74
-39.35
-45.43
-50.95
-54.49
-54.67
-50.64
-42.39
-30.76
-17.23
-3.46
9.16
19.70
27.75
33.23
36.28
37.14
36.14
33.77
30.67
27.58
25.18
23.94
24.05
25.36
27.47
29.80
31.77
32.90
32.92
31.81
29.74
26.98
23.76
20.21
16.32
12.08
7.54
2.90
-1.48
-5.24
-8.13
-10.18
-11.66
-13.10
-15.10
-18.19
-22.59
-28.08
-33.92
-38.94
-41.79
-41.37
-37.14
-29.36
-18.94
-7.24
4.37
14.78
23.29
29.56
33.49
35.12
34.62
32.37
28.96
25.17
21.82
19.50
18.47
18.62
19.49
20.57
21.39
21.75
21.68
21.40
21.18
21.12
21.15
20.94
20.04
18.07
14.85
10.55
5.60
0.58
-4.01
-7.91
-11.19
-14.18
-17.34
-21.07
-25.57
-30.68
-35.84
-40.13
-42.47
-41.93
-37.99
-30.80
-21.17
-10.40
0.10
9.16
16.05
20.54
22.77
23.09
21.87
19.61
16.77
13.95
11.65
10.17
9.55
9.52
9.64
9.49
8.88
7.84
6.57
5.27
4.05
2.81
1.35
-0.58
-3.12
-6.21
-9.69
-13.24
-16.55
-19.34
-21.49
-23.10
-24.47
-26.03
-28.30
-31.61
-35.88
-40.48
-44.28
-45.89
-44.21
-38.80
-30.25
-19.94
-9.64
-0.82
5.71
9.93
12.32
13.43
13.48
12.42
10.21
7.08
3.74
1.12
-0.00
0.60
2.42
4.52
5.95
6.20
5.44
4.27
3.36
3.10
3.25
3.21
2.30
0.15
-3.08
-6.83
-10.33
-13.01
-14.68
-15.59
-16.29
-17.39
-19.37
-22.43
-26.42
-30.79
-34.67
-37.00
-36.81
-33.47
-27.03
-18.21
-8.25
1.51
9.95
16.44
20.82
23.25
23.99
23.34
21.60
19.26
16.85
14.99
14.08
14.20
15.12
16.36
17.46
18.08
18.14
17.75
17.08
16.23
15.13
13.60
11.45
8.63
5.30
1.81
-1.44
-4.15
-6.23
-7.83
-9.24
-10.80
-12.83
-15.56
-19.10
-23.31
-27.69
-31.35
-33.23
-32.33
-28.21
-21.14
-12.16
-2.68
5.91
12.67
17.24
19.82
20.84
20.78
20.02
18.81
17.43
16.18
15.43
15.45
16.33
17.88
19.74
21.43
22.60
23.12
23.07
22.65
22.00
21.10
19.74
17.66
14.70
10.97
6.80
2.72
-0.78
-3.47
-5.44
-7.10
-9.03
-11.76
-15.62
-20.58
-26.19
-31.65
-35.93
-38.06
-37.36
-33.61
-27.22
-19.01
-10.10
-1.59
5.64
11.03
14.38
15.81
15.67
14.49
12.83
11.18
9.91
9.16
8.95
9.17
9.70
10.35
10.99
11.39
11.38
10.78
9.51
7.65
5.35
2.86
0.35
-2.08
-4.42
-6.68
-8.82
-10.74
-12.32
-13.53
-14.47
-15.42
-16.80
-18.99
-22.22
-26.40
-30.95
-34.89
-37.03
-36.30
-32.17
-24.90
-15.51
-5.45
3.84
11.46
17.08
20.87
23.21
24.35
24.40
23.42
21.56
19.24
17.01
15.43
14.81
15.09
15.89
16.69
17.06
16.82
16.03
14.90
13.56
12.05
10.23
8.02
5.39
2.49
-0.42
-3.12
-5.47
-7.50
-9.35
-11.17
-13.12
-15.31
-17.94
-21.22
-25.40
-30.58
-36.54
-42.59
-47.63
-50.36
-49.70
-45.22
-37.35
-27.28
-16.58
-6.72
1.45
7.78
12.68
16.74
20.38
23.67
26.43
28.44
29.76
30.75
32.04
34.23
37.66
42.23
47.47
52.78
57.55
61.33
63.86
65.04
64.87
63.51
61.27
58.58
55.84
53.16
50.24
46.30
40.40
31.86
20.62
7.42
-6.41
-19.50
-30.84
-40.10
-47.45
-53.12
-56.84
-57.75
-54.60
-46.52
-33.52
-16.71
2.10
21.20
39.53
56.87
73.36
88.96
103.10
114.81
123.24
128.03
129.45
128.03
124.19
117.86
108.72
96.40
80.96
62.94
43.39
23.43
4.20
-13.67
-29.82
-44.13
-56.53
-66.82
-74.72
-80.03
-82.89
-84.09
-84.70
-85.64
-87.06
-88.21
-87.74
-84.56
-78.41
-70.21
-61.55
-53.98
-48.35
-44.66
-42.28
-40.44
-38.54
-36.31
-33.62
-30.34
-26.20
-20.85
-14.06
-5.87
3.22
12.05
19.00
22.27
20.33
12.47
-0.96
-18.37
-37.04
-53.53
-64.15
-65.87
-57.30
-39.50
-15.90
8.56
29.14
42.96
49.80
51.85
52.36
54.21
58.90
66.50
76.14
86.76
97.50
107.67
116.66
123.83
128.65
130.90
130.84
129.08
126.27
122.91
119.08
114.64
109.36
103.11
95.94
88.08
79.75
71.21
62.74
54.71
47.65
41.99
37.93
35.25
33.22
30.94
27.63
23.02
17.38
11.43
5.94
1.48
-1.80
-4.04
-5.59
-6.74
-7.70
-8.58
-9.42
-10.25
-11.07
-11.86
-12.51
-12.93
-13.01
-12.69
-12.05
-11.22
-10.42
-9.87
-9.76
-10.21
-11.29
-13.04
-15.46
-18.55
-22.21
-26.32
-30.78
-35.50
-40.43
-45.41
-50.14
-54.14
-56.96
-58.34
-58.45
-57.88
-57.38
-57.59
-58.76
-60.77
-63.27
-65.89
-68.39
-70.64
-72.45
-73.51
-73.43
-71.93
-69.05
-65.17
-60.96
-57.09
-54.03
-51.93
-50.69
-50.08
-49.89
-49.89
-49.92
-49.70
-48.89
-47.27
-44.80
-41.90
-39.31
-37.83
-38.08
-40.21
-43.86
-48.32
-52.76
-56.56
-59.36
-61.12
-61.98
-62.18
-61.98
-61.61
-61.23
-60.94
-60.71
-60.37
-59.65
-58.18
-55.65
-51.90
-46.98
-41.35
-35.74
-30.90
-27.37
-25.20
-23.84
-22.39
-19.87
-15.83
-10.47
-4.67
0.40
3.78
5.25
5.43
5.59
6.94
10.06
14.48
18.82
21.63
22.12
20.66
18.57
17.15
16.93
17.24
16.67
14.06
9.19
3.05
-2.77
-7.08
-9.64
-11.16
-12.62
-14.61
-16.97
-19.01
-20.04
-19.99
-19.45
-19.33
-20.46
-23.08
-26.64
-30.09
-32.21
-32.23
-30.20
-27.13
-24.68
-24.47
-27.40
-33.19
-40.43
-47.23
-51.98
-54.12
-54.34
-54.09
-54.97
-57.91
-62.78
-68.47
-73.34
-75.91
-75.45
-72.40
-68.17
-64.62
-63.19
-64.28
-67.09
-70.05
-71.66
-71.26
-69.27
-66.79
-64.71
-62.95
-60.24
-54.75
-45.11
-31.23
-14.55
2.56
17.85
30.03
39.05
45.97
52.21
59.01
67.12
76.72
87.62
99.29
111.06
122.04
131.32
138.21
142.39
144.06
143.95
142.98
141.94
141.01
139.40
135.19
125.66
108.29
82.05
48.34
10.97
-24.98
-54.96
-76.47
-89.44
-95.49
-96.63
-94.38
-89.59
-82.83
-74.82
-66.19
-56.95
-46.29
-32.99
-16.60
1.80
19.53
33.49
41.70
44.21
42.94
40.71
39.76
41.01
43.93
47.10
48.96
48.42
45.31
40.42
35.16
30.97
28.59
27.59
26.66
24.27
19.70
13.51
7.19
2.29
-0.51
-1.76
-2.83
-4.99
-8.72
-13.45
-17.98
-21.23
-22.74
-22.86
-22.35
-21.96
-22.05
-22.54
-23.06
-23.31
-23.21
-22.95
-22.97
-23.57
-24.85
-26.42
-27.66
-27.79
-26.29
-23.12
-18.75
-13.98
-9.61
-6.20
-3.89
-2.59
-2.03
-2.08
-2.64
-3.67
-5.11
-6.75
-8.34
-9.66
-10.63
-11.31
-11.85
-12.38
-12.91
-13.31
-13.33
-12.74
-11.36
-9.14
-6.16
-2.62
1.27
5.36
9.53
13.78
18.14
22.70
27.58
32.85
38.53
44.44
50.13
54.90
57.93
58.56
56.60
52.52
47.39
42.48
38.76
36.44
34.85
32.75
28.88
22.61
14.15
4.57
-4.70
-12.41
-17.85
-21.09
-22.66
-23.32
-23.64
-23.86
-23.91
-23.50
-22.45
-20.67
-18.30
-15.53
-12.60
-9.86
-7.99
-7.98
-10.93
-17.52
-27.60
-40.01
-52.78
-63.87
-71.73
-75.68
-75.73
-72.04
-64.49
-52.57
-35.84
-14.68
9.49
34.16
56.45
73.94
85.36
90.74
91.31
88.89
85.51
83.18
83.75
88.61
98.20
111.38
125.25
135.86
139.43
133.77
119.07
97.51
71.98
44.51
15.55
-15.85
-50.27
-86.55
-121.18
-149.02
-165.07
-166.32
-152.99
-128.76
-99.61
-72.07
-51.30
-39.51
-35.37
-34.90
-33.15
-26.43
-13.85
2.43
18.27
29.48
33.49
30.14
21.37
10.07
-0.62
-7.86
-9.25
-3.22
10.13
28.08
45.20
54.53
50.12
29.77
-3.40
-41.57
-74.78
-94.85
-98.28
-87.46
-69.00
-50.31
-36.22
-27.06
-19.26
-7.73
11.21
38.05
70.08
103.06
133.02
157.38
174.74
184.18
184.87
176.26
158.82
134.34
105.53
75.09
45.09
16.94
-7.97
-28.05
-41.77
-48.51
-49.26
-46.48
-43.07
-41.12
-41.08
-42.03
-42.79
-42.83
-42.60
-43.01
-44.59
-46.81
-48.15
-46.94
-42.23
-34.24
-24.31
-14.21
-5.48
0.99
5.00
6.75
6.57
4.92
2.39
-0.19
-1.84
-1.77
0.45
4.74
10.65
17.45
24.36
30.52
35.16
37.63
37.60
35.15
30.72
24.98
18.73
12.80
7.85
4.39
2.68
2.62
3.88
6.03
8.67
11.51
14.31
16.91
19.11
20.82
22.06
23.03
24.04
25.33
26.95
28.70
30.22
31.11
30.99
29.64
26.93
22.91
17.73
11.66
5.13
-1.43
-7.73
-13.84
-20.38
-28.25
-38.28
-50.73
-64.99
-79.83
-93.90
-106.31
-117.10
-127.03
-137.11
-147.89
-159.10
-169.69
-178.10
-182.64
-181.86
-174.66
-160.56
-139.87
-113.83
-84.68
-55.17
-28.07
-5.46
11.74
23.98
32.74
40.03
47.64
56.65
67.05
77.90
87.82
95.56
100.50
102.72
102.57
100.44
96.35
90.13
81.61
71.03
59.05
46.65
34.59
23.32
13.01
3.73
-4.20
-10.28
-13.96
-15.11
-14.18
-12.06
-9.85
-8.40
-8.23
-9.56
-12.53
-17.12
-22.90
-28.58
-32.17
-31.52
-25.37
-14.24
-0.52
12.57
22.07
26.77
27.36
25.84
24.35
24.14
25.27
27.13
28.96
30.49
31.93
33.57
35.44
37.16
38.13
37.96
36.73
35.04
33.80
33.67
34.73
36.37
37.58
37.42
35.35
31.36
25.86
19.31
12.12
4.54
-3.10
-10.38
-16.85
-22.14
-26.20
-29.16
-31.24
-32.52
-32.96
-32.55
-31.72
-31.40
-32.94
-37.52
-45.69
-57.06
-70.45
-84.30
-97.13
-107.89
-116.02
-121.21
-123.17
-121.64
-116.46
-107.73
-96.08
-82.50
-68.12
-53.96
-40.56
-28.13
-16.58
-5.82
4.20
13.49
22.27
30.90
39.97
49.80
60.19
70.42
79.52
86.63
91.34
93.52
93.13
89.92
83.56
74.11
62.40
50.00
38.72
29.77
23.32
18.45
13.95
9.04
3.75
-1.38
-5.87
-9.88
-14.04
-18.99
-24.84
-30.91
-36.19
-39.96
-42.28
-44.07
-46.59
-50.73
-56.53
-63.19
-69.47
-74.35
-77.32
-78.58
-78.61
-77.86
-76.54
-74.57
-71.82
-68.33
-64.32
-60.13
-55.92
-51.52
-46.43
-39.94
-31.46
-20.83
-8.40
5.04
18.59
31.43
43.09
53.35
62.12
69.22
74.46
77.57
78.56
77.72
75.62
72.94
70.16
67.50
64.76
61.59
57.60
52.68
47.01
41.12
35.64
31.15
27.97
26.07
25.24
25.26
26.01
27.53
29.78
32.56
35.44
37.85
39.25
39.42
38.43
36.65
34.58
32.68
31.23
30.32
29.83
29.56
29.33
29.00
28.50
27.85
27.10
26.21
25.14
23.82
22.21
20.39
18.48
16.65
14.92
13.22
11.37
9.19
6.71
4.12
1.72
-0.32
-2.06
-3.91
-6.39
-9.83
-14.13
-18.69
-22.62
-25.03
-25.36
-23.56
-19.96
-15.17
-9.82
-4.46
0.48
4.72
8.06
10.43
11.88
12.55
12.67
12.53
12.41
12.53
12.99
13.76
14.68
15.56
16.28
16.85
17.34
17.78
18.05
17.84
16.89
15.07
12.58
9.79
7.10
4.70
2.50
0.25
-2.17
-4.68
-6.98
-8.79
-10.05
-11.01
-12.11
-13.74
-16.05
-18.96
-22.20
-25.44
-28.36
-30.54
-31.43
-30.53
-27.48
-22.31
-15.52
-7.97
-0.61
5.82
10.91
14.60
17.05
18.50
19.16
19.14
18.58
17.65
16.62
15.85
15.73
16.46
17.96
19.79
21.27
21.86
21.32
19.87
18.06
16.44
15.28
14.36
13.19
11.24
8.36
4.78
1.07
-2.22
-4.80
-6.87
-8.82
-11.07
-13.73
-16.64
-19.49
-22.14
-24.65
-27.32
-30.33
-33.44
-35.91
-36.77
-35.18
-30.88
-24.26
-16.32
-8.23
-1.00
4.77
8.95
11.76
13.60
14.88
15.92
16.91
17.92
18.97
20.04
21.15
22.28
23.42
24.50
25.45
26.17
26.54
26.51
26.05
25.15
23.85
22.18
20.12
17.64
14.72
11.37
7.70
3.90
0.22
-3.13
-5.98
-8.36
-10.34
-12.08
-13.77
-15.64
-17.93
-20.88
-24.64
-29.16
-34.01
-38.41
-41.34
-41.80
-39.17
-33.42
-25.20
-15.69
-6.28
1.76
7.66
11.14
12.54
12.41
11.44
10.16
8.93
7.90
7.20
6.93
7.25
8.27
10.02
12.34
14.95
17.43
19.44
20.70
21.16
20.91
20.17
19.11
17.85
16.36
14.54
12.37
9.94
7.47
5.17
3.16
1.39
-0.38
-2.38
-4.72
-7.37
-10.21
-13.20
-16.47
-20.28
-24.84
-30.02
-35.25
-39.54
-41.81
-41.29
-37.84
-31.98
-24.74
-17.24
-10.34
-4.42
0.52
4.68
8.21
11.06
13.08
14.10
14.19
13.65
12.94
12.49
12.56
13.21
14.29
15.60
16.93
18.08
18.83
19.00
18.48
17.25
15.46
13.30
10.95
8.48
5.86
3.02
-0.08
-3.34
-6.64
-9.79
-12.66
-15.15
-17.35
-19.46
-21.82
-24.82
-28.75
-33.53
-38.68
-43.31
-46.52
-47.55
-46.04
-42.09
-36.11
-28.70
-20.51
-12.14
-4.26
2.59
8.00
11.84
14.30
15.83
16.97
18.20
19.71
21.51
23.48
25.52
27.67
30.02
32.60
35.26
37.51
38.74
38.48
36.61
33.48
29.76
26.05
22.67
19.49
16.13
12.23
7.73
2.88
-1.90
-6.27
-10.13
-13.69
-17.33
-21.44
-26.38
-32.30
-39.18
-46.70
-54.23
-60.87
-65.57
-67.38
-65.73
-60.54
-52.34
-42.09
-30.87
-19.74
-9.44
-0.39
7.35
13.86
19.37
24.04
28.01
31.36
34.10
36.18
37.54
38.15
38.10
37.63
37.06
36.72
36.75
37.02
37.15
36.72
35.42
33.24
30.46
27.48
24.69
22.17
19.77
17.12
13.93
10.05
5.68
1.15
-3.18
-7.17
-10.96
-14.90
-19.42
-24.84
-31.30
-38.67
-46.58
-54.39
-61.30
-66.39
-68.76
-67.72
-62.96
-54.73
-43.80
-31.35
-18.69
-6.92
3.27
11.67
18.45
23.91
28.31
31.74
34.26
36.00
37.25
38.42
39.90
41.89
44.27
46.72
48.78
50.18
50.82
50.84
50.38
49.51
48.08
45.90
42.79
38.76
34.12
29.36
25.00
21.40
18.61
16.37
14.16
11.50
8.09
3.95
-0.63
-5.30
-9.81
-14.20
-18.85
-24.26
-30.86
-38.76
-47.57
-56.40
-64.03
-69.11
-70.57
-67.77
-60.74
-50.14
-37.12
-23.03
-9.12
3.57
14.41
23.07
29.55
34.06
37.04
39.03
40.57
42.08
43.69
45.34
46.76
47.76
48.29
48.49
48.54
48.50
48.28
47.58
46.13
43.84
40.81
37.29
33.45
29.36
25.00
20.32
15.44
10.60
6.04
1.86
-2.08
-6.10
-10.58
-15.70
-21.47
-27.69
-34.05
-40.33
-46.50
-52.73
-59.35
-66.62
-74.47
-82.38
-89.26
-93.66
-94.17
-89.90
-80.79
-67.74
-52.32
-36.33
-21.30
-8.18
2.68
11.34
17.99
22.80
25.90
27.52
28.10
28.31
28.88
30.29
32.60
35.46
38.31
40.64
42.25
43.22
43.77
43.99
43.76
42.80
40.87
37.92
34.15
29.91
25.55
21.25
17.04
12.82
8.53
4.11
-0.44
-5.16
-10.10
-15.30
-20.72
-26.17
-31.38
-36.13
-40.46
-44.76
-49.68
-55.99
-64.15
-74.00
-84.58
-94.25
-101.05
-103.21
-99.64
-90.23
-75.88
-58.24
-39.36
-21.14
-5.04
8.17
18.29
25.55
30.39
33.28
34.73
35.27
35.46
35.83
36.76
38.39
40.56
42.95
45.18
46.91
47.86
47.90
47.02
45.40
43.29
41.03
38.84
36.72
34.41
31.68
28.49
25.11
22.00
19.60
17.89
16.39
14.20
10.53
5.10
-1.63
-8.70
-15.03
-20.06
-24.00
-27.86
-32.95
-40.30
-50.16
-61.81
-73.70
-83.77
-89.95
-90.68
-85.28
-74.09
-58.47
-40.49
-22.35
-5.91
7.82
18.54
26.66
32.81
37.58
41.40
44.53
47.21
49.69
52.16
54.75
57.39
59.91
62.01
63.45
64.05
63.87
63.04
61.76
60.21
58.48
56.46
53.97
50.81
46.90
42.37
37.58
32.98
28.96
25.69
23.03
20.64
18.06
14.92
11.06
6.56
1.65
-3.31
-7.95
-11.99
-15.25
-17.76
-19.82
-22.01
-25.11
-29.91
-36.88
-45.89
-55.96
-65.28
-71.68
-73.15
-68.60
-58.21
-43.43
-26.50
-9.69
5.27
17.55
27.06
34.17
39.26
42.56
44.21
44.45
43.82
43.08
42.98
44.03
46.22
49.17
52.30
55.12
57.38
59.05
60.20
60.78
60.67
59.73
57.90
55.29
52.09
48.48
44.49
40.17
35.55
30.79
26.06
21.52
17.19
12.95
8.57
3.90
-1.12
-6.38
-11.73
-17.01
-22.10
-26.96
-31.56
-35.99
-40.44
-45.15
-50.45
-56.55
-63.47
-70.84
-77.88
-83.55
-86.64
-86.09
-81.25
-72.06
-59.19
-43.95
-28.04
-13.17
-0.73
8.56
14.66
18.14
19.86
20.59
20.89
21.04
21.15
21.46
22.26
23.95
26.69
30.33
34.36
38.03
40.76
42.29
42.72
42.35
41.34
39.62
36.94
33.09
28.19
22.76
17.47
12.94
9.33
6.38
3.59
0.49
-3.10
-7.07
-11.18
-15.22
-19.21
-23.30
-27.69
-32.41
-37.38
-42.45
-47.60
-52.94
-58.73
-65.00
-71.28
-76.47
-79.00
-77.35
-70.68
-59.17
-44.18
-27.70
-11.78
2.09
13.23
21.67
27.77
31.91
34.23
34.76
33.67
31.44
28.90
27.00
26.44
27.43
29.56
32.09
34.20
35.37
35.50
34.85
33.76
32.43
30.81
28.64
25.73
22.02
17.74
13.24
8.90
5.02
1.65
-1.28
-4.06
-7.01
-10.44
-14.51
-19.16
-24.09
-28.86
-33.13
-36.84
-40.40
-44.50
-49.90
-56.98
-65.51
-74.58
-82.77
-88.59
-90.77
-88.56
-81.82
-71.00
-57.00
-41.09
-24.70
-9.24
4.10
14.56
21.93
26.45
28.74
29.54
29.55
29.27
29.07
29.14
29.59
30.46
31.70
33.18
34.70
35.99
36.86
37.15
36.83
35.93
34.53
32.69
30.47
27.92
25.09
22.05
18.86
15.61
12.32
9.01
5.65
2.19
-1.40
-5.14
-9.00
-12.92
-16.77
-20.52
-24.26
-28.37
-33.33
-39.59
-47.23
-55.68
-63.67
-69.53
-71.61
-68.83
-61.04
-49.09
-34.47
-18.93
-4.00
9.23
20.12
28.39
34.00
37.06
37.91
37.13
35.49
33.85
32.92
33.07
34.19
35.83
37.40
38.37
38.50
37.87
36.69
35.13
33.21
30.77
27.63
23.71
19.22
14.53
10.08
6.16
2.77
-0.37
-3.62
-7.29
-11.39
-15.71
-19.91
-23.71
-27.08
-30.22
-33.50
-37.29
-41.88
-47.35
-53.54
-60.03
-66.11
-70.82
-73.11
-72.04
-67.10
-58.38
-46.64
-33.11
-19.25
-6.39
4.46
12.84
18.71
22.35
24.21
24.72
24.25
23.11
21.67
20.34
19.53
19.56
20.46
22.00
23.67
24.95
25.42
24.95
23.67
21.85
19.71
17.33
14.65
11.55
7.94
3.85
-0.57
-5.12
-9.65
-14.10
-18.48
-22.81
-27.12
-31.40
-35.69
-40.11
-44.96
-50.58
-57.26
-64.96
-73.11
-80.61
-85.90
-87.36
-83.84
-74.99
-61.56
-45.15
-27.81
-11.44
2.59
13.65
21.75
27.21
30.51
32.07
32.30
31.65
30.71
30.08
30.28
31.55
33.79
36.64
39.61
42.29
44.40
45.79
46.34
45.92
44.37
41.60
37.75
33.16
28.36
23.81
19.72
15.91
11.99
7.50
2.25
-3.55
-9.45
-14.93
-19.71
-23.98
-28.23
-33.12
-39.17
-46.58
-55.21
-64.39
-72.96
-79.30
-81.60
-78.34
-68.91
-54.05
-35.76
-16.79
0.31
13.86
23.50
29.84
33.89
36.48
37.97
38.42
37.94
36.94
36.16
36.30
37.70
40.16
42.90
45.11
46.23
46.26
45.61
44.83
44.16
43.41
41.99
39.33
35.24
30.13
24.82
20.17
16.60
13.93
11.42
8.18
3.70
-1.97
-8.21
-14.25
-19.51
-23.96
-28.10
-32.78
-38.78
-46.57
-56.01
-66.36
-76.25
-83.97
-87.75
-86.21
-78.79
-65.99
-49.35
-31.07
-13.39
1.95
14.09
22.94
28.95
32.65
34.51
34.91
34.28
33.24
32.54
32.82
34.36
36.95
39.99
42.76
44.72
45.74
46.03
45.95
45.71
45.22
44.10
41.90
38.45
33.96
29.06
24.50
20.78
17.90
15.37
12.41
8.45
3.37
-2.39
-8.13
-13.20
-17.43
-21.14
-25.04
-29.85
-36.11
-43.91
-52.92
-62.42
-71.30
-78.13
-81.33
-79.51
-71.97
-59.06
-42.27
-23.90
-6.37
8.40
19.52
27.06
31.79
34.67
36.50
37.79
38.87
39.98
41.40
43.35
45.99
49.27
52.98
56.83
60.54
63.91
66.78
69.06
70.63
71.32
70.95
69.45
66.95
63.90
61.11
59.56
59.97
62.19
64.85
65.46
61.17
49.89
31.32
7.19
-19.20
-44.26
-65.36
-81.51
-93.31
-102.24
-109.84
-117.06
-124.12
-130.63
-135.80
-138.59
-137.91
-132.78
-122.64
-107.61
-88.59
-67.29
-45.77
-26.06
-9.68
2.62
10.95
16.08
19.08
20.96
22.50
24.17
26.20
28.69
31.71
35.22
39.11
43.02
46.49
49.07
50.45
50.58
49.61
47.75
45.16
41.84
37.80
33.12
28.04
22.95
18.25
14.13
10.47
6.80
2.65
-2.27
-7.82
-13.46
-18.57
-22.78
-26.23
-29.66
-34.05
-40.21
-48.34
-57.72
-66.81
-73.64
-76.30
-73.60
-65.31
-52.21
-35.82
-18.03
-0.58
15.12
28.21
38.27
45.25
49.43
51.39
51.99
52.23
53.10
55.27
58.76
62.93
66.62
68.58
67.90
64.41
58.58
51.42
43.86
36.53
29.58
22.89
16.23
9.62
3.28
-2.38
-7.06
-10.67
-13.47
-15.95
-18.65
-21.95
-25.93
-30.28
-34.53
-38.26
-41.34
-44.02
-46.90
-50.68
-55.94
-62.82
-70.95
-79.36
-86.63
-91.11
-91.28
-86.18
-75.70
-60.78
-43.19
-25.09
-8.44
5.36
15.80
23.03
27.62
30.26
31.60
32.19
32.48
32.87
33.68
35.08
37.07
39.46
41.91
44.01
45.39
45.85
45.39
44.20
42.53
40.51
38.09
35.08
31.28
26.71
21.68
16.69
12.20
8.45
5.26
2.19
-1.29
-5.54
-10.61
-16.22
-21.92
-27.25
-32.00
-36.28
-40.53
-45.40
-51.54
-59.29
-68.39
-77.82
-85.88
-90.56
-90.09
-83.57
-71.32
-54.83
-36.33
-18.14
-2.04
11.04
20.95
28.05
32.87
35.88
37.49
38.19
38.56
39.23
40.71
43.17
46.45
50.05
53.39
55.99
57.66
58.48
58.71
58.58
58.13
57.18
55.40
52.54
48.61
43.91
38.99
34.43
30.59
27.49
24.86
22.26
19.33
15.86
11.82
7.27
2.23
-3.41
-9.90
-17.57
-26.81
-37.86
-50.72
-65.02
-79.83
-93.63
-104.49
-110.37
-109.74
-102.09
-88.24
-70.20
-50.57
-31.79
-15.51
-2.33
7.93
15.77
21.63
25.65
27.95
28.80
28.84
28.96
29.93
32.11
35.22
38.59
41.44
43.26
43.99
43.98
43.66
43.29
42.84
41.93
40.20
37.40
33.62
29.27
24.86
20.88
17.51
14.64
11.91
8.87
5.18
0.79
-4.06
-8.98
-13.55
-17.63
-21.35
-25.17
-29.65
-35.29
-42.35
-50.71
-59.81
-68.60
-75.67
-79.43
-78.50
-72.23
-60.93
-45.95
-29.31
-13.15
0.92
12.09
20.31
25.99
29.64
31.63
32.23
31.81
30.96
30.46
31.09
33.24
36.77
40.89
44.57
46.93
47.55
46.60
44.73
42.62
40.67
38.81
36.64
33.72
29.90
25.43
20.86
16.63
12.91
9.47
5.91
1.93
-2.42
-6.82
-10.84
-14.31
-17.40
-20.52
-24.05
-28.10
-32.44
-36.77
-40.98
-45.35
-50.28
-55.88
-61.62
-66.27
-68.25
-66.39
-60.40
-51.20
-40.40
-29.71
-20.26
-12.35
-5.69
0.13
5.28
9.52
12.61
14.65
16.25
18.46
22.17
27.63
34.09
40.02
43.72
44.07
41.01
35.47
28.94
22.74
17.56
13.38
9.75
6.21
2.59
-1.02
-4.49
-7.79
-11.07
-14.57
-18.43
-22.54
-26.72
-30.81
-34.86
-39.24
-44.45
-50.96
-58.87
-67.64
-76.03
-82.24
-84.39
-81.04
-71.74
-57.25
-39.43
-20.61
-3.06
11.70
23.00
30.99
36.23
39.43
41.18
41.88
41.88
41.47
41.00
40.80
41.12
42.10
43.61
45.33
46.80
47.54
47.21
45.63
42.80
38.86
34.02
28.54
22.73
16.90
11.36
6.27
1.63
-2.70
-6.94
-11.26
-15.75
-20.36
-25.00
-29.56
-34.04
-38.54
-43.38
-49.07
-56.07
-64.61
-74.31
-84.03
-91.86
-95.64
-93.53
-84.78
-70.05
-51.29
-31.21
-12.43
3.24
15.09
23.41
29.05
32.85
35.37
36.91
37.62
37.85
38.08
38.87
40.52
42.94
45.61
47.83
49.08
49.24
48.62
47.73
46.88
46.00
44.65
42.29
38.69
34.07
29.02
24.21
20.00
16.28
12.57
8.34
3.32
-2.31
-8.05
-13.41
-18.15
-22.45
-26.82
-31.88
-38.12
-45.72
-54.50
-63.79
-72.46
-78.96
-81.62
-79.04
-70.61
-56.77
-39.17
-20.13
-2.08
13.17
24.73
32.67
37.62
40.39
41.56
41.55
40.70
39.42
38.28
37.90
38.68
40.65
43.38
46.19
48.38
49.49
49.40
48.25
46.30
43.73
40.62
36.92
32.67
28.04
23.34
18.94
15.06
11.64
8.25
4.33
-0.61
-6.63
-13.33
-19.93
-25.73
-30.40
-34.32
-38.42
-43.81
-51.23
-60.66
-71.18
-81.12
-88.52
-91.57
-89.10
-80.85
-67.48
-50.46
-31.77
-13.49
2.66
15.52
24.68
30.35
33.20
34.04
33.69
32.85
32.13
31.98
32.71
34.40
36.89
39.76
42.53
44.74
46.22
46.94
47.03
46.53
45.31
43.10
39.65
34.96
29.37
23.54
18.17
13.78
10.46
7.82
5.26
2.14
-1.84
-6.59
-11.72
-16.78
-21.51
-25.94
-30.42
-35.42
-41.41
-48.68
-57.22
-66.52
-75.49
-82.48
-85.56
-83.09
-74.30
-59.74
-41.20
-21.29
-2.60
12.95
24.55
32.34
37.05
39.48
40.28
39.85
38.57
36.90
35.49
34.91
35.51
37.23
39.66
42.16
44.20
45.52
46.11
46.11
45.64
44.63
42.86
40.06
36.09
31.11
25.54
19.99
15.04
10.98
7.75
4.90
1.83
-1.92
-6.45
-11.49
-16.52
-21.07
-24.96
-28.44
-32.11
-36.68
-42.68
-50.22
-58.75
-67.08
-73.55
-76.37
-74.13
-66.21
-53.06
-36.10
-17.37
0.99
17.25
30.39
40.13
46.72
50.67
52.41
52.20
50.21
46.63
41.89
36.64
31.62
27.44
24.39
22.39
21.17
20.48
20.12
19.96
19.81
19.33
18.11
15.93
12.86
9.36
6.01
3.32
1.39
-0.05
-1.50
-3.44
-6.11
-9.45
-13.17
-17.00
-20.77
-24.53
-28.54
-33.22
-38.99
-46.22
-54.91
-64.52
-73.80
-80.85
-83.57
-80.26
-70.38
-54.77
-35.61
-15.72
2.31
16.75
27.11
33.83
37.85
40.01
40.90
40.86
40.12
39.06
38.14
37.84
38.37
39.62
41.22
42.70
43.69
44.09
44.04
43.66
42.96
41.65
39.24
35.26
29.53
22.35
14.45
6.79
0.19
-5.00
-8.98
-12.40
-15.99
-20.22
-25.07
-30.03
-34.47
-37.92
-40.39
-42.45
-44.99
-48.97
-54.95
-62.85
-71.80
-80.16
-85.88
-86.95
-82.08
-71.04
-54.88
-35.72
-16.09
1.72
16.24
27.00
34.38
39.17
42.18
43.89
44.46
43.87
42.12
39.43
36.22
33.04
30.34
28.39
27.14
26.45
26.13
26.06
26.21
26.49
26.68
26.32
24.97
22.28
18.34
13.61
8.86
4.80
1.78
-0.36
-2.22
-4.55
-7.88
-12.32
-17.53
-22.87
-27.70
-31.71
-35.00
-38.14
-41.97
-47.33
-54.73
-63.96
-73.94
-82.86
-88.45
-88.73
-82.57
-70.11
-52.79
-32.93
-13.06
4.61
18.72
28.83
35.29
38.91
40.65
41.30
41.38
41.11
40.64
40.17
40.03
40.58
41.97
44.04
46.28
47.97
48.55
47.88
46.24
44.14
42.01
39.87
37.40
34.04
29.48
23.86
17.80
12.11
7.39
3.70
0.58
-2.76
-7.03
-12.43
-18.67
-25.10
-31.01
-35.97
-40.00
-43.50
-47.23
-51.92
-58.16
-66.06
-75.07
-83.88
-90.57
-93.08
-89.77
-80.07
-64.73
-45.75
-25.77
-7.32
7.89
19.23
27.02
32.01
34.99
36.44
36.68
36.05
35.15
34.72
35.41
37.41
40.37
43.48
45.93
47.22
47.38
46.85
46.11
45.40
44.52
42.95
40.14
35.91
30.53
24.73
19.34
14.94
11.61
8.91
6.13
2.64
-1.80
-7.00
-12.40
-17.46
-21.87
-25.75
-29.49
-33.67
-38.73
-44.97
-52.35
-60.55
-68.79
-75.78
-79.88
-79.39
-73.11
-60.88
-43.81
-24.07
-4.30
13.21
26.98
36.57
42.33
44.99
45.32
44.00
41.63
38.83
36.26
34.53
34.03
34.87
36.79
39.25
41.64
43.39
44.25
44.19
43.37
41.95
39.99
37.36
33.97
29.86
25.29
20.68
16.43
12.64
9.12
5.48
1.34
-3.42
-8.58
-13.76
-18.56
-22.86
-26.88
-31.19
-36.43
-43.02
-50.89
-59.29
-66.87
-71.94
-72.96
-68.98
-59.99
-47.00
-31.73
-16.13
-1.85
10.07
19.22
25.66
29.60
31.24
30.73
28.40
24.85
20.94
17.65
15.74
15.49
16.67
18.67
20.76
22.32
22.97
22.58
21.22
19.07
16.39
13.39
10.24
6.98
3.48
-0.44
-4.92
-9.93
-15.18
-20.24
-24.70
-28.43
-31.68
-35.02
-39.08
-44.31
-50.79
-58.16
-65.66
-72.20
-76.58
-77.61
-74.28
-66.09
-53.25
-36.90
-18.87
-1.32
13.77
25.11
32.31
35.82
36.56
35.52
33.50
31.11
28.69
26.61
25.28
25.05
26.09
28.19
30.79
33.17
34.59
34.63
33.28
30.78
27.53
23.86
19.89
15.66
11.06
6.05
0.62
-5.13
-11.03
-16.89
-22.47
-27.60
-32.19
-36.40
-40.55
-45.20
-50.95
-58.26
-67.15
-76.99
-86.36
-93.27
-95.64
-91.95
-81.79
-66.13
-47.03
-27.07
-8.56
6.96
18.95
27.60
33.51
37.26
39.37
40.26
40.40
40.31
40.49
41.25
42.58
44.22
45.78
46.94
47.53
47.55
47.04
45.93
44.10
41.40
37.81
33.50
28.77
23.91
19.07
14.21
9.21
4.00
-1.36
-6.59
-11.46
-15.84
-19.91
-24.04
-28.76
-34.54
-41.68
-50.14
-59.43
-68.58
-76.10
-80.25
-79.47
-72.90
-60.83
-44.63
-26.51
-8.84
6.54
18.63
27.33
33.16
36.87
39.13
40.48
41.27
41.78
42.23
42.84
43.74
44.99
46.57
48.32
49.96
51.16
51.57
50.94
49.21
46.50
43.12
39.44
35.77
32.23
28.65
24.60
19.54
13.02
4.91
-4.46
-14.36
-23.93
-32.51
-39.80
-45.98
-51.54
-57.08
-63.11
-69.99
-77.69
-85.75
-93.04
-97.91
-98.49
-93.30
-81.91
-65.29
-45.58
-25.47
-7.38
7.27
18.14
25.77
30.99
34.49
36.68
37.77
37.99
37.75
37.59
37.98
39.18
41.09
43.36
45.48
47.03
47.75
47.61
46.69
45.11
42.90
40.03
36.46
32.24
27.61
22.97
18.72
15.02
11.72
8.38
4.45
-0.42
-6.15
-12.30
-18.25
-23.54
-28.17
-32.63
-37.79
-44.52
-53.28
-63.81
-74.90
-84.62
-90.68
-91.13
-84.95
-72.40
-55.01
-35.15
-15.32
2.53
17.24
28.55
36.73
42.23
45.48
46.87
46.87
46.10
45.31
45.14
45.90
47.47
49.34
50.94
51.83
51.91
51.36
50.46
49.33
47.86
45.72
42.60
38.37
33.25
27.77
22.54
18.07
14.54
11.72
9.11
6.11
2.24
-2.67
-8.46
-14.71
-20.88
-26.57
-31.72
-36.63
-42.00
-48.64
-57.10
-67.29
-78.19
-87.89
-93.96
-94.20
-87.45
-74.08
-56.01
-36.07
-17.10
-1.13
11.04
19.55
25.08
28.27
29.58
29.43
28.42
27.39
27.21
28.40
30.91
34.17
37.42
40.09
42.05
43.51
44.74
45.70
46.07
45.32
43.10
39.45
34.89
30.16
25.93
22.42
19.43
16.47
13.06
9.00
4.36
-0.60
-5.62
-10.66
-15.80
-21.12
-26.64
-32.32
-38.22
-44.60
-51.89
-60.48
-70.15
-79.80
-87.40
-90.59
-87.41
-77.22
-61.02
-41.23
-20.90
-2.73
11.64
21.76
28.13
31.59
32.96
32.80
31.56
29.70
27.78
26.37
25.90
26.47
27.84
29.53
30.96
31.74
31.75
31.09
29.93
28.41
26.49
24.05
20.94
17.17
12.98
8.79
4.99
1.78
-0.90
-3.37
-6.06
-9.29
-13.18
-17.60
-22.22
-26.73
-30.97
-35.02
-39.29
-44.37
-50.89
-59.25
-69.27
-79.98
-89.57
-95.72
-96.25
-89.89
-76.84
-58.76
-38.26
-18.06
-0.21
14.27
25.30
33.29
38.73
41.99
43.41
43.44
42.77
42.22
42.47
43.83
46.17
48.98
51.63
53.57
54.62
54.88
54.62
54.02
53.04
51.35
48.54
44.39
39.00
32.95
27.00
21.86
17.80
14.59
11.59
8.08
3.56
-1.98
-8.12
-14.20
-19.68
-24.34
-28.34
-32.20
-36.57
-42.07
-49.16
-57.93
-67.89
-77.82
-85.79
-89.53
-87.09
-77.65
-61.94
-42.19
-21.42
-2.51
12.69
23.70
31.07
35.87
38.99
40.91
41.77
41.66
40.94
40.28
40.43
41.89
44.66
48.20
51.63
54.18
55.49
55.73
55.36
54.73
53.80
52.14
49.16
44.57
38.70
32.37
26.62
22.16
19.04
16.70
14.26
10.97
6.55
1.22
-4.47
-10.02
-15.10
-19.70
-24.03
-28.32
-32.96
-38.33
-44.95
-53.31
-63.42
-74.42
-84.43
-90.83
-91.13
-84.01
-69.88
-51.06
-30.85
-12.40
2.29
12.76
19.75
24.43
27.74
29.97
31.07
30.99
30.12
29.22
29.19
30.63
33.54
37.26
40.82
43.33
44.38
44.11
43.05
41.77
40.54
39.20
37.26
34.22
29.87
24.49
18.76
13.49
9.29
6.27
4.03
1.84
-1.01
-4.89
-9.70
-14.93
-19.89
-24.13
-27.57
-30.60
-33.95
-38.38
-44.47
-52.35
-61.51
-70.76
-78.34
-82.25
-80.84
-73.29
-59.99
-42.52
-23.16
-4.30
12.20
25.29
34.71
40.74
43.84
44.59
43.58
41.54
39.29
37.64
37.16
38.06
40.11
42.76
45.38
47.47
48.76
49.27
49.11
48.41
47.15
45.21
42.44
38.82
34.47
29.73
25.00
20.69
17.03
14.05
11.52
9.08
6.29
2.82
-1.45
-6.33
-11.44
-16.33
-20.66
-24.43
-28.01
-32.07
-37.35
-44.38
-53.11
-62.73
-71.69
-77.91
-79.41
-74.89
-64.31
-48.89
-30.87
-12.74
3.41
16.38
25.86
32.10
35.59
36.74
35.91
33.58
30.44
27.42
25.39
24.89
25.92
28.00
30.38
32.42
33.82
34.64
35.09
35.27
35.05
34.05
31.87
28.36
23.76
18.63
13.65
9.30
5.70
2.61
-0.45
-3.87
-7.79
-12.09
-16.41
-20.40
-23.86
-26.87
-29.78
-33.11
-37.38
-42.95
-49.90
-57.84
-65.84
-72.45
-75.90
-74.59
-67.56
-55.00
-38.36
-19.96
-2.43
12.15
22.68
29.14
32.34
33.30
32.93
31.81
30.29
28.65
27.28
26.64
27.08
28.68
31.16
33.96
36.45
38.21
39.11
39.27
38.84
37.82
36.02
33.18
29.15
24.18
18.86
14.01
10.33
8.03
6.69
5.33
2.81
-1.73
-8.58
-17.24
-26.78
-36.16
-44.66
-52.08
-58.75
-65.27
-72.17
-79.68
-87.46
-94.55
-99.46
-100.52
-96.34
-86.32
-70.99
-51.96
-31.54
-12.05
4.69
17.70
26.81
32.40
35.12
35.70
34.90
33.51
32.27
31.80
32.43
34.16
36.64
39.34
41.69
43.29
43.95
43.73
42.76
41.16
38.91
35.90
32.01
27.29
21.96
16.37
10.93
5.89
1.33
-2.80
-6.70
-10.56
-14.57
-18.79
-23.17
-27.54
-31.68
-35.48
-39.18
-43.29
-48.50
-55.25
-63.36
-71.76
-78.65
-82.00
-80.25
-72.85
-60.46
-44.76
-27.92
-11.95
1.64
12.08
19.15
23.06
24.27
23.44
21.40
19.12
17.48
17.09
18.04
19.94
22.17
24.22
25.88
27.29
28.68
30.11
31.22
31.41
30.12
27.15
22.84
17.90
13.12
9.04
5.73
2.85
-0.04
-3.28
-6.94
-10.86
-14.77
-18.48
-22.02
-25.58
-29.41
-33.73
-38.70
-44.43
-51.03
-58.45
-66.36
-73.82
-79.30
-80.95
-77.17
-67.33
-52.10
-33.44
-14.01
3.69
17.93
28.08
34.43
37.74
38.82
38.32
36.77
34.63
32.43
30.72
29.90
30.14
31.30
33.05
34.98
36.71
37.93
38.41
37.92
36.24
33.29
29.15
24.14
18.76
13.50
8.72
4.53
0.83
-2.58
-5.89
-9.25
-12.73
-16.47
-20.65
-25.45
-31.06
-37.56
-44.98
-53.31
-62.52
-72.28
-81.86
-89.89
-94.50
-93.83
-86.69
-73.15
-54.73
-34.07
-14.10
2.79
15.33
23.47
28.05
30.18
30.89
30.79
30.24
29.49
28.82
28.58
29.08
30.46
32.56
34.92
37.02
38.37
38.73
38.11
36.68
34.56
31.82
28.37
24.20
19.41
14.32
9.34
4.80
0.80
-2.83
-6.45
-10.42
-14.88
-19.74
-24.70
-29.42
-33.79
-37.99
-42.55
-48.12
-55.25
-63.94
-73.39
-81.95
-87.41
-87.73
-81.67
-69.41
-52.50
-33.44
-14.85
1.25
13.89
23.04
29.30
33.35
35.72
36.81
37.04
36.98
37.25
38.37
40.49
43.35
46.39
49.04
50.94
52.07
52.53
52.45
51.76
50.24
47.66
44.00
39.53
34.80
30.34
26.53
23.42
20.70
17.86
14.38
9.97
4.60
-1.55
-8.13
-14.81
-21.35
-27.64
-33.78
-40.10
-47.04
-55.08
-64.23
-73.78
-82.13
-87.04
-86.35
-78.85
-64.88
-46.43
-26.49
-8.05
6.91
17.74
25.00
29.77
33.01
35.10
36.07
35.94
35.06
34.14
34.00
35.12
37.42
40.26
42.81
44.44
44.98
44.66
43.86
42.79
41.39
39.33
36.31
32.25
27.45
22.45
17.84
13.93
10.72
7.81
4.67
0.85
-3.77
-9.01
-14.47
-19.72
-24.56
-29.13
-33.92
-39.62
-46.87
-55.86
-66.01
-75.83
-83.17
-85.77
-82.03
-71.66
-55.88
-37.07
-18.06
-1.19
12.15
21.72
28.08
32.06
34.34
35.34
35.31
34.56
33.56
32.96
33.29
34.81
37.30
40.23
42.89
44.77
45.66
45.62
44.82
43.34
41.12
38.02
34.01
29.21
24.00
18.79
13.88
9.36
5.04
0.69
-3.90
-8.71
-13.54
-18.14
-22.34
-26.27
-30.38
-35.31
-41.69
-49.83
-59.44
-69.48
-78.21
-83.55
-83.64
-77.46
-65.22
-48.39
-29.28
-10.48
5.96
18.84
27.89
33.52
36.46
37.44
37.15
36.22
35.25
34.76
35.05
36.14
37.73
39.38
40.71
41.59
42.04
42.15
41.91
41.11
39.45
36.70
32.87
28.25
23.29
18.41
13.87
9.67
5.58
1.33
-3.29
-8.31
-13.55
-18.73
-23.62
-28.13
-32.45
-36.95
-42.17
-48.59
-56.57
-66.02
-76.26
-85.87
-92.81
-94.87
-90.38
-78.89
-61.58
-40.93
-20.00
-1.45
13.15
23.53
30.35
34.58
37.06
38.31
38.63
38.37
38.01
38.14
39.21
41.30
44.12
47.10
49.62
51.29
51.99
51.90
51.25
50.19
48.60
46.23
42.83
38.34
33.06
27.52
22.30
17.78
13.92
10.37
6.63
2.34
-2.53
-7.70
-12.73
-17.29
-21.37
-25.34
-29.85
-35.61
-43.13
-52.38
-62.52
-71.99
-78.71
-80.65
-76.53
-66.25
-51.07
-33.18
-15.11
1.00
13.87
23.13
29.10
32.40
33.77
33.82
33.13
32.19
31.46
31.29
31.88
33.25
35.21
37.47
39.71
41.67
43.13
43.93
43.91
42.92
40.81
37.55
33.34
28.54
23.67
19.20
15.36
12.07
8.99
5.72
1.98
-2.26
-6.80
-11.41
-15.90
-20.21
-24.47
-28.93
-34.02
-40.22
-47.89
-57.06
-67.03
-76.29
-82.71
-84.19
-79.40
-68.32
-52.36
-33.81
-15.18
1.57
15.36
25.91
33.42
38.20
40.61
41.04
40.02
38.31
36.75
36.09
36.64
38.29
40.58
42.91
44.80
46.03
46.60
46.62
45.99
44.51
41.90
38.02
33.07
27.62
22.36
17.86
14.25
11.24
8.26
4.76
0.51
-4.37
-9.47
-14.37
-18.82
-22.88
-26.79
-30.87
-35.43
-40.72
-46.96
-54.20
-62.22
-70.23
-76.77
-79.97
-78.06
-70.05
-56.28
-38.44
-19.12
-1.07
13.64
24.07
30.35
33.33
34.05
33.39
31.90
29.94
27.87
26.16
25.31
25.66
27.27
29.88
32.94
35.83
38.06
39.27
39.30
38.10
35.73
32.35
28.23
23.68
19.03
14.47
10.01
5.51
0.83
-4.10
-9.21
-14.26
-19.10
-23.63
-27.96
-32.33
-37.07
-42.52
-48.99
-56.64
-65.33
-74.39
-82.50
-87.82
-88.40
-82.86
-70.93
-53.76
-33.62
-13.32
4.71
18.89
28.77
34.70
37.46
37.89
36.68
34.50
31.97
29.83
28.73
29.06
30.80
33.47
36.27
38.30
38.92
37.83
35.20
31.44
27.08
22.53
18.07
13.83
9.86
6.18
2.80
-0.32
-3.36
-6.58
-10.21
-14.34
-18.83
-23.38
-27.64
-31.44
-34.90
-38.54
-43.09
-49.31
-57.52
-67.24
-77.08
-84.86
-88.23
-85.39
-75.78
-60.33
-41.25
-21.32
-3.05
11.96
23.14
30.82
35.71
38.50
39.73
39.78
39.10
38.26
37.88
38.50
40.32
43.11
46.40
49.65
52.46
54.74
56.45
57.49
57.56
56.16
52.86
47.52
40.49
32.52
24.52
17.22
10.90
5.44
0.43
-4.49
-9.50
-14.45
-19.09
-23.20
-26.86
-30.41
-34.40
-39.38
-45.73
-53.46
-62.16
-70.86
-78.04
-81.87
-80.59
-73.09
-59.46
-41.10
-20.54
-0.66
16.13
28.52
36.44
40.78
42.78
43.43
43.22
42.27
40.64
38.67
37.02
36.44
37.30
39.45
42.10
44.27
45.24
44.80
43.25
41.06
38.57
35.78
32.46
28.42
23.73
18.81
14.14
10.07
6.57
3.35
-0.09
-4.08
-8.71
-13.74
-18.75
-23.40
-27.53
-31.28
-35.09
-39.65
-45.58
-53.20
-62.09
-70.95
-77.76
-80.27
-76.80
-66.93
-51.80
-33.75
-15.58
0.30
12.55
20.89
25.87
28.29
28.85
28.06
26.34
24.19
22.25
21.19
21.48
23.19
25.98
29.20
32.15
34.31
35.44
35.55
34.76
33.18
30.85
27.75
23.91
19.46
14.66
9.84
5.25
1.01
-2.91
-6.67
-10.39
-14.17
-17.98
-21.74
-25.39
-29.03
-32.94
-37.67
-43.76
-51.48
-60.50
-69.61
-76.92
-80.28
-78.03
-69.66
-56.04
-39.20
-21.61
-5.42
8.10
18.57
26.23
31.46
34.53
35.56
34.72
32.51
29.75
27.42
26.31
26.77
28.60
31.17
33.72
35.66
36.65
36.69
35.89
34.36
32.12
29.16
25.42
20.96
15.90
10.41
4.68
-1.14
-6.86
-12.26
-17.15
-21.43
-25.19
-28.78
-32.75
-37.74
-44.21
-52.19
-61.10
-69.62
-75.94
-78.22
-75.13
-66.40
-52.95
-36.68
-19.87
-4.53
8.03
17.41
23.92
28.11
30.55
31.67
31.75
31.11
30.17
29.42
29.27
29.93
31.30
33.06
34.77
36.05
36.72
36.64
35.79
34.13
31.68
28.50
24.79
20.78
16.65
12.42
8.04
3.40
-1.49
-6.52
-11.46
-16.09
-20.36
-24.42
-28.60
-33.35
-39.17
-46.34
-54.88
-64.23
-73.22
-80.10
-83.01
-80.49
-72.07
-58.51
-41.63
-23.78
-7.10
6.98
17.98
26.10
31.95
36.10
39.01
40.98
42.29
43.23
44.07
44.98
46.04
47.18
48.31
49.32
50.13
50.62
50.68
50.09
48.66
46.21
42.71
38.31
33.34
28.17
23.12
18.37
13.87
9.46
4.98
0.38
-4.27
-8.81
-13.15
-17.39
-21.79
-26.74
-32.60
-39.59
-47.71
-56.61
-65.56
-73.34
-78.44
-79.33
-74.93
-65.17
-51.04
-34.52
-17.89
-3.12
8.71
17.45
23.58
27.81
30.64
32.37
33.19
33.40
33.43
33.81
34.87
36.67
38.92
41.10
42.77
43.59
43.54
42.75
41.44
39.77
37.75
35.28
32.22
28.54
24.45
20.31
16.53
13.21
10.14
6.83
2.84
-1.97
-7.26
-12.40
-16.85
-20.55
-23.92
-27.79
-32.93
-39.77
-48.11
-57.21
-65.90
-72.81
-76.50
-75.82
-70.11
-59.58
-45.33
-29.24
-13.46
0.12
10.38
17.11
20.90
22.73
23.55
24.01
24.44
24.84
25.19
25.51
25.90
26.54
27.47
28.62
29.78
30.66
30.99
30.61
29.45
27.55
24.94
21.71
18.02
14.09
10.19
6.56
3.33
0.48
-2.18
-4.87
-7.73
-10.78
-13.94
-17.05
-20.05
-22.99
-26.05
-29.53
-33.78
-39.16
-45.88
-53.81
-62.30
-70.05
-75.25
-76.11
-71.42
-61.05
-46.13
-28.75
-11.30
4.26
16.77
25.97
32.25
36.25
38.54
39.47
39.32
38.39
37.14
36.09
35.77
36.43
38.02
40.16
42.28
43.85
44.52
44.16
42.82
40.61
37.61
33.84
29.37
24.32
18.95
13.58
8.49
3.82
-0.49
-4.63
-8.82
-13.20
-17.77
-22.41
-26.98
-31.46
-36.01
-41.02
-46.98
-54.19
-62.49
-71.01
-78.12
-81.90
-80.58
-73.33
-60.62
-44.19
-26.48
-9.89
3.92
14.33
21.60
26.44
29.52
31.29
31.98
31.85
31.29
30.80
30.84
31.62
33.03
34.75
36.42
37.81
38.85
39.56
39.91
39.72
38.75
36.77
33.74
29.84
25.48
21.16
17.26
13.92
10.88
7.63
3.57
-1.72
-8.20
-15.40
-22.59
-29.09
-34.63
-39.48
-44.37
-50.13
-57.32
-65.91
-75.09
-83.41
-89.10
-90.44
-86.30
-76.49
-61.83
-44.15
-25.71
-8.67
5.47
16.12
23.54
28.48
31.73
33.85
35.10
35.69
35.90
36.19
37.02
38.58
40.69
42.77
44.25
44.82
44.59
44.02
43.51
43.09
42.37
40.62
37.24
32.11
25.74
19.08
13.22
8.89
6.23
4.66
3.21
0.91
-2.77
-7.70
-13.28
-18.70
-23.43
-27.46
-31.32
-35.84
-41.71
-49.23
-58.04
-67.11
-74.84
-79.39
-79.09
-73.00
-61.22
-45.06
-26.65
-8.34
7.95
21.15
31.03
37.93
42.33
44.67
45.29
44.61
43.27
41.99
41.44
41.94
43.35
45.19
46.84
47.89
48.24
48.12
47.84
47.58
47.27
46.54
44.91
42.05
37.94
32.94
27.68
22.82
18.79
15.61
12.89
10.09
6.70
2.53
-2.32
-7.49
-12.60
-17.38
-21.82
-26.14
-30.70
-35.97
-42.35
-50.04
-58.87
-68.10
-76.36
-81.86
-82.79
-77.91
-67.12
-51.52
-33.24
-14.78
1.65
14.68
23.93
29.76
32.86
33.90
33.38
31.66
29.19
26.52
24.37
23.30
23.56
24.96
26.92
28.80
30.09
30.66
30.60
30.16
29.40
28.11
25.96
22.72
18.51
13.85
9.49
5.99
3.50
1.62
-0.36
-3.11
-6.88
-11.43
-16.10
-20.19
-23.31
-25.53
-27.38
-29.68
-33.19
-38.38
-45.18
-52.88
-60.15
-65.26
-66.48
-62.54
-53.06
-38.80
-21.44
-3.21
13.77
27.97
38.61
45.62
49.35
50.34
49.24
46.76
43.73
40.95
39.05
38.35
38.75
39.84
41.13
42.20
42.86
43.08
42.85
42.12
40.71
38.39
34.97
30.40
24.79
18.40
11.50
4.38
-2.71
-9.60
-16.11
-22.10
-27.41
-31.98
-35.83
-39.06
-41.89
-44.66
-47.72
-51.45
-56.19
-62.13
-69.11
-76.47
-82.92
-86.65
-85.71
-78.77
-65.64
-47.62
-27.21
-7.36
9.50
22.06
30.32
35.14
37.59
38.47
38.17
36.84
34.74
32.35
30.35
29.28
29.27
30.05
31.09
31.84
32.00
31.50
30.42
28.82
26.73
24.11
20.89
17.13
12.94
8.51
4.06
-0.23
-4.30
-8.22
-12.24
-16.65
-21.62
-27.04
-32.57
-37.75
-42.34
-46.44
-50.58
-55.46
-61.61
-68.97
-76.77
-83.51
-87.29
-86.37
-79.71
-67.38
-50.64
-31.66
-12.82
3.82
17.09
26.63
32.79
36.14
37.32
36.92
35.52
33.71
32.04
30.90
30.45
30.67
31.43
32.58
33.96
35.34
36.41
36.79
36.17
34.41
31.59
27.98
23.81
19.26
14.42
9.34
4.16
-0.87
-5.50
-9.62
-13.32
-16.87
-20.58
-24.61
-28.98
-33.66
-38.72
-44.46
-51.26
-59.22
-67.74
-75.31
-79.82
-79.16
-72.13
-58.98
-41.53
-22.53
-4.71
10.01
20.99
28.60
33.69
36.99
38.72
38.80
37.19
34.23
30.76
27.84
26.32
26.52
28.04
30.03
31.55
31.98
31.19
29.45
27.17
24.68
22.03
19.06
15.53
11.32
6.45
1.15
-4.24
-9.38
-14.02
-18.08
-21.66
-24.97
-28.33
-32.01
-36.23
-41.16
-46.91
-53.53
-60.76
-67.93
-73.77
-76.65
-74.92
-67.63
-54.93
-38.24
-19.84
-2.16
12.85
24.25
32.00
36.65
38.89
39.28
38.20
36.03
33.30
30.71
29.04
28.83
30.23
32.88
36.04
38.78
40.27
40.07
38.14
34.86
30.74
26.23
21.52
16.55
11.14
5.18
-1.22
-7.68
-13.72
-18.96
-23.29
-26.93
-30.34
-34.09
-38.73
-44.64
-52.02
-60.68
-69.99
-78.67
-84.98
-87.05
-83.42
-73.64
-58.52
-40.06
-20.83
-3.29
10.91
21.17
27.82
31.71
33.70
34.45
34.33
33.64
32.75
32.13
32.30
33.60
36.01
39.07
42.08
44.23
45.01
44.24
42.14
39.17
35.78
32.23
28.52
24.45
19.80
14.50
8.72
2.87
-2.58
-7.28
-11.20
-14.66
-18.19
-22.38
-27.71
-34.34
-42.16
-50.69
-59.04
-65.94
-69.88
-69.35
-63.41
-52.00
-36.27
-18.26
-0.37
15.33
27.60
36.20
41.60
44.59
45.80
45.62
44.28
42.11
39.70
37.87
37.40
38.68
41.41
44.75
47.57
48.91
48.39
46.24
43.13
39.74
36.45
33.17
29.56
25.21
19.91
13.77
7.14
0.50
-5.79
-11.51
-16.62
-21.24
-25.59
-30.02
-34.96
-40.87
-48.20
-56.97
-66.57
-75.60
-81.99
-83.64
-79.11
-68.21
-52.30
-33.81
-15.51
0.38
12.76
21.58
27.49
31.24
33.29
33.82
33.01
31.27
29.32
27.98
27.92
29.35
31.98
35.14
38.05
40.08
40.91
40.51
39.05
