1553180910.00
64.000000
-0.00
-0.00
-0.00
-0.00
-0.00
-0.00
-0.00
-0.00
-0.00
-0.00
0.00
0.01
0.01
-0.00
-0.03
-0.05
-0.05
0.00
0.13
0.36
0.66
1.01
1.37
1.72
2.06
2.40
2.79
3.24
3.80
4.42
5.06
5.66
6.20
6.68
7.15
7.68
8.31
9.14
10.09
11.04
11.88
12.56
13.14
13.76
14.65
15.96
17.91
20.32
22.90
25.38
27.58
29.57
31.68
34.32
37.81
42.54
48.15
54.10
59.83
64.97
69.58
74.14
79.34
85.71
93.76
103.00
112.62
121.73
129.77
136.75
143.30
150.75
157.77
166.64
177.95
191.79
206.97
220.57
228.25
225.36
208.53
176.87
132.76
80.05
23.07
-34.94
-92.44
-149.16
-205.23
-260.37
-313.74
-363.87
-409.83
-450.91
-486.50
-515.74
-537.23
-549.22
-549.96
-538.37
-514.21
-478.67
-433.88
-382.45
-327.02
-269.84
-212.63
-156.66
-102.95
-52.37
-5.90
35.58
71.43
101.35
125.50
144.38
158.69
169.15
176.37
180.75
182.57
182.07
179.51
175.23
169.65
163.18
156.15
148.81
141.30
133.69
126.02
118.33
110.69
103.16
95.81
88.69
81.83
75.25
68.95
62.94
57.25
51.87
46.81
42.06
37.61
33.44
29.54
25.91
22.57
19.52
16.76
14.30
12.12
10.18
8.45
6.92
5.58
4.41
3.43
2.63
1.99
1.47
1.01
0.59
0.16
-0.25
-0.63
-0.91
-1.07
-1.13
-1.15
-1.24
-1.47
-1.87
-2.39
-2.92
-3.32
-3.50
-3.49
-3.40
-3.45
-3.79
-4.50
-5.48
-6.51
-7.33
-7.77
-7.85
-7.76
-7.82
-8.33
-9.38
-10.85
-12.42
-13.75
-14.60
-14.93
-14.92
-14.82
-14.96
-15.64
-17.20
-19.83
-23.30
-26.65
-28.29
-26.49
-20.20
-9.64
3.55
16.96
28.25
36.06
40.16
41.17
39.98
37.29
33.63
29.53
25.67
22.78
21.35
21.37
22.37
23.66
24.71
25.29
25.47
25.47
25.51
25.73
26.10
26.48
26.61
26.13
24.71
22.20
18.67
14.51
9.99
5.43
1.07
-2.94
-6.58
-9.85
-12.74
-15.25
-17.34
-18.96
-19.97
-20.26
-19.80
-18.76
-17.40
-16.13
-15.28
-15.03
-15.36
-16.01
-16.56
-16.54
-15.52
-13.26
-9.82
-5.61
-1.25
2.52
5.13
6.36
6.26
5.21
3.67
2.08
0.74
-0.22
-0.84
-1.18
-1.37
-1.43
-1.35
-1.07
-0.53
0.23
1.15
2.12
3.05
3.93
4.77
5.57
6.23
6.63
6.62
6.18
5.41
4.50
3.63
2.94
2.44
2.01
1.53
0.88
0.02
-0.80
-1.39
-1.66
-1.66
-1.62
-1.89
-2.83
-4.70
-7.46
-10.76
-13.99
-16.40
-17.32
-16.35
-13.49
-9.10
-3.73
1.97
7.44
12.22
15.94
18.29
19.12
18.44
16.58
14.06
11.53
9.61
8.64
8.76
9.85
11.68
13.94
16.30
18.43
20.02
20.83
20.71
19.65
17.73
15.18
12.25
9.22
6.38
3.93
1.98
0.39
-1.04
-2.53
-4.21
-6.03
-7.83
-9.43
-10.73
-11.73
-12.52
-13.25
-14.12
-15.36
-17.21
-19.84
-23.08
-26.38
-28.80
-29.30
-27.15
-22.26
-15.30
-7.45
0.02
6.13
10.46
13.13
14.51
15.00
14.82
14.01
12.61
10.76
8.77
7.11
6.17
6.15
6.93
8.17
9.41
10.29
10.68
10.61
10.26
9.77
9.22
8.56
7.72
6.60
5.16
3.43
1.53
-0.36
-2.06
-3.44
-4.53
-5.49
-6.61
-8.16
-10.29
-12.96
-15.93
-18.92
-21.70
-24.20
-26.46
-28.63
-30.91
-33.52
-36.66
-40.44
-44.74
-49.16
-52.95
-55.22
-55.28
-52.86
-48.31
-42.54
-36.69
-31.77
-28.40
-26.74
-26.62
-27.77
-29.91
-32.83
-36.26
-39.81
-42.91
-44.89
-45.16
-43.33
-39.32
-33.34
-25.78
-17.10
-7.70
2.08
11.90
21.43
30.25
37.96
44.23
48.88
51.96
53.58
53.96
53.34
51.98
50.17
48.21
46.32
44.53
42.72
40.56
37.82
34.39
30.43
26.26
22.21
18.48
15.08
11.85
8.57
5.10
1.35
-2.67
-6.92
-11.20
-15.20
-18.39
-20.12
-19.80
-17.12
-12.28
-5.96
0.82
6.95
11.62
14.53
15.82
15.98
15.56
14.95
14.28
13.51
12.53
11.37
10.16
9.19
8.70
8.80
9.40
10.27
11.15
11.88
12.37
12.62
12.64
12.37
11.69
10.55
8.92
6.94
4.84
2.81
1.00
-0.58
-1.95
-3.15
-4.13
-4.87
-5.34
-5.69
-6.10
-6.77
-7.76
-8.96
-10.14
-11.07
-11.67
-12.02
-12.33
-12.84
-13.76
-15.20
-17.14
-19.41
-21.65
-23.33
-23.76
-22.30
-18.55
-12.57
-4.91
3.41
11.24
17.52
21.67
23.64
23.92
23.27
22.41
21.75
21.42
21.33
21.31
21.34
21.51
21.94
22.59
23.22
23.46
23.04
21.88
20.21
18.47
17.11
16.40
16.34
16.67
17.03
17.14
16.90
16.36
15.60
14.69
13.54
11.97
9.88
7.24
4.26
1.28
-1.35
-3.50
-5.23
-6.83
-8.63
-10.81
-13.32
-15.95
-18.45
-20.75
-23.01
-25.59
-28.89
-33.04
-37.82
-42.55
-46.32
-48.21
-47.65
-44.52
-39.22
-32.48
-25.14
-17.96
-11.56
-6.42
-2.84
-0.98
-0.72
-1.69
-3.32
-4.98
-6.17
-6.62
-6.28
-5.30
-3.83
-1.99
0.16
2.64
5.40
8.36
11.33
14.02
16.11
17.36
17.68
17.17
16.04
14.52
12.84
11.18
9.74
8.78
8.43
8.64
9.09
9.26
8.71
7.36
5.50
3.67
2.33
1.60
1.23
0.75
-0.27
-1.95
-4.10
-6.34
-8.36
-9.96
-11.34
-12.85
-14.91
-17.78
-21.24
-24.60
-26.80
-26.78
-24.08
-18.94
-12.28
-5.30
1.07
6.46
10.88
14.52
17.27
18.73
18.54
16.67
13.72
10.72
8.64
7.92
8.25
8.81
8.84
8.14
7.19
6.84
7.70
9.82
12.34
14.13
14.30
12.69
9.95
7.12
5.07
4.08
3.69
3.13
1.85
-0.23
-2.61
-4.61
-5.74
-5.93
-5.69
-5.68
-6.46
-8.14
-10.41
-12.70
-14.49
-15.51
-15.90
-16.02
-16.31
-17.05
-18.36
-20.22
-22.47
-24.80
-26.77
-27.79
-27.23
-24.64
-19.94
-13.52
-6.10
1.48
8.58
14.78
19.90
23.83
26.46
27.62
27.26
25.52
22.82
19.74
16.85
14.54
12.95
11.94
11.28
10.74
10.17
9.53
8.79
7.87
6.64
4.97
2.80
0.18
-2.77
-5.94
-9.26
-12.70
-16.14
-19.38
-22.06
-23.88
-24.63
-24.34
-23.19
-21.50
-19.66
-18.04
-17.00
-16.69
-17.07
-17.77
-18.28
-18.16
-17.23
-15.67
-13.84
-11.99
-10.05
-7.72
-4.62
-0.67
3.83
8.33
12.42
16.17
20.28
25.77
33.50
43.51
54.70
64.97
71.98
73.97
70.49
62.52
52.00
41.07
31.36
23.79
18.69
16.21
16.38
18.97
23.25
27.88
31.14
31.57
28.48
22.21
13.83
4.63
-4.37
-12.58
-19.76
-25.66
-29.80
-31.56
-30.40
-26.30
-19.86
-12.27
-4.92
0.96
4.54
5.41
3.46
-1.27
-8.64
-18.30
-29.62
-41.70
-53.47
-63.92
-72.28
-78.11
-81.29
-81.87
-80.05
-76.10
-70.41
-63.51
-56.03
-48.61
-41.83
-36.06
-31.47
-27.96
-25.25
-22.98
-20.82
-18.52
-16.01
-13.29
-10.35
-7.12
-3.48
0.73
5.54
10.78
16.06
20.91
24.89
27.79
29.64
30.64
30.99
30.84
30.18
28.98
27.32
25.35
23.36
21.57
20.04
18.62
17.06
15.13
12.77
10.13
7.46
5.02
2.90
0.99
-0.96
-3.30
-6.33
-10.25
-15.00
-20.29
-25.60
-30.27
-33.66
-35.26
-34.82
-32.42
-28.39
-23.31
-17.91
-12.95
-9.05
-6.62
-5.68
-5.98
-7.11
-8.64
-10.33
-12.11
-14.01
-16.05
-18.15
-20.09
-21.65
-22.65
-23.04
-22.91
-22.37
-21.50
-20.23
-18.39
-15.79
-12.30
-7.95
-2.87
2.69
8.55
14.58
20.68
26.71
32.41
37.38
41.18
43.42
43.93
42.83
40.51
37.46
34.17
30.98
27.96
25.00
21.79
18.02
13.50
8.32
2.80
-2.40
-6.50
-8.74
-8.61
-6.06
-1.51
4.22
10.16
15.46
19.56
22.26
23.69
24.12
23.88
23.24
22.42
21.59
20.88
20.39
20.19
20.30
20.67
21.28
22.04
22.94
23.98
25.15
26.40
27.66
28.77
29.58
29.90
29.60
28.61
27.01
25.01
22.94
21.09
19.63
18.53
17.60
16.61
15.47
14.25
13.17
12.37
11.84
11.36
10.57
9.17
7.04
4.24
0.99
-2.52
-6.18
-9.96
-13.81
-17.58
-20.96
-23.54
-24.95
-24.95
-23.53
-20.92
-17.59
-14.13
-11.23
-9.52
-9.45
-11.17
-14.45
-18.73
-23.28
-27.42
-30.61
-32.53
-32.99
-31.82
-28.86
-24.01
-17.33
-9.19
-0.29
8.49
16.24
22.29
26.30
28.37
28.87
28.24
26.82
24.76
22.03
18.63
14.72
10.65
6.86
3.71
1.29
-0.56
-2.21
-4.03
-6.19
-8.66
-11.23
-13.68
-15.88
-17.87
-19.77
-21.76
-23.97
-26.47
-29.31
-32.57
-36.28
-40.28
-44.12
-47.00
-47.99
-46.27
-41.58
-34.36
-25.72
-17.05
-9.58
-3.97
-0.17
2.32
4.12
5.61
6.89
7.82
8.27
8.36
8.35
8.59
9.32
10.54
12.07
13.69
15.23
16.66
18.04
19.45
20.89
22.30
23.52
24.37
24.73
24.63
24.22
23.74
23.36
23.14
22.97
22.69
22.22
21.65
21.23
21.21
21.61
22.21
22.58
22.35
21.35
19.79
18.08
16.66
15.68
14.94
13.98
12.25
9.38
5.37
0.59
-4.34
-8.68
-11.73
-12.95
-12.04
-8.99
-4.13
1.83
7.85
12.87
16.04
17.08
16.39
14.86
13.47
12.89
13.15
13.75
14.06
13.68
12.68
11.59
10.97
11.14
11.92
12.87
13.51
13.70
13.63
13.72
14.26
15.26
16.21
16.53
15.79
14.06
11.91
10.16
9.41
9.75
10.50
10.72
9.64
7.12
3.84
0.87
-0.87
-1.15
-0.58
-0.29
-1.25
-3.77
-7.30
-10.76
-13.14
-14.01
-13.77
-13.38
-13.87
-15.84
-19.20
-23.26
-27.03
-29.56
-30.24
-28.84
-25.39
-20.07
-13.19
-5.19
3.30
11.57
18.84
24.50
28.24
30.08
30.37
29.56
28.10
26.31
24.30
22.12
19.85
17.62
15.61
13.90
12.34
10.55
8.01
4.23
-1.04
-7.77
-15.62
-24.11
-32.67
-40.77
-47.86
-53.43
-57.06
-58.49
-57.74
-55.01
-50.70
-45.23
-38.92
-32.02
-24.75
-17.40
-10.31
-3.82
1.83
6.61
10.61
14.03
16.96
19.40
21.27
22.51
23.08
22.99
22.24
20.82
18.86
16.72
15.04
14.57
15.95
19.34
24.34
29.98
35.10
38.62
39.91
38.87
35.84
31.40
26.13
20.42
14.47
8.37
2.31
-3.41
-8.32
-11.99
-14.16
-14.92
-14.68
-13.96
-13.27
-12.88
-12.81
-12.88
-12.88
-12.68
-12.38
-12.24
-12.56
-13.53
-15.10
-16.92
-18.54
-19.56
-19.81
-19.46
-18.88
-18.51
-18.64
-19.28
-20.28
-21.40
-22.44
-23.36
-24.21
-25.08
-26.03
-27.07
-28.25
-29.69
-31.56
-34.05
-37.06
-40.06
-42.13
-42.16
-39.34
-33.53
-25.42
-16.33
-7.72
-0.67
4.38
7.61
9.55
10.69
11.31
11.45
11.14
10.48
9.74
9.24
9.21
9.72
10.62
11.67
12.70
13.63
14.50
15.41
16.38
17.31
17.97
18.11
17.51
16.12
14.05
11.61
9.15
6.99
5.24
3.84
2.53
1.00
-0.93
-3.27
-5.90
-8.65
-11.40
-14.22
-17.17
-20.35
-23.73
-27.15
-30.42
-33.43
-36.21
-38.96
-41.98
-45.58
-49.99
-55.16
-60.71
-65.86
-69.60
-70.91
-69.06
-63.84
-55.62
-45.27
-33.92
-22.74
-12.68
-4.34
2.14
7.08
11.13
15.04
19.38
24.36
29.80
35.31
40.49
45.14
49.27
52.99
56.36
59.28
61.55
62.95
63.29
62.55
60.87
58.48
55.69
52.75
49.82
46.93
43.96
40.83
37.52
34.17
31.00
28.21
25.79
23.59
21.32
18.76
15.85
12.74
9.62
6.62
3.76
0.97
-1.84
-4.69
-7.46
-10.04
-12.37
-14.57
-16.86
-19.45
-22.30
-24.97
-26.71
-26.62
-24.06
-18.94
-11.83
-3.83
3.85
10.24
14.89
17.80
19.26
19.56
18.83
17.14
14.62
11.58
8.53
6.07
4.67
4.51
5.40
6.89
8.46
9.73
10.55
10.98
11.24
11.46
11.67
11.69
11.29
10.29
8.65
6.56
4.30
2.17
0.36
-1.13
-2.39
-3.64
-5.05
-6.77
-8.85
-11.25
-13.83
-16.36
-18.56
-20.21
-21.22
-21.76
-22.22
-23.08
-24.74
-27.29
-30.40
-33.37
-35.26
-35.20
-32.70
-27.73
-20.84
-12.94
-5.07
1.86
7.26
10.91
12.88
13.41
12.82
11.37
9.34
7.00
4.68
2.76
1.51
1.10
1.46
2.28
3.19
3.85
4.13
4.10
3.96
3.82
3.67
3.28
2.37
0.77
-1.43
-3.92
-6.25
-8.09
-9.31
-10.08
-10.75
-11.68
-13.06
-14.87
-16.85
-18.68
-20.09
-20.98
-21.48
-21.86
-22.42
-23.39
-24.92
-27.01
-29.52
-32.14
-34.32
-35.29
-34.26
-30.68
-24.50
-16.33
-7.26
1.37
8.50
13.57
16.58
17.93
18.18
17.78
17.02
16.10
15.16
14.36
13.90
13.91
14.45
15.43
16.64
17.83
18.79
19.43
19.73
19.79
19.66
19.30
18.58
17.28
15.26
12.50
9.25
5.92
2.99
0.81
-0.55
-1.38
-2.18
-3.46
-5.50
-8.20
-11.14
-13.80
-15.76
-16.98
-17.68
-18.30
-19.22
-20.73
-22.92
-25.74
-28.95
-32.10
-34.47
-35.18
-33.48
-29.02
-22.10
-13.63
-4.88
2.99
9.23
13.63
16.45
18.10
18.97
19.29
19.17
18.68
18.02
17.43
17.18
17.46
18.30
19.54
20.91
22.12
22.96
23.40
23.57
23.64
23.76
23.89
23.83
23.29
22.06
20.17
17.91
15.57
13.41
11.48
9.71
7.97
6.28
4.73
3.46
2.36
1.22
-0.26
-2.19
-4.34
-6.29
-7.58
-8.13
-8.35
-9.01
-10.83
-14.06
-18.18
-22.05
-24.30
-23.85
-20.49
-14.83
-7.99
-1.09
5.16
10.61
15.40
19.64
22.99
24.89
24.83
22.86
19.65
16.32
13.87
12.78
12.71
12.89
12.57
11.52
10.07
8.84
8.34
8.66
9.43
10.05
10.03
9.19
7.66
5.72
3.67
1.69
-0.19
-2.00
-3.73
-5.34
-6.72
-7.79
-8.50
-8.96
-9.43
-10.22
-11.57
-13.50
-15.79
-18.03
-19.85
-21.03
-21.66
-22.02
-22.54
-23.56
-25.30
-27.78
-30.82
-34.03
-36.80
-38.46
-38.30
-35.89
-31.18
-24.57
-16.88
-9.05
-1.96
3.78
7.91
10.45
11.58
11.49
10.42
8.62
6.43
4.25
2.45
1.29
0.77
0.68
0.71
0.58
0.15
-0.60
-1.65
-3.05
-4.99
-7.64
-11.08
-15.14
-19.40
-23.40
-26.80
-29.62
-32.21
-35.18
-38.96
-43.65
-48.91
-54.07
-58.51
-61.90
-64.33
-66.19
-67.95
-69.85
-71.90
-74.03
-76.13
-78.12
-79.67
-80.21
-78.93
-75.21
-68.96
-61.02
-52.86
-46.02
-41.29
-38.05
-34.60
-28.56
-18.42
-4.11
12.75
29.49
43.50
52.95
57.28
57.00
53.49
48.59
44.41
42.88
45.26
51.68
60.75
70.03
76.80
79.14
76.63
70.43
62.82
56.38
53.38
55.17
61.87
72.02
82.83
90.63
92.11
85.71
72.16
54.69
37.49
24.23
16.77
14.92
16.98
20.79
24.63
27.54
29.09
28.97
26.84
22.49
16.29
9.14
2.23
-3.15
-5.93
-5.34
-1.10
6.56
16.95
29.45
43.15
57.00
70.04
81.74
91.83
99.98
105.42
107.08
104.84
98.87
89.58
77.75
64.72
52.09
41.08
32.07
24.58
18.77
14.07
9.06
2.12
-7.38
-18.57
-29.28
-36.76
-38.33
-30.67
-12.84
12.80
41.41
68.07
89.80
106.14
118.87
119.68
105.98
82.29
56.38
32.48
9.56
-15.35
-44.00
-75.65
-107.34
-133.93
-151.76
-160.23
-161.42
-158.07
-151.98
-143.79
-134.87
-124.63
-112.45
-99.15
-86.77
-77.32
-71.36
-67.70
-64.35
-59.47
-52.16
-42.17
-30.39
-18.50
-8.21
-0.35
5.37
9.75
13.37
16.59
19.54
22.04
23.67
24.09
23.30
21.69
19.73
17.73
15.91
14.23
12.63
11.02
9.39
7.85
6.55
5.59
4.94
4.48
3.94
3.12
1.95
0.53
-0.95
-2.28
-3.35
-4.13
-4.63
-4.96
-5.22
-5.50
-5.88
-6.37
-6.96
-7.52
-7.96
-8.15
-8.10
-7.99
-8.06
-8.57
-9.65
-11.24
-13.11
-14.94
-16.51
-17.71
-18.66
-19.57
-20.69
-22.17
-23.97
-25.77
-27.02
-27.06
-25.30
-21.46
-15.71
-8.68
-1.32
5.34
10.58
14.09
16.07
17.01
17.44
17.70
17.88
17.95
17.83
17.54
17.24
17.07
17.15
17.42
17.74
18.00
18.14
18.25
18.41
18.67
18.93
19.03
18.76
18.02
16.82
15.26
13.57
11.94
10.54
9.49
8.77
8.25
7.73
6.99
5.90
4.45
2.76
1.02
-0.60
-2.02
-3.26
-4.43
-5.64
-6.93
-8.28
-9.64
-10.98
-12.29
-13.63
-15.11
-16.84
-18.94
-21.49
-24.51
-27.89
-31.30
-34.22
-35.95
-35.83
-33.51
-29.08
-23.16
-16.68
-10.65
-5.81
-2.53
-0.85
-0.57
-1.45
-3.22
-5.59
-8.21
-10.77
-12.95
-14.59
-15.62
-16.11
-16.08
-15.53
-14.36
-12.39
-9.44
-5.46
-0.55
4.97
10.66
16.07
20.86
24.88
28.16
30.80
32.91
34.49
35.49
35.87
35.61
34.84
33.66
32.20
30.48
28.47
26.14
23.48
20.57
17.51
14.37
11.13
7.77
4.29
0.77
-2.63
-5.75
-8.52
-11.01
-13.40
-15.92
-18.72
-21.89
-25.38
-28.98
-32.31
-34.78
-35.73
-34.56
-31.01
-25.27
-17.98
-10.04
-2.35
4.36
9.68
13.48
15.80
16.79
16.65
15.63
13.99
12.08
10.25
8.80
7.97
7.88
8.50
9.66
11.05
12.33
13.28
13.81
14.02
14.05
13.99
13.74
13.13
11.95
10.18
8.00
5.71
3.66
1.99
0.69
-0.44
-1.61
-2.95
-4.47
-6.04
-7.48
-8.68
-9.60
-10.36
-11.15
-12.13
-13.34
-14.70
-16.05
-17.28
-18.43
-19.58
-20.83
-22.22
-23.71
-25.29
-27.04
-29.17
-31.84
-34.86
-37.64
-39.18
-38.48
-34.90
-28.53
-20.23
-11.34
-3.20
3.24
7.64
10.20
11.42
11.76
11.47
10.60
9.15
7.20
4.98
2.83
1.05
-0.13
-0.72
-0.85
-0.78
-0.72
-0.81
-1.11
-1.62
-2.37
-3.41
-4.84
-6.83
-9.47
-12.84
-16.92
-21.55
-26.53
-31.59
-36.48
-41.01
-45.08
-48.68
-51.92
-54.88
-57.63
-60.11
-61.99
-62.68
-61.30
-56.84
-48.34
-35.23
-17.70
3.25
25.81
47.81
67.12
82.24
92.44
97.79
98.82
96.21
90.63
82.64
72.92
62.36
52.03
43.05
36.23
31.88
29.73
29.06
28.98
28.75
27.89
26.27
23.98
21.18
18.01
14.56
10.95
7.42
4.34
2.11
1.09
1.42
3.00
5.53
8.62
11.85
14.87
17.48
19.58
21.27
22.64
23.82
24.84
25.59
25.91
25.59
24.58
22.92
20.81
18.40
15.80
12.98
9.90
6.56
3.07
-0.37
-3.52
-6.26
-8.58
-10.61
-12.51
-14.44
-16.47
-18.64
-20.94
-23.36
-25.82
-28.23
-30.48
-32.50
-34.34
-36.26
-38.68
-41.99
-46.45
-51.95
-57.90
-63.41
-67.40
-68.99
-67.70
-63.62
-57.28
-49.46
-40.95
-32.34
-23.98
-16.02
-8.53
-1.57
4.75
10.32
15.05
18.95
22.13
24.78
27.15
29.42
31.59
33.52
34.96
35.74
35.86
35.50
34.90
34.22
33.46
32.43
30.94
28.94
26.59
24.19
22.02
20.16
18.53
16.91
15.10
13.06
10.82
8.50
6.15
3.81
1.47
-0.85
-3.12
-5.31
-7.40
-9.45
-11.52
-13.61
-15.66
-17.58
-19.30
-20.82
-22.30
-23.98
-26.10
-28.75
-31.79
-34.73
-36.82
-37.24
-35.34
-30.90
-24.28
-16.30
-8.03
-0.48
5.62
10.00
12.68
13.96
14.19
13.76
13.01
12.19
11.50
11.03
10.80
10.78
10.97
11.38
12.02
12.88
13.88
14.93
15.91
16.72
17.25
17.41
17.08
16.22
14.83
13.02
11.01
9.07
7.39
6.11
5.20
4.51
3.85
3.05
2.00
0.72
-0.71
-2.21
-3.69
-5.15
-6.64
-8.25
-10.06
-12.08
-14.27
-16.46
-18.48
-20.22
-21.70
-23.13
-24.86
-27.20
-30.19
-33.50
-36.39
-37.94
-37.33
-34.16
-28.56
-21.15
-12.87
-4.71
2.46
8.11
12.00
14.23
15.10
15.02
14.43
13.73
13.17
12.87
12.85
13.06
13.44
13.95
14.58
15.35
16.27
17.37
18.60
19.84
20.93
21.67
21.92
21.61
20.78
19.53
18.02
16.41
14.83
13.32
11.89
10.49
9.09
7.67
6.26
4.88
3.54
2.18
0.74
-0.83
-2.52
-4.28
-6.03
-7.72
-9.38
-11.03
-12.71
-14.40
-16.15
-18.07
-20.36
-23.25
-26.80
-30.81
-34.73
-37.74
-39.02
-37.99
-34.58
-29.22
-22.76
-16.14
-10.21
-5.51
-2.28
-0.52
-0.12
-0.91
-2.70
-5.26
-8.24
-11.26
-13.90
-15.72
-16.34
-15.51
-13.09
-9.12
-3.85
2.39
9.19
16.17
23.00
29.36
34.90
39.31
42.35
43.92
44.18
43.45
42.14
40.53
38.73
36.66
34.17
31.21
27.85
24.36
21.00
17.98
15.30
12.81
10.25
7.40
4.16
0.59
-3.06
-6.50
-9.51
-12.01
-14.14
-16.20
-18.56
-21.45
-24.82
-28.30
-31.26
-32.95
-32.78
-30.39
-25.84
-19.57
-12.31
-4.93
1.75
7.13
10.93
13.20
14.22
14.39
14.12
13.74
13.44
13.31
13.36
13.57
13.98
14.64
15.57
16.78
18.16
19.55
20.73
21.57
21.97
21.90
21.35
20.31
18.80
16.88
14.68
12.44
10.38
8.68
7.33
6.23
5.17
3.95
2.51
0.91
-0.68
-2.07
-3.17
-4.04
-4.87
-5.91
-7.33
-9.18
-11.33
-13.56
-15.60
-17.29
-18.60
-19.63
-20.63
-21.90
-23.60
-25.70
-27.84
-29.38
-29.63
-27.99
-24.22
-18.52
-11.48
-3.91
3.34
9.61
14.46
17.76
19.59
20.22
19.96
19.14
18.05
16.93
15.97
15.34
15.13
15.35
15.90
16.62
17.34
18.01
18.58
19.02
19.27
19.21
18.71
17.75
16.42
14.93
13.43
12.02
10.64
9.19
7.58
5.85
4.15
2.66
1.47
0.54
-0.28
-1.11
-2.07
-3.20
-4.53
-6.13
-8.06
-10.32
-12.80
-15.30
-17.56
-19.41
-20.84
-22.06
-23.43
-25.32
-27.91
-31.04
-34.13
-36.32
-36.72
-34.68
-30.12
-23.55
-15.97
-8.46
-1.93
3.14
6.71
9.02
10.39
11.04
11.13
10.74
10.02
9.21
8.59
8.42
8.84
9.79
11.12
12.58
13.96
15.15
16.12
16.87
17.40
17.62
17.42
16.68
15.40
13.71
11.83
10.05
8.56
7.43
6.57
5.81
4.99
4.04
3.01
1.98
1.01
0.08
-0.91
-2.04
-3.37
-4.90
-6.57
-8.40
-10.38
-12.51
-14.75
-16.95
-19.00
-20.88
-22.75
-24.93
-27.69
-31.03
-34.54
-37.48
-38.92
-38.08
-34.66
-28.85
-21.37
-13.17
-5.26
1.60
6.95
10.66
12.90
14.00
14.38
14.44
14.53
14.82
15.37
16.12
16.93
17.66
18.25
18.72
19.16
19.69
20.36
21.16
21.92
22.46
22.59
22.22
21.35
20.04
18.36
16.39
14.23
12.02
9.96
8.22
6.92
5.97
5.15
4.25
3.14
1.92
0.79
-0.07
-0.60
-0.92
-1.28
-1.89
-2.88
-4.22
-5.80
-7.52
-9.30
-11.09
-12.85
-14.57
-16.28
-18.05
-20.02
-22.38
-25.27
-28.69
-32.40
-35.86
-38.37
-39.13
-37.58
-33.53
-27.29
-19.62
-11.52
-3.94
2.43
7.25
10.54
12.53
13.58
14.08
14.32
14.51
14.76
15.08
15.45
15.84
16.27
16.74
17.28
17.89
18.52
19.14
19.67
20.04
20.19
20.05
19.64
18.96
18.07
16.99
15.76
14.37
12.85
11.26
9.70
8.25
6.96
5.79
4.65
3.38
1.94
0.33
-1.32
-2.86
-4.22
-5.42
-6.60
-7.94
-9.56
-11.45
-13.48
-15.46
-17.25
-18.79
-20.19
-21.60
-23.21
-25.17
-27.58
-30.45
-33.62
-36.76
-39.32
-40.61
-40.01
-37.15
-32.08
-25.33
-17.76
-10.30
-3.74
1.43
5.03
7.19
8.19
8.41
8.24
8.01
7.98
8.23
8.74
9.40
10.09
10.76
11.44
12.24
13.26
14.50
15.90
17.30
18.48
19.22
19.40
18.96
17.97
16.59
15.00
13.38
11.87
10.54
9.39
8.36
7.39
6.41
5.38
4.31
3.20
2.11
1.07
0.07
-0.93
-2.01
-3.27
-4.75
-6.44
-8.19
-9.82
-11.19
-12.29
-13.32
-14.56
-16.34
-18.77
-21.67
-24.54
-26.69
-27.47
-26.42
-23.43
-18.71
-12.74
-6.12
0.51
6.52
11.45
14.98
17.05
17.79
17.49
16.48
15.06
13.50
12.00
10.76
9.93
9.61
9.85
10.62
11.79
13.18
14.54
15.65
16.29
16.37
15.89
14.98
13.81
12.53
11.15
9.63
7.86
5.82
3.60
1.42
-0.50
-1.97
-3.01
-3.82
-4.69
-5.93
-7.63
-9.69
-11.81
-13.67
-15.11
-16.18
-17.12
-18.18
-19.57
-21.39
-23.64
-26.29
-29.27
-32.37
-35.14
-36.93
-37.02
-34.89
-30.42
-24.00
-16.44
-8.71
-1.70
4.00
8.18
10.91
12.46
13.17
13.31
13.15
12.86
12.59
12.44
12.44
12.60
12.88
13.22
13.61
14.08
14.69
15.45
16.31
17.07
17.53
17.46
16.80
15.58
13.94
12.04
10.05
8.09
6.30
4.79
3.60
2.67
1.83
0.91
-0.26
-1.70
-3.37
-5.17
-7.03
-8.94
-10.92
-12.97
-15.03
-17.03
-18.89
-20.57
-22.11
-23.67
-25.49
-27.81
-30.73
-34.06
-37.28
-39.59
-40.14
-38.36
-34.12
-27.79
-20.15
-12.09
-4.42
2.28
7.72
11.85
14.81
16.86
18.30
19.46
20.62
21.94
23.47
25.14
26.78
28.20
29.34
30.20
30.89
31.47
31.90
31.99
31.51
30.28
28.33
25.86
23.12
20.30
17.41
14.34
10.96
7.22
3.18
-1.05
-5.38
-9.75
-14.18
-18.66
-23.24
-27.99
-33.05
-38.55
-44.51
-50.76
-56.85
-62.22
-66.33
-68.85
-69.73
-69.13
-67.40
-64.83
-61.62
-57.81
-53.26
-47.71
-40.85
-32.41
-22.37
-10.97
1.19
13.33
24.59
34.28
41.97
47.49
50.93
52.55
52.71
51.80
50.24
48.37
46.47
44.71
43.13
41.72
40.46
39.39
38.58
38.13
38.06
38.30
38.60
38.64
38.10
36.75
34.61
31.86
28.81
25.67
22.52
19.22
15.55
11.36
6.72
1.97
-2.48
-6.24
-9.18
-11.48
-13.43
-15.37
-17.42
-19.54
-21.58
-23.45
-25.24
-27.17
-29.51
-32.39
-35.79
-39.47
-43.11
-46.29
-48.55
-49.32
-48.06
-44.42
-38.43
-30.57
-21.75
-13.00
-5.17
1.30
6.35
10.25
13.29
15.69
17.57
18.97
19.99
20.81
21.63
22.59
23.77
25.12
26.56
28.03
29.51
31.01
32.52
33.94
35.08
35.69
35.53
34.53
32.78
30.49
27.95
25.34
22.75
20.18
17.58
14.98
12.47
10.16
8.12
6.29
4.52
2.60
0.39
-2.11
-4.77
-7.42
-9.88
-12.05
-13.93
-15.61
-17.24
-19.02
-21.16
-23.84
-27.04
-30.45
-33.44
-35.13
-34.72
-31.80
-26.53
-19.75
-12.68
-6.58
-2.40
-0.52
-0.71
-2.28
-4.40
-6.39
-7.97
-9.29
-10.77
-12.81
-15.55
-18.76
-21.95
-24.64
-26.57
-27.77
-28.43
-28.68
-28.51
-27.70
-26.01
-23.38
-19.97
-16.11
-12.15
-8.28
-4.47
-0.54
3.67
8.16
12.74
17.04
20.76
23.72
26.00
27.91
29.83
32.08
34.79
37.79
40.73
43.18
44.84
45.57
45.46
44.68
43.38
41.58
39.16
35.96
31.83
26.81
21.03
14.86
8.74
3.23
-1.08
-3.71
-4.38
-3.23
-0.78
2.15
4.68
6.20
6.51
5.83
4.66
3.54
2.82
2.59
2.78
3.26
3.97
4.91
6.17
7.76
9.56
11.40
13.05
14.36
15.35
16.11
16.79
17.45
18.01
18.27
17.97
16.89
14.96
12.23
8.87
5.06
0.98
-3.19
-7.34
-11.38
-15.28
-19.07
-22.82
-26.55
-30.23
-33.79
-37.12
-40.12
-42.71
-44.85
-46.45
-47.52
-48.10
-48.38
-48.64
-49.11
-49.87
-50.67
-51.06
-50.42
-48.20
-44.09
-38.11
-30.62
-22.27
-13.87
-6.16
0.31
5.38
9.24
12.30
15.01
17.68
20.37
23.01
25.49
27.77
29.91
32.05
34.32
36.73
39.19
41.51
43.44
44.73
45.17
44.61
42.94
40.12
36.23
31.47
26.17
20.77
15.62
10.90
6.47
1.99
-2.97
-8.61
-14.82
-21.14
-26.86
-31.34
-34.15
-35.23
-34.94
-33.91
-32.87
-32.42
-32.83
-34.01
-35.64
-37.31
-38.71
-39.64
-39.94
-39.36
-37.52
-34.07
-28.79
-21.84
-13.68
-5.03
3.36
10.89
17.19
22.14
25.81
28.35
29.95
30.83
31.16
31.12
30.92
30.75
30.82
31.30
32.22
33.43
34.68
35.66
36.13
35.95
35.10
33.67
31.75
29.48
26.97
24.34
21.67
19.06
16.60
14.36
12.36
10.58
8.91
7.13
4.99
2.34
-0.80
-4.22
-7.59
-10.53
-12.83
-14.47
-15.62
-16.59
-17.74
-19.37
-21.62
-24.43
-27.45
-30.12
-31.74
-31.69
-29.61
-25.45
-19.55
-12.51
-5.09
1.90
7.70
11.82
14.02
14.46
13.56
11.89
10.00
8.27
6.78
5.44
4.04
2.43
0.60
-1.35
-3.22
-4.85
-6.17
-7.21
-8.06
-8.77
-9.35
-9.76
-10.01
-10.20
-10.50
-11.10
-12.07
-13.34
-14.68
-15.83
-16.61
-17.01
-17.13
-17.16
-17.25
-17.42
-17.64
-17.82
-17.93
-18.00
-18.14
-18.45
-18.98
-19.78
-20.82
-22.04
-23.32
-24.37
-24.77
-24.01
-21.68
-17.58
-11.86
-5.05
2.10
8.83
14.49
18.72
21.42
22.72
22.87
22.18
20.96
19.53
18.15
17.04
16.32
16.00
15.97
16.10
16.23
16.26
16.17
15.94
15.60
15.12
14.43
13.49
12.29
10.89
9.39
7.90
6.43
4.93
3.30
1.47
-0.62
-2.94
-5.41
-7.93
-10.40
-12.72
-14.75
-16.37
-17.48
-18.14
-18.58
-19.18
-20.40
-22.50
-25.41
-28.59
-31.19
-32.27
-31.15
-27.65
-22.07
-15.16
-7.78
-0.78
5.23
9.88
13.02
14.70
15.15
14.66
13.63
12.44
11.35
10.55
10.10
9.98
10.09
10.34
10.63
10.95
11.27
11.59
11.87
12.02
11.94
11.57
10.92
10.04
8.98
7.74
6.24
4.39
2.18
-0.31
-2.92
-5.46
-7.86
-10.12
-12.29
-14.38
-16.33
-18.03
-19.43
-20.66
-22.02
-23.90
-26.51
-29.69
-32.80
-34.87
-34.95
-32.41
-27.29
-20.27
-12.46
-5.02
1.21
5.87
9.03
10.93
11.76
11.60
10.49
8.56
6.13
3.60
1.29
-0.64
-2.39
-4.32
-6.77
-9.90
-13.56
-17.31
-20.48
-22.29
-22.00
-19.26
-14.32
-8.04
-1.68
3.54
6.84
8.15
8.05
7.35
6.66
6.04
5.08
3.25
0.23
-3.95
-8.99
-14.34
-19.44
-24.00
-28.13
-32.23
-36.63
-41.32
-45.94
-49.81
-51.80
-50.89
-46.50
-38.94
-29.39
-19.27
-9.85
-1.96
4.12
9.11
14.18
20.67
29.28
40.04
52.63
66.65
81.58
94.04
99.93
96.68
85.60
70.58
55.52
42.95
33.83
27.94
24.19
22.63
22.44
23.24
24.41
25.00
24.12
21.19
16.09
9.10
1.21
-7.27
-15.23
-21.98
-27.40
-31.71
-35.14
-37.95
-40.40
-42.54
-44.38
-45.65
-46.35
-46.67
-46.66
-45.85
-43.60
-39.53
-33.67
-26.59
-18.99
-11.80
-5.86
-1.61
1.54
4.34
7.13
9.70
11.63
12.80
13.32
13.40
13.31
14.22
17.07
21.97
28.11
34.44
40.26
45.23
49.34
52.71
56.84
63.09
71.90
82.56
94.07
105.73
117.30
128.85
132.65
123.93
103.61
77.66
51.60
27.83
6.66
-11.60
-26.14
-36.28
-40.90
-40.25
-36.25
-32.15
-30.64
-32.52
-36.67
-40.73
-42.57
-40.12
-32.82
-22.04
-11.17
-3.86
-2.21
-5.59
-11.79
-17.93
-20.81
-18.50
-10.79
-0.32
9.70
15.19
12.86
0.74
-20.99
-49.05
-77.66
-95.70
-93.53
-70.31
-35.60
-2.29
20.10
28.15
23.74
11.54
-3.50
-18.44
-32.10
-43.83
-52.31
-56.47
-56.12
-52.10
-45.92
-38.96
-33.00
-29.25
-28.87
-29.55
-28.79
-24.64
-16.38
-4.45
9.72
23.78
35.28
42.70
46.19
46.82
46.09
45.24
44.94
45.25
45.61
45.26
43.66
40.93
37.29
33.33
29.30
25.12
20.46
14.81
7.61
-1.36
-11.68
-22.54
-32.82
-41.40
-47.36
-50.13
-49.48
-45.81
-39.86
-32.26
-23.56
-14.18
-4.26
5.89
16.14
26.46
36.16
44.21
49.80
52.52
52.38
50.04
45.98
40.90
35.74
30.49
24.71
18.48
12.47
7.44
4.30
2.42
0.71
-1.87
-7.30
-17.44
-32.69
-52.01
-73.90
-96.38
-119.18
-142.32
-158.07
-160.61
-150.12
-132.35
-113.67
-102.85
-97.16
-93.44
-89.90
-86.29
-81.55
-77.05
-73.51
-70.16
-65.36
-56.90
-44.58
-29.14
-11.74
5.46
20.15
31.27
39.62
46.56
53.69
60.83
67.24
72.27
75.01
74.66
71.41
67.35
64.68
64.94
67.73
71.82
76.00
79.03
79.84
77.83
74.64
72.05
71.14
71.44
71.84
71.35
69.37
65.81
61.25
59.12
62.65
73.21
89.60
109.36
130.32
151.36
172.14
181.13
170.59
140.51
99.20
56.63
19.16
-10.80
-33.27
-48.35
-59.44
-66.70
-69.73
-69.22
-67.56
-67.85
-72.68
-83.10
-98.41
-117.00
-135.04
-149.14
-157.52
-160.10
-157.42
-149.89
-137.79
-121.97
-104.19
-85.44
-66.74
-49.11
-33.74
-21.63
-15.42
-18.08
-31.60
-55.54
-85.43
-114.18
-134.41
-141.41
-136.40
-123.58
-108.69
-96.95
-91.01
-89.44
-87.63
-79.52
-61.78
-32.78
6.09
50.24
93.37
129.60
155.55
171.25
179.47
184.07
188.40
193.77
199.00
201.47
198.53
188.78
172.52
151.45
128.04
104.81
83.61
65.34
50.19
38.23
29.86
25.70
26.20
30.93
38.32
45.89
51.14
52.73
50.98
47.59
44.56
43.03
42.75
42.36
40.13
34.95
26.86
17.10
7.48
-0.36
-5.71
-8.99
-11.56
-15.08
-20.71
-28.62
-37.78
-46.57
-53.52
-57.98
-60.30
-61.28
-61.45
-60.54
-57.52
-51.40
-41.86
-29.74
-16.79
-4.91
4.55
11.24
15.63
18.46
20.24
21.01
20.37
17.80
12.93
5.70
-3.57
-14.32
-25.67
-36.47
-45.49
-51.60
-54.08
-52.88
-48.57
-42.40
-35.66
-29.39
-24.03
-19.48
-15.33
-11.29
-7.35
-3.99
-1.70
-0.70
-0.76
-1.17
-1.20
-0.61
0.12
-0.26
-3.01
-8.57
-16.05
-23.26
-27.52
-26.86
-20.82
-10.78
0.75
11.22
19.08
24.21
27.75
31.36
36.47
43.60
52.19
60.88
67.89
71.65
71.51
68.17
63.63
60.44
60.67
64.72
70.93
75.81
75.14
65.37
45.10
15.78
-18.48
-51.95
-78.85
-94.75
-97.51
-87.64
-67.96
-42.99
-17.84
2.91
16.20
21.18
19.06
12.58
4.88
-1.48
-5.10
-5.68
-3.66
0.22
5.11
10.11
14.37
17.39
19.38
21.29
24.52
30.43
39.87
52.95
68.90
86.23
102.85
116.47
125.24
128.45
126.96
122.98
119.25
117.64
118.45
120.27
120.95
118.76
113.12
104.74
94.99
85.06
75.49
65.99
55.89
44.68
32.47
20.08
8.83
-0.07
-6.09
-9.85
-13.08
-18.32
-28.20
-44.52
-67.40
-94.78
-122.76
-146.51
-161.80
-166.31
-160.28
-146.24
-127.73
-107.93
-88.68
-70.44
-52.89
-35.98
-20.49
-7.97
-0.22
1.67
-1.84
-8.76
-16.29
-22.04
-25.29
-27.62
-32.20
-42.55
-61.32
-89.71
-127.45
-172.85
-222.30
-269.65
-306.43
-323.97
-317.00
-287.09
-243.59
-201.11
-174.24
-172.37
-196.86
-241.64
-296.28
-349.55
-391.67
-415.19
-415.38
-390.19
-340.77
-271.42
-188.92
-101.21
-16.28
58.84
118.53
159.11
179.71
182.81
173.80
159.60
146.43
138.06
135.24
136.58
140.11
144.52
149.54
155.39
161.89
168.10
172.56
174.14
172.59
168.82
164.48
161.18
159.95
160.91
163.41
166.60
169.84
172.99
176.28
179.93
183.79
186.98
188.00
185.06
176.73
162.52
143.19
120.52
96.75
73.90
53.21
35.09
19.43
5.91
-5.77
-16.10
-25.75
-35.57
-46.07
-56.99
-67.23
-75.35
-80.41
-82.48
-82.64
-82.25
-82.14
-82.18
-81.72
-80.38
-78.63
-77.72
-79.02
-83.08
-89.22
-95.70
-100.56
-102.31
-100.46
-95.28
-87.48
-77.67
-66.24
-53.49
-39.72
-25.39
-10.96
3.32
17.52
32.05
47.41
63.84
81.13
98.41
114.36
127.51
136.61
140.94
140.42
135.67
127.85
118.32
108.29
98.32
88.16
76.86
63.38
47.25
29.04
10.35
-6.79
-20.79
-31.15
-38.49
-44.13
-49.21
-54.15
-58.63
-61.94
-63.64
-63.94
-63.76
-64.34
-66.84
-71.98
-79.80
-89.80
-101.04
-112.38
-122.69
-131.10
-137.05
-140.46
-141.61
-141.01
-139.23
-136.65
-133.36
-129.20
-123.79
-116.91
-108.54
-98.90
-88.30
-76.93
-64.81
-51.96
-38.71
-25.96
-14.93
-6.70
-1.68
0.78
2.12
4.06
7.92
14.13
22.19
31.00
39.39
46.48
51.87
55.52
57.51
57.86
56.45
53.12
47.86
40.98
33.20
25.53
19.07
14.61
12.47
12.44
14.00
16.55
19.56
22.62
25.26
26.87
26.81
24.55
20.04
13.84
7.17
1.73
-0.54
2.15
11.02
26.37
47.26
71.58
96.29
117.93
133.24
139.61
135.43
120.24
94.76
60.92
21.76
-18.86
-56.81
-88.35
-111.08
-124.52
-130.13
-130.66
-129.07
-127.36
-126.10
-124.59
-121.83
-117.39
-111.82
-106.32
-101.91
-98.71
-95.81
-91.66
-84.96
-75.19
-62.68
-48.30
-32.86
-16.93
-0.65
16.02
33.08
50.27
66.97
82.37
95.78
106.93
116.10
123.96
131.05
137.29
141.76
143.07
140.04
132.48
121.38
108.67
96.31
85.52
76.42
68.25
60.04
51.19
41.81
32.50
23.84
16.02
8.67
1.16
-6.98
-15.78
-24.65
-32.69
-39.17
-43.84
-47.04
-49.55
-52.21
-55.59
-59.88
-64.90
-70.26
-75.52
-80.21
-83.80
-85.70
-85.36
-82.39
-76.75
-68.91
-59.76
-50.41
-41.98
-35.27
-30.64
-27.97
-26.74
-26.22
-25.65
-24.49
-22.42
-19.36
-15.55
-11.43
-7.83
-5.92
-7.10
-12.48
-22.31
-35.32
-48.79
-59.08
-63.02
-59.08
-48.13
-33.02
-17.33
-3.93
6.01
13.16
18.92
24.57
30.29
35.35
38.79
40.40
41.16
42.97
47.49
55.37
65.85
77.23
87.92
97.34
106.00
114.88
124.26
133.39
140.75
145.06
146.21
145.46
144.60
144.79
145.58
145.21
141.61
133.64
121.85
108.14
94.84
83.64
74.75
67.38
60.46
53.42
46.53
40.59
36.24
33.51
31.33
28.41
23.86
17.83
11.53
6.56
4.00
3.85
4.79
5.05
3.33
-0.47
-5.33
-9.72
-12.49
-13.40
-13.26
-13.25
-14.27
-16.45
-19.19
-21.60
-23.03
-23.35
-23.10
-23.01
-23.60
-24.94
-26.60
-27.93
-28.39
-27.78
-26.35
-24.65
-23.18
-22.17
-21.46
-20.58
-18.99
-16.38
-12.77
-8.58
-4.39
-0.72
2.15
4.23
5.74
6.91
7.84
8.38
8.26
7.17
5.01
1.97
-1.50
-4.83
-7.61
-9.73
-11.43
-13.17
-15.46
-18.57
-22.48
-26.90
-31.39
-35.50
-38.94
-41.50
-43.16
-43.90
-43.78
-42.82
-41.07
-38.59
-35.55
-32.21
-28.87
-25.82
-23.23
-21.11
-19.41
-18.07
-17.07
-16.43
-16.05
-15.72
-15.10
-13.81
-11.59
-8.51
-4.88
-1.21
1.98
4.33
5.72
6.27
6.18
5.64
4.72
3.36
1.42
-1.14
-4.24
-7.59
-10.78
-13.45
-15.50
-17.15
-18.88
-21.32
-24.94
-29.85
-35.72
-41.79
-47.02
-50.32
-50.77
-47.88
-41.68
-32.74
-22.09
-10.96
-0.57
8.20
14.90
19.61
22.67
24.63
25.99
27.10
28.10
29.03
29.80
30.40
30.87
31.37
32.10
33.17
34.55
36.01
37.22
37.88
37.89
37.33
36.44
35.42
34.33
33.00
31.18
28.69
25.53
22.00
18.52
15.46
13.00
10.98
9.05
6.81
4.06
0.88
-2.48
-5.71
-8.69
-11.50
-14.36
-17.45
-20.78
-24.19
-27.56
-30.97
-34.74
-39.26
-44.56
-50.02
-54.27
-55.60
-52.65
-45.09
-33.85
-20.85
-8.29
2.18
9.86
15.06
18.63
21.39
23.77
25.74
27.10
27.70
27.73
27.62
27.81
28.51
29.60
30.67
31.31
31.36
31.01
30.70
30.87
31.63
32.69
33.45
33.32
31.99
29.61
26.67
23.78
21.37
19.53
18.05
16.59
14.91
12.95
10.93
9.11
7.70
6.69
5.84
4.81
3.29
1.15
-1.48
-4.31
-7.04
-9.50
-11.75
-14.03
-16.64
-19.85
-23.82
-28.65
-34.28
-40.46
-46.61
-51.74
-54.57
-53.91
-49.01
-40.05
-28.19
-15.29
-3.36
6.07
12.38
15.89
17.53
18.40
19.22
20.14
20.88
21.10
20.67
19.91
19.35
19.48
20.44
22.03
23.83
25.54
27.12
28.69
30.35
31.93
33.01
33.10
31.89
29.46
26.27
22.96
20.08
17.91
16.40
15.29
14.22
12.90
11.15
9.01
6.61
4.18
1.92
-0.04
-1.72
-3.25
-4.84
-6.74
-9.12
-12.00
-15.21
-18.40
-21.21
-23.43
-25.16
-26.85
-29.15
-32.61
-37.29
-42.65
-47.53
-50.55
-50.51
-46.83
-39.73
-30.14
-19.37
-8.69
0.86
8.73
14.69
18.85
21.42
22.70
23.03
22.77
22.19
21.50
20.84
20.33
20.11
20.30
20.96
22.02
23.24
24.37
25.19
25.68
25.93
26.06
26.09
25.80
24.93
23.27
20.84
18.00
15.29
13.20
11.98
11.49
11.30
10.92
10.03
8.64
7.08
5.77
4.96
4.61
4.33
3.58
2.02
-0.37
-3.16
-5.73
-7.53
-8.36
-8.48
-8.47
-9.02
-10.64
-13.50
-17.47
-22.20
-27.35
-32.52
-37.27
-40.96
-42.73
-41.69
-37.25
-29.48
-19.26
-8.09
2.41
11.03
17.33
21.64
24.60
26.75
28.10
28.27
26.77
23.45
18.78
13.72
9.31
6.28
4.73
4.26
4.28
4.35
4.39
4.65
5.36
6.51
7.75
8.55
8.40
7.19
5.20
3.01
1.20
0.09
-0.40
-0.66
-1.14
-2.11
-3.51
-5.01
-6.18
-6.74
-6.66
-6.19
-5.66
-5.34
-5.34
-5.57
-5.98
-6.63
-7.68
-9.37
-11.74
-14.60
-17.48
-20.00
-22.00
-23.74
-25.75
-28.42
-31.68
-34.81
-36.66
-36.30
-33.27
-27.83
-20.74
-12.84
-4.71
3.32
10.92
17.48
22.14
24.23
23.60
20.94
17.55
14.74
13.39
13.49
14.45
15.50
16.13
16.28
16.25
16.39
16.90
17.48
17.72
17.20
15.78
13.72
11.59
9.99
9.26
9.02
8.57
7.19
4.62
1.41
-1.38
-2.73
-2.28
-0.79
0.38
0.02
-2.22
-5.57
-8.59
-10.09
-9.76
-8.59
-8.05
-9.30
-12.43
-16.38
-19.64
-21.19
-21.08
-20.62
-21.43
-24.42
-29.06
-33.54
-35.53
-33.44
-27.14
-18.19
-8.98
-1.60
3.01
5.23
6.26
7.24
8.77
10.50
11.72
11.83
10.76
9.05
7.52
6.88
7.51
9.26
11.62
14.00
15.89
17.02
17.41
17.30
17.03
16.81
16.68
16.45
15.80
14.50
12.49
9.95
7.26
4.79
2.77
1.19
-0.15
-1.54
-3.17
-5.12
-7.30
-9.57
-11.81
-14.00
-16.19
-18.46
-20.79
-23.07
-25.08
-26.68
-27.91
-29.01
-30.30
-31.93
-33.64
-34.69
-34.07
-30.98
-25.19
-17.33
-8.61
-0.47
5.99
10.35
12.83
14.04
14.55
14.68
14.46
13.80
12.70
11.37
10.23
9.65
9.83
10.68
11.82
12.81
13.30
13.21
12.74
12.19
11.79
11.56
11.28
10.62
9.33
7.38
5.00
2.56
0.39
-1.33
-2.64
-3.74
-4.90
-6.30
-8.01
-9.97
-12.06
-14.15
-16.15
-18.01
-19.68
-21.06
-21.98
-22.35
-22.25
-21.96
-22.00
-22.88
-24.87
-27.75
-30.75
-32.79
-32.84
-30.28
-25.20
-18.31
-10.65
-3.26
3.12
8.16
11.90
14.47
16.05
16.77
16.75
16.21
15.44
14.81
14.59
14.92
15.70
16.70
17.65
18.32
18.64
18.65
18.46
18.12
17.58
16.69
15.29
13.31
10.84
8.12
5.40
2.87
0.60
-1.48
-3.43
-5.26
-6.84
-7.98
-8.52
-8.49
-8.13
-7.78
-7.79
-8.31
-9.20
-10.13
-10.74
-10.87
-10.68
-10.66
-11.38
-13.25
-16.21
-19.73
-22.90
-24.74
-24.55
-22.07
-17.58
-11.68
-5.10
1.48
7.49
12.46
16.04
17.98
18.27
17.18
15.28
13.20
11.49
10.42
9.90
9.63
9.31
8.84
8.36
8.12
8.32
8.91
9.61
10.04
9.92
9.21
8.14
7.03
6.10
5.30
4.38
3.07
1.29
-0.74
-2.61
-3.87
-4.35
-4.28
-4.15
-4.53
-5.73
-7.70
-9.96
-11.97
-13.35
-14.15
-14.76
-15.71
-17.45
-20.08
-23.32
-26.65
-29.39
-30.87
-30.54
-28.11
-23.60
-17.39
-10.21
-2.95
3.57
8.75
12.30
14.26
14.87
14.52
13.60
12.44
11.29
10.19
9.16
8.16
7.25
6.61
6.42
6.79
7.62
8.64
9.47
9.88
9.81
9.43
8.94
8.45
7.93
7.22
6.21
4.94
3.61
2.48
1.72
1.28
0.92
0.30
-0.80
-2.39
-4.26
-6.10
-7.65
-8.82
-9.70
-10.50
-11.45
-12.78
-14.63
-17.06
-20.00
-23.15
-25.93
-27.55
-27.24
-24.54
-19.53
-12.90
-5.71
0.92
6.21
9.87
12.03
13.11
13.55
13.66
13.58
13.33
12.91
12.36
11.81
11.40
11.26
11.45
11.91
12.50
13.07
13.50
13.73
13.75
13.53
13.05
12.24
11.07
9.52
7.62
5.46
3.17
0.96
-1.00
-2.55
-3.69
-4.53
-5.29
-6.19
-7.35
-8.75
-10.24
-11.59
-12.67
-13.47
-14.20
-15.20
-16.82
-19.28
-22.45
-25.82
-28.59
-29.84
-28.91
-25.54
-20.05
-13.17
-5.82
1.18
7.25
12.07
15.55
17.67
18.48
18.18
17.07
15.63
14.35
13.59
13.39
13.56
13.73
13.62
13.16
12.56
12.13
12.09
12.33
12.48
12.03
10.62
8.25
5.37
2.62
0.52
-0.72
-1.32
-1.81
-2.77
-4.67
-7.73
-11.99
-17.28
-23.20
-29.13
-34.26
-37.72
-38.83
-37.33
-33.52
-28.26
-22.66
-17.85
-14.62
-13.26
-13.49
-14.59
-15.65
-15.79
-14.39
-11.24
-6.51
-0.64
5.77
12.17
18.05
23.01
26.75
29.01
29.71
28.97
27.16
24.75
22.23
19.90
17.81
15.86
13.96
12.24
11.01
10.64
11.28
12.67
14.18
15.03
14.64
12.89
10.21
7.25
4.67
2.72
1.19
-0.34
-2.18
-4.35
-6.57
-8.71
-10.87
-13.33
-16.33
-19.70
-22.75
-24.70
-25.20
-24.84
-24.87
-26.50
-30.08
-34.67
-38.33
-39.03
-35.66
-28.57
-19.31
-9.80
-1.55
4.87
9.72
13.58
16.86
19.24
20.06
18.82
15.63
11.46
7.84
6.06
6.68
8.95
11.43
12.71
12.25
10.69
9.40
9.62
11.69
14.60
16.64
16.37
13.44
8.80
4.20
1.17
0.33
0.89
1.41
0.57
-2.02
-5.72
-9.25
-11.50
-12.05
-11.45
-10.75
-10.84
-12.08
-14.22
-16.66
-18.95
-20.86
-22.48
-23.86
-24.75
-24.59
-22.73
-18.80
-13.03
-6.15
0.70
6.51
10.65
13.06
14.09
14.35
14.38
14.56
14.99
15.52
15.88
15.82
15.21
14.20
13.10
12.35
12.26
12.89
13.94
14.94
15.44
15.25
14.48
13.48
12.62
12.07
11.71
11.26
10.44
9.17
7.58
5.99
4.69
3.77
3.11
2.42
1.40
-0.06
-1.89
-3.80
-5.51
-6.84
-7.81
-8.64
-9.64
-11.03
-12.89
-15.07
-17.37
-19.57
-21.51
-22.98
-23.64
-23.06
-20.84
-16.82
-11.23
-4.74
1.74
7.31
11.42
13.93
15.05
15.25
14.95
14.47
13.95
13.44
12.94
12.49
12.20
12.21
12.62
13.36
14.25
14.97
15.26
15.03
14.41
13.69
13.11
12.74
12.45
11.95
10.98
9.46
7.51
5.46
3.67
2.42
1.79
1.63
1.66
1.52
0.95
-0.18
-1.82
-3.76
-5.75
-7.60
-9.22
-10.68
-12.07
-13.53
-15.14
-16.96
-19.03
-21.34
-23.73
-25.84
-27.12
-26.92
-24.76
-20.54
-14.65
-7.97
-1.50
3.87
7.68
10.00
11.21
11.78
12.05
12.06
11.68
10.81
9.53
8.16
7.15
6.83
7.26
8.22
9.30
10.10
10.45
10.41
10.20
10.02
9.95
9.89
9.60
8.87
7.59
5.88
4.03
2.34
1.06
0.22
-0.36
-0.97
-1.82
-2.94
-4.20
-5.36
-6.30
-7.04
-7.73
-8.52
-9.44
-10.38
-11.16
-11.71
-12.15
-12.76
-13.82
-15.38
-17.10
-18.32
-18.25
-16.37
-12.67
-7.67
-2.25
2.69
6.59
9.34
11.19
12.46
13.33
13.79
13.74
13.15
12.19
11.22
10.57
10.46
10.83
11.45
12.01
12.30
12.28
12.10
11.94
11.90
11.95
11.93
11.62
10.85
9.59
7.99
6.27
4.66
3.33
2.30
1.43
0.53
-0.63
-2.15
-4.02
-6.10
-8.20
-10.14
-11.83
-13.28
-14.56
-15.82
-17.21
-18.86
-20.85
-23.14
-25.48
-27.41
-28.29
-27.51
-24.75
-20.09
-14.06
-7.54
-1.46
3.45
6.86
8.83
9.68
9.84
9.66
9.31
8.79
8.09
7.29
6.55
6.14
6.25
6.88
7.83
8.75
9.37
9.58
9.41
9.04
8.59
8.10
7.51
6.78
5.89
4.89
3.86
2.79
1.68
0.56
-0.52
-1.49
-2.30
-3.02
-3.75
-4.61
-5.64
-6.76
-7.83
-8.77
-9.58
-10.35
-11.24
-12.32
-13.58
-14.98
-16.53
-18.27
-20.22
-22.18
-23.69
-24.04
-22.59
-19.02
-13.61
-7.16
-0.72
4.83
9.05
11.98
13.94
15.27
16.08
16.29
15.78
14.66
13.32
12.32
12.11
12.76
13.95
15.10
15.73
15.72
15.32
15.00
15.14
15.74
16.42
16.66
16.11
14.80
13.18
11.81
11.02
10.75
10.53
9.79
8.21
5.90
3.36
1.17
-0.29
-1.03
-1.46
-2.06
-3.25
-5.11
-7.45
-9.93
-12.24
-14.24
-15.98
-17.62
-19.32
-21.21
-23.28
-25.46
-27.58
-29.38
-30.44
-30.29
-28.48
-24.79
-19.37
-12.77
-5.87
0.42
5.39
8.67
10.33
10.73
10.42
9.88
9.47
9.32
9.35
9.42
9.38
9.28
9.29
9.62
10.35
11.35
12.28
12.76
12.57
11.79
10.72
9.76
9.12
8.77
8.45
7.81
6.68
5.15
3.54
2.19
1.28
0.75
0.35
-0.19
-1.02
-2.09
-3.22
-4.26
-5.20
-6.17
-7.33
-8.80
-10.50
-12.21
-13.70
-14.85
-15.75
-16.72
-18.08
-20.09
-22.68
-25.44
-27.69
-28.69
-27.92
-25.27
-21.06
-15.94
-10.63
-5.67
-1.30
2.42
5.53
7.94
9.45
9.89
9.32
8.17
7.02
6.47
6.76
7.71
8.91
10.03
10.96
11.84
12.65
13.22
13.17
12.24
10.55
8.77
7.69
7.81
8.80
9.70
9.45
7.53
4.39
1.23
-0.71
-0.82
0.32
1.46
1.36
-0.54
-3.69
-6.85
-8.78
-8.94
-7.97
-7.14
-7.66
-9.95
-13.42
-16.81
-19.01
-19.68
-19.56
-19.79
-21.06
-23.06
-24.39
-23.38
-19.05
-11.70
-3.10
4.48
9.30
10.94
10.32
9.05
8.47
9.13
10.47
11.52
11.51
10.41
8.84
7.71
7.67
8.79
10.49
11.99
12.70
12.51
11.78
11.05
10.69
10.75
10.89
10.61
9.61
7.87
5.73
3.65
2.02
0.99
0.40
-0.07
-0.74
-1.77
-3.15
-4.72
-6.28
-7.66
-8.78
-9.67
-10.46
-11.36
-12.68
-14.61
-17.21
-20.27
-23.29
-25.59
-26.47
-25.44
-22.43
-17.81
-12.23
-6.48
-1.20
3.24
6.71
9.27
10.97
11.83
11.87
11.19
10.05
8.82
7.86
7.34
7.30
7.61
8.18
8.99
10.07
11.40
12.85
14.18
15.12
15.51
15.35
14.79
14.01
13.10
12.07
10.87
9.48
7.95
6.44
5.05
3.82
2.68
1.49
0.10
-1.53
-3.37
-5.27
-7.06
-8.65
-10.05
-11.39
-12.90
-14.77
-17.10
-19.80
-22.54
-24.88
-26.28
-26.32
-24.77
-21.67
-17.29
-12.09
-6.57
-1.21
3.60
7.53
10.37
12.01
12.54
12.26
11.62
11.05
10.84
11.09
11.63
12.21
12.64
12.86
12.99
13.19
13.52
13.90
14.10
13.73
12.44
9.85
5.83
0.50
-5.59
-11.53
-16.26
-18.85
-18.91
-16.66
-12.90
-8.64
-4.80
-1.89
-0.05
0.82
0.86
0.13
-1.33
-3.52
-6.31
-9.55
-12.96
-16.22
-18.91
-20.49
-20.42
-18.37
-14.37
-8.91
-2.75
3.25
8.46
12.56
15.49
17.28
17.95
17.51
16.03
13.77
11.19
8.81
7.07
6.18
6.03
6.36
6.82
7.18
7.36
7.46
7.68
8.16
8.82
9.40
9.51
8.85
7.36
5.30
3.10
1.19
-0.24
-1.27
-2.17
-3.24
-4.64
-6.35
-8.17
-9.88
-11.32
-12.53
-13.71
-15.15
-17.08
-19.51
-22.19
-24.66
-26.40
-26.98
-26.21
-24.12
-20.85
-16.60
-11.60
-6.13
-0.67
4.20
7.89
10.04
10.63
10.00
8.75
7.46
6.58
6.30
6.59
7.37
8.54
10.01
11.66
13.33
14.78
15.76
16.12
15.79
14.83
13.41
11.65
9.68
7.60
5.47
3.43
1.71
0.51
0.02
0.19
0.82
1.51
1.88
1.71
0.99
-0.10
-1.38
-2.75
-4.27
-6.11
-8.36
-10.99
-13.77
-16.30
-18.16
-18.96
-18.38
-16.34
-12.99
-8.76
-4.24
-0.01
3.53
6.22
8.14
9.47
10.35
10.79
10.80
10.44
9.90
9.45
9.34
9.69
10.43
11.35
12.19
12.79
13.14
13.32
13.43
13.54
13.62
13.58
13.34
12.81
12.05
11.17
10.32
9.64
9.14
8.75
8.33
7.72
6.89
5.84
4.63
3.31
1.85
0.19
-1.74
-3.90
-6.17
-8.44
-10.62
-12.77
-15.03
-17.52
-20.22
-22.85
-24.95
-25.98
-25.48
-23.34
-19.78
-15.38
-10.86
-6.79
-3.44
-0.73
1.59
3.73
5.63
7.03
7.63
7.32
6.33
5.18
4.42
4.41
5.15
6.32
7.53
8.44
8.92
9.04
8.95
8.74
8.44
7.94
7.15
6.01
4.58
3.04
1.63
0.54
-0.14
-0.50
-0.77
-1.22
-2.10
-3.37
-4.83
-6.11
-6.90
-7.13
-7.02
-7.00
-7.47
-8.64
-10.47
-12.76
-15.24
-17.70
-19.86
-21.29
-21.42
-19.67
-15.78
-10.04
-3.32
3.16
8.34
11.64
13.14
13.43
13.18
12.88
12.60
12.18
11.42
10.33
9.18
8.39
8.34
9.08
10.35
11.64
12.48
12.61
12.16
11.51
11.08
11.04
11.24
11.24
10.58
9.02
6.78
4.37
2.37
1.13
0.54
0.18
-0.52
-1.93
-3.97
-6.26
-8.26
-9.65
-10.45
-10.98
-11.64
-12.71
-14.31
-16.46
-19.18
-22.42
-25.92
-29.05
-30.86
-30.40
-27.18
-21.50
-14.43
-7.35
-1.44
2.78
5.54
7.43
9.08
10.72
12.16
13.02
13.02
12.19
10.92
9.82
9.50
10.17
11.65
13.39
14.77
15.40
15.31
14.86
14.52
14.33
14.03
13.15
11.40
8.97
6.57
5.00
4.71
5.33
5.96
5.62
3.86
1.09
-1.68
-3.48
-3.94
-3.67
-3.77
-5.18
-8.01
-11.45
-14.17
-15.20
-14.49
-13.22
-13.04
-15.11
-19.43
-24.64
-28.64
-29.64
-26.91
-21.21
-14.15
-7.39
-1.88
2.33
5.77
8.94
12.02
14.60
16.15
16.35
15.32
13.56
11.70
10.23
9.42
9.21
9.39
9.79
10.22
10.66
11.08
11.51
12.00
12.53
12.97
13.11
12.66
11.42
9.36
6.73
4.01
1.73
0.24
-0.41
-0.51
-0.51
-0.84
-1.71
-3.03
-4.52
-5.89
-6.95
-7.70
-8.28
-8.85
-9.54
-10.37
-11.29
-12.31
-13.52
-15.14
-17.41
-20.32
-23.39
-25.77
-26.42
-24.58
-20.19
-13.91
-6.92
-0.40
4.82
8.48
10.73
11.93
12.34
12.12
11.43
10.42
9.38
8.60
8.29
8.45
8.90
9.36
9.58
9.47
9.16
8.93
9.08
9.72
10.70
11.63
12.08
11.74
10.61
8.89
6.88
4.85
2.90
1.02
-0.83
-2.61
-4.18
-5.39
-6.17
-6.60
-6.91
-7.37
-8.25
-9.69
-11.72
-14.28
-17.14
-19.96
-22.18
-23.23
-22.54
-19.87
-15.37
-9.61
-3.43
2.34
7.06
10.42
12.42
13.23
13.14
12.44
11.33
10.03
8.67
7.38
6.25
5.39
4.94
4.99
5.60
6.70
8.10
9.55
10.71
11.32
11.20
10.36
8.91
7.08
5.14
3.27
1.56
0.02
-1.41
-2.74
-3.97
-5.05
-5.98
-6.84
-7.75
-8.79
-9.95
-11.09
-12.09
-12.96
-13.96
-15.49
-17.87
-21.03
-24.38
-26.95
-27.70
-25.93
-21.62
-15.41
-8.35
-1.54
4.22
8.61
11.68
13.66
14.73
14.93
14.21
12.62
10.44
8.23
6.67
6.22
6.90
8.31
9.75
10.64
10.80
10.47
10.14
10.14
10.49
10.83
10.66
9.61
7.67
5.22
2.79
0.83
-0.50
-1.39
-2.16
-3.08
-4.24
-5.51
-6.66
-7.56
-8.25
-8.89
-9.66
-10.67
-11.89
-13.32
-15.03
-17.19
-19.95
-23.22
-26.52
-29.03
-29.84
-28.22
-23.99
-17.57
-9.90
-2.15
4.62
9.73
12.98
14.61
15.07
14.80
14.10
13.12
11.97
10.74
9.62
8.80
8.40
8.43
8.77
9.26
9.76
10.24
10.74
11.40
12.25
13.25
14.13
14.50
13.97
12.35
9.82
6.87
4.18
2.24
1.20
0.82
0.60
0.09
-0.88
-2.26
-3.83
-5.35
-6.69
-7.81
-8.70
-9.40
-10.05
-10.86
-12.11
-14.01
-16.52
-19.26
-21.57
-22.70
-22.00
-19.23
-14.56
-8.61
-2.20
3.81
8.81
12.45
14.66
15.54
15.25
14.00
12.05
9.76
7.62
6.07
5.44
5.70
6.60
7.70
8.67
9.34
9.77
10.11
10.45
10.73
10.81
10.53
9.85
8.86
7.71
6.53
5.41
4.37
3.41
2.49
1.56
0.53
-0.68
-2.08
-3.53
-4.79
-5.66
-6.06
-6.18
-6.44
-7.33
-9.22
-12.16
-15.79
-19.39
-22.05
-22.93
-21.54
-17.93
-12.65
-6.60
-0.69
4.38
8.27
11.00
12.70
13.53
13.58
12.96
11.86
10.64
9.67
9.24
9.44
10.07
10.81
11.38
11.74
12.04
12.52
13.31
14.25
14.99
15.12
14.42
12.95
11.00
8.92
6.90
4.97
2.99
0.88
-1.31
-3.36
-5.07
-6.38
-7.41
-8.40
-9.58
-10.98
-12.43
-13.71
-14.73
-15.66
-16.87
-18.77
-21.44
-24.48
-27.04
-28.08
-26.79
-22.93
-16.95
-9.85
-2.78
3.33
8.02
11.28
13.39
14.63
15.18
15.04
14.20
12.77
11.08
9.58
8.72
8.69
9.37
10.37
11.21
11.61
11.56
11.31
11.14
11.20
11.36
11.34
10.80
9.59
7.79
5.71
3.67
1.90
0.42
-0.91
-2.25
-3.68
-5.09
-6.28
-7.10
-7.61
-8.07
-8.84
-10.17
-12.04
-14.12
-16.06
-17.62
-18.94
-20.43
-22.47
-25.06
-27.67
-29.32
-29.13
-26.60
-21.96
-16.00
-9.63
-3.57
1.84
6.59
10.57
13.53
15.06
14.93
13.30
10.84
8.47
7.05
6.84
7.63
8.85
9.95
10.76
11.46
12.45
13.99
15.74
17.02
17.08
15.59
12.94
10.10
8.12
7.55
7.93
8.23
7.41
5.14
2.06
-0.60
-1.80
-1.34
-0.17
0.28
-1.04
-4.14
-7.90
-10.73
-11.53
-10.25
-8.14
-6.90
-7.77
-10.92
-15.36
-19.48
-21.92
-21.98
-19.92
-16.48
-12.34
-7.81
-2.84
2.69
8.59
14.39
19.27
22.53
23.81
23.29
21.47
19.00
16.46
14.25
12.51
11.26
10.46
10.03
9.95
10.19
10.71
11.48
12.40
13.31
13.98
14.16
13.61
12.26
10.16
7.63
5.07
2.87
1.25
0.17
-0.63
-1.54
-2.85
-4.61
-6.63
-8.55
-10.10
-11.22
-12.09
-13.05
-14.42
-16.26
-18.44
-20.67
-22.68
-24.32
-25.48
-25.99
-25.55
-23.75
-20.27
-15.14
-8.83
-2.20
3.77
8.33
11.13
12.28
12.15
11.16
9.62
7.72
5.64
3.60
1.92
0.98
0.97
1.86
3.32
4.88
6.15
6.96
7.39
7.66
7.92
8.08
7.92
7.12
5.55
3.37
0.96
-1.23
-2.89
-3.98
-4.70
-5.34
-6.11
-7.06
-8.06
-8.92
-9.53
-9.97
-10.47
-11.40
-13.06
-15.50
-18.40
-21.06
-22.58
-22.18
-19.48
-14.70
-8.51
-1.85
4.42
9.72
13.78
16.52
17.96
18.15
17.20
15.38
13.06
10.74
8.84
7.62
7.13
7.23
7.68
8.22
8.69
9.02
9.21
9.29
9.22
8.87
8.07
6.64
4.58
2.04
-0.61
-3.00
-4.86
-6.14
-7.02
-7.79
-8.75
-9.99
-11.48
-13.03
-14.49
-15.80
-17.03
-18.36
-19.97
-22.00
-24.50
-27.41
-30.47
-33.24
-35.04
-35.16
-33.03
-28.48
-21.90
-14.13
-6.31
0.49
5.55
8.63
9.94
10.00
9.36
8.46
7.56
6.69
5.80
4.86
3.96
3.28
3.03
3.32
4.02
4.85
5.48
5.68
5.43
4.90
4.33
3.80
3.23
2.38
1.06
-0.70
-2.59
-4.08
-4.69
-4.15
-2.60
-0.48
1.60
3.12
3.82
3.79
3.32
2.76
2.34
2.04
1.67
0.96
-0.24
-1.92
-3.83
-5.55
-6.61
-6.60
-5.28
-2.62
1.16
5.63
10.20
14.26
17.29
19.01
19.39
18.66
17.23
15.58
14.08
12.99
12.30
11.94
11.72
11.53
11.38
11.26
11.23
11.28
11.37
11.43
11.46
11.47
11.44
11.30
10.89
10.05
8.73
6.99
5.08
3.29
1.85
0.85
0.24
-0.20
-0.71
-1.51
-2.74
-4.41
-6.40
-8.47
-10.35
-11.81
-12.76
-13.30
-13.71
-14.33
-15.38
-16.95
-18.88
-20.81
-22.27
-22.77
-21.93
-19.57
-15.84
-11.15
-6.13
-1.46
2.40
5.27
7.24
8.55
9.36
9.73
9.63
9.09
8.32
7.65
7.45
7.87
8.85
10.09
11.29
12.23
12.89
13.31
13.59
13.68
13.50
12.93
11.93
10.57
8.94
7.17
5.37
3.66
2.17
1.05
0.38
0.14
0.15
0.10
-0.34
-1.41
-3.07
-5.09
-7.10
-8.75
-9.92
-10.74
-11.52
-12.61
-14.19
-16.20
-18.38
-20.38
-21.90
-22.71
-22.66
-21.65
-19.53
-16.21
-11.82
-6.70
-1.51
3.01
6.26
7.98
8.34
7.85
7.09
6.53
6.36
6.53
6.88
7.28
7.71
8.25
9.00
9.93
10.86
11.55
11.75
11.41
10.67
9.85
9.20
8.86
8.69
8.42
7.81
6.76
5.44
4.16
3.18
2.57
2.17
1.67
0.81
-0.46
-2.00
-3.48
-4.57
-5.12
-5.25
-5.29
-5.71
-6.83
-8.78
-11.33
-14.09
-16.58
-18.47
-19.54
-19.71
-18.93
-17.07
-14.05
-9.94
-5.02
0.17
4.96
8.76
11.23
12.37
12.45
11.87
10.94
9.85
8.67
7.44
6.34
5.63
5.57
6.28
7.63
9.18
10.47
11.12
11.03
10.41
9.59
8.88
8.38
7.99
7.50
6.77
5.79
4.68
3.59
2.57
1.54
0.32
-1.21
-3.04
-4.93
-6.51
-7.49
-7.81
-7.73
-7.74
-8.40
-10.01
-12.48
-15.21
-17.43
-18.43
-17.87
-15.92
-13.08
-9.88
-6.63
-3.35
-0.15
2.80
5.11
6.41
6.67
6.29
5.93
6.16
6.94
7.76
7.93
7.13
5.69
4.50
4.42
5.83
8.23
10.59
11.90
11.72
10.40
8.82
7.82
7.75
8.09
7.92
6.55
3.89
0.69
-1.89
-2.97
-2.38
-1.10
-0.47
-1.57
-4.55
-8.49
-11.88
-13.53
-13.16
-11.73
-10.84
-11.84
-15.19
-20.12
-25.10
-28.56
-29.51
-28.00
-24.73
-20.60
-16.18
-11.58
-6.60
-1.17
4.49
9.73
13.80
16.23
17.02
16.61
15.67
14.78
14.23
13.97
13.76
13.41
12.93
12.50
12.40
12.78
13.64
14.70
15.57
15.88
15.44
14.26
12.59
10.74
9.00
7.55
6.40
5.43
4.47
3.39
2.15
0.79
-0.53
-1.65
-2.49
-3.13
-3.75
-4.59
-5.80
-7.36
-9.05
-10.58
-11.77
-12.63
-13.45
-14.61
-16.41
-18.90
-21.76
-24.52
-26.55
-27.38
-26.67
-24.31
-20.40
-15.23
-9.31
-3.28
2.21
6.62
9.68
11.42
12.13
12.16
11.88
11.51
11.18
10.93
10.77
10.70
10.70
10.77
10.95
11.28
11.81
12.56
13.44
14.29
14.87
14.98
14.57
13.71
12.57
11.37
10.25
9.26
8.33
7.39
6.41
5.42
4.44
3.52
2.58
1.55
0.31
-1.17
-2.83
-4.55
-6.24
-7.88
-9.52
-11.28
-13.22
-15.30
-17.38
-19.31
-21.01
-22.52
-23.99
-25.43
-26.67
-27.26
-26.60
-24.18
-19.90
-14.16
-7.81
-1.86
2.94
6.26
8.29
9.49
10.29
10.86
11.10
10.83
9.95
8.63
7.33
6.54
6.59
7.47
8.85
10.22
11.16
11.52
11.45
11.22
11.04
10.90
10.63
9.96
8.82
7.34
5.83
4.57
3.60
2.76
1.75
0.42
-1.13
-2.58
-3.53
-3.78
-3.47
-3.05
-3.04
-3.79
-5.33
-7.32
-9.28
-10.79
-11.72
-12.24
-12.74
-13.55
-14.89
-16.67
-18.61
-20.32
-21.40
-21.53
-20.47
-18.14
-14.57
-10.00
-4.79
0.53
5.45
9.49
12.34
13.91
14.33
13.93
13.17
12.49
12.22
12.46
13.09
13.81
14.33
14.49
14.36
14.13
14.03
14.19
14.54
14.86
14.90
14.46
13.52
12.18
10.62
9.01
7.44
5.90
4.39
2.95
1.71
0.81
0.32
0.16
0.08
-0.27
-1.16
-2.63
-4.42
-6.12
-7.34
-7.95
-8.14
-8.37
-9.07
-10.44
-12.36
-14.43
-16.21
-17.40
-17.89
-17.71
-16.83
-15.12
-12.46
-8.86
-4.59
-0.16
3.83
6.95
9.00
10.05
10.30
9.94
9.12
7.98
6.69
5.46
4.50
4.00
4.04
4.59
5.55
6.69
7.75
8.52
8.81
8.62
7.96
6.92
5.55
3.89
2.01
0.09
-1.64
-2.95
-3.79
-4.28
-4.67
-5.20
-5.98
-6.86
-7.66
-8.23
-8.62
-9.02
-9.72
-10.92
-12.69
-14.91
-17.30
-19.53
-21.25
-22.12
-21.86
-20.28
-17.32
-13.12
-8.03
-2.52
2.81
7.42
10.87
12.99
13.79
13.49
12.43
11.00
9.55
8.33
7.46
6.96
6.72
6.63
6.56
6.47
6.36
6.27
6.25
6.33
6.47
6.57
6.45
5.94
4.92
3.43
1.65
-0.14
-1.69
-2.85
-3.66
-4.27
-4.85
-5.50
-6.26
-7.14
-8.13
-9.29
-10.62
-12.05
-13.48
-14.84
-16.19
-17.72
-19.71
-22.20
-24.93
-27.22
-28.21
-27.14
-23.71
-18.23
-11.54
-4.72
1.30
5.96
9.16
11.10
12.09
12.36
12.05
11.23
10.01
8.62
7.39
6.62
6.47
6.91
7.76
8.75
9.64
10.35
10.90
11.39
11.88
12.31
12.47
12.13
11.11
9.47
7.50
5.60
4.10
3.13
2.53
2.02
1.29
0.22
-1.11
-2.48
-3.69
-4.66
-5.47
-6.23
-7.05
-7.93
-8.79
-9.62
-10.52
-11.71
-13.40
-15.67
-18.24
-20.52
-21.68
-21.00
-18.15
-13.39
-7.51
-1.53
3.64
7.58
10.32
12.23
13.69
14.83
15.53
15.61
15.06
14.16
13.33
12.96
13.14
13.69
14.32
14.83
15.24
15.68
16.27
16.90
17.28
17.11
16.22
14.74
12.96
11.28
9.89
8.77
7.72
6.48
4.91
3.02
1.06
-0.59
-1.70
-2.21
-2.36
-2.61
-3.34
-4.66
-6.30
-7.77
-8.88
-9.73
-10.86
-12.84
-15.84
-19.49
-22.95
-25.36
-26.36
-26.10
-24.99
-23.26
-20.73
-16.91
-11.54
-4.95
1.66
6.83
9.52
9.66
8.24
6.76
6.39
7.38
8.83
9.47
8.39
5.80
2.85
1.14
1.64
4.35
8.04
11.19
12.68
12.33
10.91
9.46
8.73
8.79
9.03
8.65
7.17
4.74
1.98
-0.34
-1.74
-2.12
-1.91
-1.65
-1.83
-2.66
-4.06
-5.78
-7.48
-8.81
-9.58
-9.83
-9.80
-9.93
-10.68
-12.29
-14.65
-17.24
-19.36
-20.34
-19.81
-17.76
-14.41
-10.15
-5.31
-0.21
4.80
9.22
12.50
14.21
14.19
12.66
10.22
7.62
5.53
4.34
4.13
4.67
5.62
6.63
7.48
8.12
8.65
9.22
9.92
10.73
11.43
11.78
11.60
10.90
9.83
8.63
7.42
6.18
4.82
3.26
1.57
-0.01
-1.27
-2.10
-2.57
-2.93
-3.45
-4.32
-5.58
-7.15
-8.91
-10.86
-13.03
-15.46
-17.96
-20.10
-21.19
-20.55
-17.82
-13.12
-7.15
-0.92
4.57
8.65
11.12
12.23
12.42
12.10
11.52
10.77
9.87
8.87
7.94
7.32
7.20
7.65
8.53
9.60
10.60
11.38
11.91
12.26
12.46
12.42
11.95
10.89
9.15
6.90
4.46
2.24
0.56
-0.51
-1.14
-1.70
-2.55
-3.88
-5.66
-7.63
-9.47
-10.95
-12.03
-12.89
-13.86
-15.27
-17.36
-20.08
-23.09
-25.80
-27.50
-27.56
-25.63
-21.73
-16.28
-9.98
-3.65
1.98
6.37
9.30
10.83
11.28
11.05
10.56
10.08
9.75
9.57
9.47
9.38
9.28
9.18
9.14
9.20
9.38
9.67
10.04
10.40
10.68
10.77
10.58
10.06
9.18
7.97
6.48
4.78
2.95
1.09
-0.64
-2.14
-3.33
-4.24
-5.00
-5.79
-6.74
-7.83
-8.89
-9.71
-10.23
-10.60
-11.20
-12.48
-14.70
-17.78
-21.20
-24.22
-26.00
-25.96
-23.87
-19.91
-14.56
-8.45
-2.25
3.46
8.22
11.73
13.86
14.66
14.37
13.38
12.14
11.08
10.47
10.39
10.75
11.34
12.00
12.64
13.30
14.08
14.97
15.86
16.55
16.80
16.49
15.65
14.44
13.01
11.45
9.75
7.85
5.75
3.59
1.61
0.13
-0.72
-1.02
-1.03
-1.17
-1.77
-2.94
-4.54
-6.21
-7.64
-8.67
-9.40
-10.13
-11.23
-12.91
-15.17
-17.84
-20.57
-22.97
-24.58
-24.96
-23.67
-20.49
-15.53
-9.33
-2.76
3.17
7.66
10.34
11.35
11.19
10.47
9.67
9.05
8.65
8.41
8.29
8.30
8.52
9.01
9.73
10.54
11.26
11.75
12.00
12.13
12.23
12.35
12.32
11.85
10.73
8.92
6.68
4.46
2.71
1.63
1.08
0.68
0.03
-1.02
-2.42
-3.90
-5.23
-6.31
-7.20
-8.04
-8.93
-9.90
-10.96
-12.15
-13.56
-15.28
-17.30
-19.41
-21.20
-22.14
-21.82
-19.96
-16.60
-12.02
-6.68
-1.15
4.00
8.21
11.12
12.54
12.54
11.49
9.87
8.17
6.73
5.65
4.82
4.16
3.66
3.49
3.87
4.94
6.56
8.43
10.12
11.29
11.78
11.65
11.07
10.21
9.17
7.95
6.54
4.92
3.20
1.55
0.18
-0.81
-1.40
-1.77
-2.16
-2.80
-3.79
-5.11
-6.67
-8.40
-10.31
-12.46
-14.83
-17.25
-19.30
-20.39
-19.95
-17.66
-13.59
-8.25
-2.45
2.96
7.35
10.44
12.33
13.29
13.56
13.28
12.47
11.18
9.54
7.84
6.46
5.70
5.72
6.45
7.64
8.98
10.18
11.08
11.59
11.74
11.55
11.02
10.11
8.80
7.12
5.21
3.32
1.62
0.26
-0.85
-1.85
-2.96
-4.26
-5.70
-7.13
-8.42
-9.60
-10.88
-12.55
-14.84
-17.74
-20.91
-23.75
-25.54
-25.69
-23.89
-20.22
-15.15
-9.40
-3.68
1.41
5.54
8.65
10.79
12.07
12.54
12.25
11.39
10.24
9.15
8.43
8.16
8.23
8.46
8.71
8.95
9.16
9.27
9.16
8.71
7.98
7.15
6.48
6.13
5.97
5.66
4.83
3.33
1.31
-0.80
-2.60
-3.90
-4.79
-5.54
-6.43
-7.56
-8.87
-10.18
-11.33
-12.23
-13.12
-14.37
-16.36
-19.21
-22.51
-25.38
-26.70
-25.53
-21.76
-16.07
-9.66
-3.77
0.94
4.54
7.48
10.22
12.58
14.00
13.92
12.28
9.81
7.74
7.14
8.36
10.69
12.87
13.77
13.06
11.37
9.86
9.54
10.69
12.60
14.15
14.34
12.88
10.26
7.39
5.11
3.83
3.30
2.98
2.34
1.15
-0.46
-2.19
-3.79
-5.14
-6.36
-7.60
-8.89
-10.19
-11.35
-12.36
-13.33
-14.49
-16.06
-18.11
-20.42
-22.51
-23.74
-23.46
-21.24
-17.04
-11.29
-4.80
1.42
6.52
10.03
11.94
12.61
12.53
12.05
11.33
10.38
9.22
8.04
7.13
6.78
7.14
8.12
9.42
10.69
11.66
12.21
12.33
12.10
11.58
10.83
9.85
8.68
7.35
5.90
4.41
2.94
1.60
0.45
-0.48
-1.30
-2.15
-3.17
-4.44
-5.85
-7.20
-8.27
-8.94
-9.28
-9.58
-10.26
-11.67
-13.95
-16.88
-19.89
-22.22
-23.19
-22.35
-19.65
-15.40
-10.10
-4.31
1.42
6.61
10.83
13.74
15.09
14.87
13.34
11.03
8.56
6.52
5.27
4.85
5.08
5.68
6.45
7.32
8.34
9.54
10.77
11.72
12.01
11.40
9.94
7.96
5.93
4.20
2.89
1.82
0.68
-0.74
-2.44
-4.20
-5.73
-6.85
-7.60
-8.17
-8.82
-9.74
-10.98
-12.51
-14.25
-16.16
-18.17
-20.12
-21.65
-22.27
-21.44
-18.78
-14.33
-8.51
-2.15
3.82
8.61
11.80
13.37
13.62
13.01
11.92
10.61
9.19
7.69
6.20
4.91
4.06
3.90
4.54
5.84
7.48
8.98
9.96
10.22
9.84
9.06
8.14
7.20
6.19
4.97
3.41
1.54
-0.50
-2.49
-4.24
-5.67
-6.81
-7.72
-8.54
-9.41
-10.46
-11.85
-13.64
-15.81
-18.18
-20.39
-21.95
-22.35
-21.13
-18.07
-13.32
-7.34
-0.92
5.08
9.88
13.04
14.55
14.74
14.09
13.02
11.75
10.33
8.75
7.13
5.75
4.97
5.04
5.95
7.40
8.93
10.11
10.71
10.75
10.41
9.86
9.21
8.45
7.45
6.16
4.57
2.81
1.03
-0.65
-2.19
-3.63
-5.05
-6.52
-8.03
-9.57
-11.13
-12.78
-14.61
-16.75
-19.23
-21.92
-24.48
-26.42
-27.18
-26.35
-23.74
-19.51
-14.14
-8.31
-2.64
2.40
6.57
9.85
12.30
13.94
14.74
14.68
13.84
12.46
10.88
9.45
8.44
7.90
7.78
7.93
8.23
8.64
9.14
9.68
10.11
10.26
9.93
9.02
7.61
5.86
4.01
2.17
0.37
-1.45
-3.31
-5.15
-6.87
-8.31
-9.40
-10.19
-10.78
-11.30
-11.88
-12.63
-13.67
-15.14
-17.10
-19.48
-21.93
-23.94
-24.84
-24.07
-21.35
-16.79
-10.90
-4.45
1.76
7.09
11.23
14.09
15.82
16.54
16.42
15.58
14.22
12.64
11.17
10.09
9.53
9.45
9.68
10.04
10.47
10.96
11.50
12.05
12.52
12.77
12.75
12.36
11.58
10.35
8.67
6.60
4.39
2.36
0.82
-0.14
-0.65
-1.09
-1.80
-2.93
-4.38
-5.82
-6.96
-7.68
-8.17
-8.85
-10.17
-12.42
-15.51
-18.98
-22.04
-23.89
-23.86
-21.74
-17.75
-12.49
-6.68
-0.93
4.33
8.87
12.53
15.15
16.55
16.63
15.57
13.78
11.85
10.33
9.55
9.49
9.94
10.60
11.28
11.96
12.70
13.56
14.41
15.06
15.24
14.80
13.75
12.29
10.66
9.06
7.58
6.24
4.98
3.76
2.55
1.32
0.04
-1.32
-2.76
-4.24
-5.67
-6.99
-8.18
-9.30
-10.45
-11.72
-13.18
-14.93
-17.01
-19.36
-21.74
-23.68
-24.50
-23.57
-20.58
-15.70
-9.59
-3.14
2.83
7.78
11.53
14.08
15.46
15.71
14.91
13.25
11.15
9.10
7.55
6.74
6.63
7.01
7.62
8.25
8.81
9.29
9.69
10.01
10.18
10.10
9.68
8.86
7.68
6.21
4.56
2.80
0.99
-0.86
-2.76
-4.66
-6.41
-7.88
-8.98
-9.72
-10.26
-10.76
-11.30
-11.90
-12.55
-13.39
-14.66
-16.65
-19.44
-22.69
-25.65
-27.38
-27.08
-24.57
-20.25
-14.90
-9.31
-3.96
1.08
5.88
10.40
14.22
16.72
17.37
16.13
13.56
10.68
8.49
7.57
7.69
8.20
8.38
8.02
7.48
7.53
8.71
11.02
13.55
15.16
14.97
12.93
9.89
7.12
5.61
5.59
6.25
6.39
5.04
2.04
-1.81
-5.25
-7.24
-7.46
-6.54
-5.61
-5.67
-7.09
-9.54
-12.31
-14.79
-16.72
-18.24
-19.47
-20.28
-20.14
-18.43
-14.81
-9.46
-3.07
3.34
8.87
12.91
15.27
16.08
15.67
14.42
12.77
11.06
9.55
8.37
7.60
7.23
7.27
7.71
8.51
9.57
10.67
11.61
12.16
12.18
11.58
10.35
8.58
6.50
4.40
2.55
1.06
-0.16
-1.37
-2.86
-4.72
-6.79
-8.75
-10.28
-11.25
-11.81
-12.31
-13.10
-14.36
-16.10
-18.21
-20.52
-22.84
-24.91
-26.37
-26.68
-25.27
-21.81
-16.37
-9.58
-2.47
3.82
8.43
11.04
11.90
11.62
10.84
10.00
9.23
8.45
7.54
6.51
5.54
4.90
4.80
5.26
6.09
7.00
7.73
8.20
8.47
8.62
8.64
8.39
7.71
6.50
4.89
3.15
1.61
0.48
-0.28
-0.92
-1.73
-2.93
-4.51
-6.28
-7.91
-9.14
-9.87
-10.24
-10.56
-11.23
-12.55
-14.57
-17.07
-19.56
-21.46
-22.20
-21.32
-18.65
-14.28
-8.66
-2.44
3.59
8.78
12.72
15.33
16.78
17.34
17.23
16.58
15.46
14.00
12.37
10.79
9.45
8.44
7.79
7.50
7.59
8.07
8.86
9.76
10.47
10.70
10.26
9.22
7.81
6.33
5.00
3.89
2.95
2.05
1.14
0.21
-0.70
-1.58
-2.52
-3.60
-4.88
-6.30
-7.71
-8.89
-9.71
-10.25
-10.81
-11.77
-13.41
-15.70
-18.22
-20.22
-20.88
-19.59
-16.24
-11.23
-5.37
0.43
5.48
9.44
12.33
14.32
15.57
16.11
15.89
14.90
13.31
11.52
9.96
8.97
8.63
8.80
9.19
9.58
9.86
10.08
10.33
10.59
10.74
10.53
9.76
8.36
6.48
4.44
2.61
1.23
0.34
-0.29
-0.98
-2.02
-3.51
-5.30
-7.06
-8.47
-9.35
-9.82
-10.19
-10.86
-12.12
-14.05
-16.45
-18.93
-21.01
-22.23
-22.22
-20.75
-17.78
-13.47
-8.19
-2.50
3.01
7.76
11.38
13.69
14.76
14.80
14.16
13.15
12.05
11.04
10.23
9.64
9.30
9.15
9.14
9.20
9.24
9.24
9.26
9.40
9.70
10.08
10.31
10.10
9.27
7.80
5.88
3.83
1.92
0.35
-0.89
-1.91
-2.88
-4.00
-5.36
-7.01
-8.80
-10.53
-11.98
-13.05
-13.86
-14.70
-15.91
-17.71
-20.08
-22.70
-25.03
-26.44
-26.34
-24.37
-20.44
-14.87
-8.29
-1.55
4.52
9.32
12.60
14.50
15.40
15.72
15.77
15.69
15.43
14.91
14.13
13.17
12.27
11.62
11.37
11.50
11.85
12.20
12.38
12.29
11.94
11.36
10.57
9.53
8.22
6.63
4.86
3.09
1.47
0.12
-0.93
-1.68
-2.23
-2.68
-3.18
-3.96
-5.17
-6.87
-8.93
-11.02
-12.80
-14.04
-14.80
-15.40
-16.30
-17.83
-20.10
-22.95
-25.92
-28.44
-29.92
-29.80
-27.72
-23.62
-17.79
-10.90
-3.82
2.60
7.72
11.30
13.37
14.25
14.33
13.99
13.57
13.26
13.17
13.22
13.28
13.17
12.86
12.42
12.06
11.93
12.12
12.52
12.92
13.13
13.02
12.60
11.91
10.98
9.77
8.22
6.36
4.31
2.34
0.70
-0.46
-1.17
-1.58
-1.91
-2.34
-3.01
-3.95
-5.13
-6.45
-7.76
-8.96
-9.99
-10.89
-11.80
-12.85
-14.11
-15.55
-17.10
-18.66
-20.11
-21.27
-21.86
-21.48
-19.77
-16.56
-12.06
-6.83
-1.57
3.07
6.76
9.48
11.43
12.82
13.77
14.20
14.08
13.44
12.50
11.60
11.07
11.07
11.51
12.13
12.59
12.68
12.37
11.81
11.19
10.67
10.27
9.85
9.26
8.43
7.46
6.58
6.02
5.89
6.12
6.44
6.51
6.10
5.19
3.95
2.70
1.64
0.78
-0.11
-1.32
-3.04
-5.18
-7.30
-8.92
-9.72
-9.79
-9.63
-9.90
-11.02
-12.85
-14.77
-16.00
-15.94
-14.40
-11.58
-7.82
-3.40
1.46
6.47
10.98
14.15
15.24
14.01
10.98
7.30
4.18
2.39
1.86
1.91
1.80
1.25
0.68
0.89
2.49
5.40
8.61
10.78
10.92
9.00
6.01
3.44
2.44
3.21
4.83
5.92
5.42
3.22
0.21
-2.28
-3.29
-2.67
-1.28
-0.32
-0.69
-2.46
-4.96
-7.23
-8.54
-8.75
-8.34
-8.02
-8.33
-9.45
-11.20
-13.32
-15.54
-17.65
-19.51
-20.90
-21.49
-20.98
-19.18
-16.11
-12.01
-7.26
-2.35
2.22
6.03
8.76
10.29
10.69
10.22
9.29
8.27
7.47
6.99
6.81
6.85
7.05
7.44
8.07
8.94
9.95
10.89
11.48
11.53
11.00
10.02
8.87
7.81
6.97
6.30
5.66
4.88
3.93
2.85
1.82
0.97
0.31
-0.27
-0.94
-1.88
-3.15
-4.66
-6.22
-7.62
-8.71
-9.45
-9.97
-10.53
-11.39
-12.74
-14.57
-16.68
-18.72
-20.32
-21.15
-21.01
-19.79
-17.50
-14.20
-10.09
-5.51
-0.93
3.13
6.24
8.19
9.06
9.12
8.77
8.29
7.89
7.61
7.44
7.38
7.46
7.73
8.20
8.82
9.47
10.00
10.30
10.32
10.09
9.71
9.30
8.92
8.56
8.10
7.41
6.42
5.20
3.92
2.82
2.06
1.57
1.14
0.48
-0.57
-2.01
-3.61
-5.02
-6.02
-6.55
-6.81
-7.11
-7.75
-8.90
-10.56
-12.59
-14.76
-16.78
-18.32
-19.04
-18.63
-16.90
-13.86
-9.76
-5.08
-0.41
3.64
6.64
8.37
8.89
8.46
7.53
6.52
5.73
5.25
4.99
4.79
4.53
4.24
4.03
4.03
4.27
4.66
5.02
5.22
5.21
5.08
4.94
4.82
4.63
4.21
3.38
2.12
0.61
-0.87
-2.03
-2.76
-3.17
-3.55
-4.19
-5.19
-6.42
-7.60
-8.50
-9.12
-9.77
-10.83
-12.60
-14.99
-17.52
-19.44
-20.03
-18.88
-16.01
-11.84
-7.01
-2.17
2.20
5.84
8.66
10.68
11.91
12.32
11.94
10.84
9.26
7.56
6.11
5.22
4.98
5.31
6.01
6.87
7.70
8.40
8.86
9.00
8.75
8.05
6.91
5.45
3.84
2.28
0.90
-0.30
-1.39
-2.51
-3.73
-5.05
-6.36
-7.56
-8.61
-9.57
-10.60
-11.93
-13.73
-16.01
-18.54
-20.87
-22.42
-22.64
-21.20
-18.11
-13.77
-8.78
-3.79
0.68
4.37
7.23
9.33
10.74
11.49
11.58
11.04
9.97
8.57
7.10
5.85
5.06
4.90
5.38
6.35
7.57
8.72
9.56
9.97
9.91
9.41
8.51
7.23
5.62
3.76
1.83
-0.02
-1.65
-3.08
-4.43
-5.83
-7.33
-8.88
-10.31
-11.50
-12.46
-13.36
-14.46
-15.96
-17.93
-20.12
-22.09
-23.21
-22.94
-20.92
-17.16
-12.04
-6.29
-0.71
4.00
7.51
9.83
11.23
12.07
12.57
12.79
12.67
12.23
11.58
10.93
10.45
10.20
10.12
10.11
10.12
10.15
10.23
10.31
10.22
9.81
8.99
7.87
6.63
5.44
4.33
3.24
2.11
0.95
-0.10
-0.94
-1.57
-2.17
-2.96
-4.10
-5.56
-7.14
-8.64
-9.94
-11.15
-12.51
-14.25
-16.39
-18.68
-20.62
-21.57
-20.95
-18.43
-14.11
-8.50
-2.39
3.33
7.97
11.22
13.20
14.25
14.76
14.96
14.90
14.55
13.88
13.01
12.21
11.73
11.71
12.12
12.72
13.19
13.29
12.96
12.39
11.85
11.64
11.80
12.10
12.09
11.33
9.70
7.48
5.29
3.77
3.19
3.34
3.60
3.35
2.24
0.43
-1.64
-3.48
-4.91
-6.03
-7.17
-8.57
-10.31
-12.28
-14.31
-16.34
-18.34
-20.28
-21.95
-22.93
-22.70
-20.84
-17.26
-12.32
-6.76
-1.46
2.88
5.92
7.78
8.85
9.54
10.09
10.51
10.66
10.43
9.89
9.29
8.93
9.03
9.56
10.35
11.14
11.74
12.11
12.32
12.46
12.55
12.54
12.33
11.85
11.13
10.28
9.49
8.82
8.21
7.46
6.38
4.90
3.20
1.62
0.48
-0.12
-0.44
-0.88
-1.86
-3.50
-5.57
-7.63
-9.25
-10.24
-10.72
-11.07
-11.72
-13.01
-14.98
-17.45
-19.94
-21.93
-22.90
-22.47
-20.50
-17.15
-12.77
-7.86
-2.96
1.33
4.57
6.52
7.28
7.25
7.04
7.16
7.78
8.60
9.09
8.82
7.83
6.69
6.24
7.08
9.21
11.85
13.91
14.53
13.53
11.56
9.67
8.71
8.94
9.75
10.21
9.61
7.90
5.72
3.98
3.30
3.74
4.61
5.02
4.31
2.39
-0.22
-2.75
-4.60
-5.52
-5.79
-5.90
-6.32
-7.21
-8.48
-9.86
-11.15
-12.26
-13.39
-14.78
-16.54
-18.54
-20.31
-21.20
-20.58
-18.10
-13.90
-8.56
-2.95
2.05
5.87
8.36
9.72
10.32
10.52
10.45
10.16
9.63
8.99
8.43
8.21
8.46
9.15
10.10
11.07
11.88
12.43
12.73
12.82
12.70
12.33
11.66
10.65
9.37
7.92
6.47
5.19
4.20
3.52
3.09
2.74
2.28
1.55
0.51
-0.76
-2.07
-3.23
-4.18
-5.00
-5.87
-6.93
-8.20
-9.56
-10.78
-11.71
-12.36
-12.90
-13.59
-14.65
-16.18
-18.07
-20.02
-21.58
-22.32
-21.87
-20.06
-16.98
-12.96
-8.45
-3.93
0.24
3.83
6.76
8.95
10.38
10.99
10.80
10.01
8.93
7.96
7.44
7.52
8.12
8.99
9.86
10.59
11.18
11.69
12.18
12.61
12.83
12.67
12.09
11.20
10.21
9.32
8.58
7.90
7.10
6.04
4.72
3.29
2.01
1.08
0.59
0.45
0.50
0.52
0.35
-0.08
-0.81
-1.84
-3.14
-4.65
-6.26
-7.84
-9.26
-10.45
-11.43
-12.36
-13.52
-15.15
-17.35
-19.92
-22.34
-23.86
-23.75
-21.64
-17.65
-12.46
-7.00
-2.15
1.56
4.09
5.75
6.95
7.94
8.73
9.17
9.11
8.54
7.66
6.77
6.13
5.82
5.81
6.01
6.33
6.79
7.42
8.21
9.01
9.63
9.86
9.59
8.89
7.92
6.92
6.04
5.37
4.87
4.46
4.04
3.55
2.92
2.17
1.29
0.31
-0.74
-1.83
-2.95
-4.08
-5.21
-6.28
-7.18
-7.87
-8.38
-8.87
-9.60
-10.85
-12.75
-15.11
-17.49
-19.25
-19.81
-18.86
-16.48
-13.05
-9.08
-5.00
-1.11
2.45
5.54
7.99
9.56
10.07
9.54
8.20
6.52
4.96
3.88
3.41
3.43
3.72
4.09
4.46
4.85
5.33
5.89
6.46
6.91
7.14
7.08
6.79
6.30
5.62
4.69
3.44
1.90
0.25
-1.23
-2.24
-2.64
-2.56
-2.33
-2.40
-3.05
-4.35
-6.08
-7.89
-9.42
-10.50
-11.14
-11.52
-11.92
-12.62
-13.83
-15.63
-17.87
-20.18
-21.97
-22.63
-21.65
-18.84
-14.41
-8.96
-3.32
1.69
5.46
7.78
8.78
8.86
8.40
7.68
6.76
5.68
4.51
3.49
2.96
3.16
4.11
5.51
6.92
7.93
8.39
8.44
8.39
8.49
8.84
9.23
9.35
8.91
7.81
6.24
4.53
3.01
1.87
1.08
0.44
-0.26
-1.12
-2.16
-3.33
-4.58
-5.89
-7.20
-8.43
-9.43
-10.10
-10.48
-10.77
-11.29
-12.31
-13.92
-15.97
-18.10
-19.87
-20.84
-20.67
-19.22
-16.46
-12.63
-8.09
-3.39
0.95
4.46
6.86
8.10
8.34
7.97
7.37
6.87
6.58
6.48
6.40
6.26
6.06
5.96
6.11
6.57
7.27
7.99
8.54
8.82
8.88
8.87
8.91
8.97
8.88
8.46
7.60
6.38
5.05
3.90
3.11
2.66
2.34
1.85
1.00
-0.22
-1.65
-2.99
-4.03
-4.73
-5.24
-5.84
-6.83
-8.37
-10.48
-12.94
-15.41
-17.44
-18.58
-18.53
-17.10
-14.38
-10.61
-6.22
-1.68
2.51
6.00
8.57
10.21
11.02
11.18
10.90
10.34
9.64
8.89
8.23
7.78
7.61
7.74
8.06
8.43
8.75
8.99
9.19
9.39
9.59
9.67
9.49
8.95
7.97
6.57
4.84
2.93
0.99
-0.77
-2.26
-3.43
-4.36
-5.21
-6.13
-7.22
-8.50
-9.90
-11.34
-12.82
-14.42
-16.30
-18.60
-21.29
-24.09
-26.43
-27.67
-27.20
-24.75
-20.48
-14.93
-8.79
-2.73
2.80
7.45
10.99
13.25
14.13
13.74
12.47
10.89
9.59
8.88
8.73
8.83
8.85
8.68
8.49
8.61
9.33
10.59
12.07
13.24
13.68
13.28
12.24
10.96
9.84
8.84
7.72
6.15
3.99
1.51
-0.69
-2.09
-2.48
-2.37
-2.56
-3.80
-6.27
-9.36
-12.03
-13.39
-13.23
-12.35
-12.04
-13.40
-16.71
-21.17
-25.23
-27.39
-26.76
-23.64
-19.05
-14.20
-9.86
-6.04
-2.27
1.87
6.36
10.52
13.45
14.51
13.75
11.87
9.86
8.56
8.35
8.98
9.95
10.77
11.24
11.45
11.63
11.97
12.55
13.20
13.65
13.71
13.29
12.42
11.22
9.78
8.20
6.50
4.72
2.96
1.33
-0.12
-1.38
-2.53
-3.65
-4.80
-5.99
-7.19
-8.36
-9.48
-10.62
-11.83
-13.19
-14.75
-16.46
-18.23
-19.89
-21.16
-21.71
-21.22
-19.42
-16.19
-11.64
-6.13
-0.24
5.37
10.08
13.48
15.49
16.28
16.19
15.52
14.46
13.10
11.51
9.90
8.59
7.90
7.99
8.75
9.84
10.84
11.48
11.71
11.68
11.53
11.32
10.91
10.16
8.95
7.35
5.54
3.75
2.13
0.71
-0.59
-1.87
-3.23
-4.69
-6.18
-7.52
-8.54
-9.17
-9.51
-9.85
-10.57
-11.97
-14.13
-16.84
-19.61
-21.89
-23.13
-22.98
-21.28
-18.13
-13.79
-8.69
-3.36
1.69
6.01
9.34
11.57
12.79
13.20
13.08
12.75
12.46
12.36
12.47
12.70
12.94
13.10
13.21
13.36
13.66
14.11
14.58
14.78
14.50
13.62
12.29
10.78
9.41
8.33
7.44
6.51
5.34
3.91
2.45
1.32
0.76
0.75
0.95
0.87
0.10
-1.49
-3.67
-6.01
-8.04
-9.52
-10.49
-11.22
-12.12
-13.49
-15.41
-17.73
-19.97
-21.58
-22.01
-20.91
-18.15
-13.96
-8.78
-3.24
2.02
6.43
9.63
11.49
12.17
11.98
11.28
10.41
9.54
8.78
8.16
7.78
7.69
7.95
8.55
9.33
10.11
10.73
11.08
11.18
11.08
10.80
10.40
9.83
9.09
8.17
7.08
5.83
4.47
3.11
1.86
0.89
0.32
0.12
0.13
0.09
-0.30
-1.18
-2.53
-4.11
-5.63
-6.85
-7.75
-8.52
-9.48
-10.94
-13.08
-15.87
-19.01
-22.07
-24.53
-25.91
-25.86
-24.23
-21.07
-16.63
-11.37
-5.84
-0.63
3.78
7.07
9.24
10.48
11.13
11.47
11.62
11.52
11.09
10.32
9.37
8.57
8.18
8.35
9.02
9.97
10.96
11.80
12.40
12.70
12.66
12.24
11.43
10.27
8.87
7.39
5.98
4.78
3.87
3.21
2.68
2.08
1.23
0.05
-1.39
-2.90
-4.26
-5.35
-6.16
-6.83
-7.51
-8.34
-9.37
-10.64
-12.21
-14.16
-16.50
-19.09
-21.54
-23.28
-23.75
-22.58
-19.76
-15.62
-10.74
-5.74
-1.09
2.89
6.06
8.38
9.85
10.55
10.63
10.33
9.87
9.41
9.05
8.75
8.49
8.29
8.24
8.39
8.78
9.31
9.82
10.22
10.46
10.58
10.61
10.52
10.16
9.40
8.17
6.57
4.85
3.31
2.19
1.53
1.23
1.02
0.69
0.09
-0.77
-1.78
-2.81
-3.78
-4.69
-5.65
-6.79
-8.20
-9.90
-11.86
-14.08
-16.53
-19.13
-21.63
-23.56
-24.32
-23.37
-20.48
-15.92
-10.36
-4.72
0.19
3.87
6.32
7.79
8.65
9.14
9.33
9.20
8.81
8.36
8.19
8.53
9.43
10.61
11.61
12.03
11.71
10.83
9.80
9.04
8.75
8.84
9.02
8.96
8.46
7.50
6.27
5.01
3.92
3.08
2.44
1.85
1.18
0.33
-0.66
-1.69
-2.62
-3.39
-4.07
-4.77
-5.62
-6.63
-7.74
-8.86
-10.00
-11.36
-13.16
-15.52
-18.21
-20.63
-22.01
-21.66
-19.36
-15.35
-10.30
-5.00
-0.06
4.18
7.65
10.35
12.31
13.45
13.73
13.18
11.98
10.41
8.84
7.60
6.88
6.74
7.07
7.67
8.36
9.00
9.55
10.04
10.50
10.88
11.09
10.97
10.42
9.51
8.40
7.35
6.52
5.87
5.25
4.42
3.24
1.78
0.27
-1.03
-2.02
-2.82
-3.76
-5.12
-6.95
-8.96
-10.69
-11.76
-12.12
-12.16
-12.51
-13.68
-15.77
-18.41
-20.98
-22.84
-23.50
-22.73
-20.45
-16.67
-11.56
-5.61
0.33
5.24
8.34
9.44
9.01
7.95
7.15
7.05
7.43
7.73
7.51
6.71
5.80
5.45
6.09
7.73
9.67
11.02
11.16
10.06
8.37
7.07
6.85
7.75
8.96
9.34
8.08
5.23
1.71
-1.14
-2.36
-1.81
-0.39
0.56
0.03
-2.12
-5.12
-7.82
-9.29
-9.34
-8.63
-8.20
-8.90
-10.98
-14.04
-17.22
-19.68
-20.76
-20.28
-18.30
-15.13
-11.13
-6.73
-2.37
1.61
4.99
7.62
9.48
10.55
10.87
10.51
9.62
8.46
7.40
6.74
6.67
7.14
7.93
8.76
9.36
9.66
9.76
9.89
10.22
10.75
11.27
11.41
10.86
9.53
7.63
5.55
3.72
2.36
1.48
0.92
0.42
-0.20
-1.00
-1.94
-2.94
-3.97
-5.04
-6.23
-7.64
-9.28
-11.05
-12.83
-14.52
-16.18
-17.97
-20.01
-22.21
-24.15
-25.17
-24.60
-22.11
-17.86
-12.45
-6.70
-1.31
3.31
7.05
9.93
11.97
13.08
13.20
12.39
10.95
9.32
7.97
7.23
7.14
7.54
8.15
8.76
9.24
9.61
9.92
10.18
10.34
10.32
10.05
9.51
8.70
7.65
6.39
4.97
3.46
2.02
0.76
-0.26
-1.08
-1.88
-2.80
-3.90
-5.10
-6.26
-7.28
-8.19
-9.11
-10.16
-11.33
-12.50
-13.52
-14.41
-15.34
-16.59
-18.30
-20.32
-22.14
-23.04
-22.40
-19.93
-15.82
-10.65
-5.18
-0.07
4.27
7.76
10.53
12.68
14.20
14.94
14.71
13.50
11.61
9.60
8.07
7.42
7.64
8.41
9.29
9.97
10.41
10.78
11.22
11.67
11.90
11.60
10.66
9.25
7.75
6.56
5.87
5.61
5.50
5.21
4.52
3.40
1.95
0.33
-1.34
-2.98
-4.59
-6.16
-7.68
-9.09
-10.35
-11.43
-12.41
-13.46
-14.83
-16.71
-19.06
-21.53
-23.49
-24.27
-23.34
-20.56
-16.26
-11.10
-5.81
-0.99
3.02
6.16
8.53
10.25
11.37
11.94
11.99
11.63
11.06
10.50
10.09
9.87
9.82
9.89
10.05
10.28
10.55
10.79
10.90
10.82
10.51
10.02
9.41
8.67
7.80
6.75
5.49
4.10
2.67
1.31
0.07
-1.06
-2.14
-3.21
-4.28
-5.36
-6.46
-7.60
-8.80
-9.97
-10.96
-11.63
-11.99
-12.24
-12.78
-13.99
-16.06
-18.77
-21.49
-23.39
-23.75
-22.21
-18.90
-14.30
-9.09
-3.85
1.00
5.18
8.57
11.04
12.52
13.03
12.72
11.84
10.72
9.65
8.80
8.23
7.96
7.98
8.33
9.04
10.04
11.12
11.97
12.28
11.92
10.99
9.79
8.68
7.84
7.25
6.69
5.93
4.85
3.58
2.37
1.48
0.95
0.61
0.15
-0.65
-1.85
-3.27
-4.60
-5.66
-6.44
-7.16
-8.08
-9.40
-11.14
-13.17
-15.30
-17.38
-19.31
-20.95
-22.08
-22.33
-21.35
-18.90
-15.08
-10.31
-5.22
-0.42
3.68
6.91
9.33
11.04
12.09
12.50
12.26
11.52
10.52
9.59
9.01
8.84
9.04
9.44
9.89
10.28
10.61
10.87
11.06
11.18
11.18
11.06
10.84
10.52
10.10
9.55
8.81
7.87
6.77
5.61
4.51
3.53
2.67
1.84
0.88
-0.35
-1.88
-3.65
-5.47
-7.15
-8.56
-9.71
-10.76
-11.98
-13.61
-15.69
-18.01
-20.12
-21.41
-21.37
-19.69
-16.42
-11.92
-6.75
-1.46
3.44
7.60
10.79
12.87
13.79
13.66
12.72
11.37
10.04
9.04
8.47
8.24
8.15
8.06
7.98
8.07
8.49
9.26
10.19
10.90
11.04
10.41
9.10
7.42
5.74
4.34
3.27
2.39
1.53
0.57
-0.53
-1.70
-2.91
-4.16
-5.51
-7.00
-8.55
-10.05
-11.33
-12.33
-13.16
-14.08
-15.36
-17.16
-19.42
-21.76
-23.62
-24.41
-23.69
-21.32
-17.48
-12.63
-7.33
-2.16
2.49
6.30
9.15
11.02
11.95
12.13
11.80
11.25
10.67
10.19
9.80
9.47
9.18
8.99
9.01
9.32
9.94
10.74
11.53
12.06
12.10
11.55
10.40
8.80
7.00
5.29
3.88
2.87
2.14
1.51
0.76
-0.23
-1.38
-2.57
-3.65
-4.55
-5.34
-6.14
-7.03
-8.04
-9.16
-10.56
-12.48
-15.17
-18.66
-22.55
-25.98
-27.91
-27.49
-24.60
-19.78
-14.04
-8.40
-3.43
0.84
4.63
8.08
10.85
12.37
12.20
10.41
7.79
5.46
4.39
4.90
6.36
7.78
8.27
7.68
6.64
6.16
6.98
9.14
11.78
13.67
13.90
12.30
9.53
6.67
4.64
3.81
3.80
3.89
3.45
2.30
0.71
-0.83
-1.92
-2.46
-2.73
-3.11
-3.91
-5.18
-6.72
-8.26
-9.62
-10.83
-12.11
-13.73
-15.76
-17.93
-19.60
-20.01
-18.58
-15.13
-10.06
-4.23
1.43
6.12
9.44
11.40
12.21
12.23
11.72
10.88
9.88
8.85
7.93
7.25
6.88
6.86
7.17
7.74
8.46
9.24
9.92
10.39
10.52
10.31
9.76
8.97
8.03
7.01
5.91
4.74
3.47
2.14
0.81
-0.47
-1.67
-2.84
-4.00
-5.19
-6.37
-7.48
-8.47
-9.37
-10.35
-11.69
-13.61
-16.13
-18.91
-21.24
-22.29
-21.40
-18.38
-13.64
-8.05
-2.61
1.90
5.16
7.26
8.55
9.41
10.04
10.49
10.68
10.58
10.27
9.94
9.80
9.93
10.22
10.43
10.33
9.86
9.18
8.61
8.42
8.65
9.03
9.16
8.70
7.56
6.01
4.46
3.23
2.43
1.91
1.36
0.57
-0.57
-1.95
-3.41
-4.80
-6.10
-7.34
-8.61
-9.95
-11.38
-12.89
-14.51
-16.32
-18.39
-20.72
-23.08
-25.01
-25.89
-25.14
-22.49
-18.11
-12.58
-6.78
-1.50
2.72
5.75
7.81
9.24
10.25
10.89
11.05
10.64
9.74
8.66
7.81
7.47
7.75
8.46
9.28
9.93
10.28
10.37
10.36
10.36
10.33
10.17
9.71
8.83
7.59
6.12
4.65
3.40
2.46
1.77
1.11
0.23
-1.04
-2.71
-4.60
-6.40
-7.81
-8.71
-9.18
-9.52
-10.14
-11.36
-13.25
-15.61
-18.00
-19.84
-20.65
-20.08
-18.03
-14.63
-10.19
-5.16
-0.09
4.46
8.02
10.34
11.46
11.70
11.51
11.28
11.24
11.38
11.51
11.50
11.30
11.01
10.82
10.85
11.13
11.54
11.91
12.07
11.94
11.54
10.94
10.20
9.32
8.30
7.10
5.77
4.37
3.02
1.85
0.93
0.23
-0.35
-1.00
-1.85
-2.98
-4.38
-5.97
-7.70
-9.60
-11.73
-14.12
-16.59
-18.77
-20.05
-19.86
-17.83
-14.02
-8.92
-3.34
1.85
5.98
8.76
10.29
10.92
11.08
11.00
10.74
10.16
9.15
7.76
6.23
4.91
4.12
4.01
4.46
5.27
6.14
6.88
7.36
7.52
7.31
6.72
5.74
4.43
2.90
1.25
-0.43
-2.07
-3.65
-5.10
-6.40
-7.50
-8.43
-9.26
-10.14
-11.22
-12.62
-14.39
-16.49
-18.76
-21.00
-22.86
-24.00
-24.04
-22.70
-19.88
-15.70
-10.53
-4.96
0.43
5.13
8.86
11.49
13.07
13.65
13.36
12.36
10.90
9.33
8.01
7.18
6.95
7.22
7.81
8.53
9.27
9.99
10.60
11.03
11.10
10.67
9.68
8.22
6.50
4.81
3.36
2.19
1.23
0.26
-0.90
-2.34
-3.98
-5.60
-6.94
-7.86
-8.38
-8.71
-9.23
-10.26
-11.98
-14.27
-16.76
-18.91
-20.19
-20.23
-18.85
-16.09
-12.17
-7.41
-2.25
2.80
7.22
10.61
12.76
13.71
13.74
13.25
12.64
12.14
11.82
11.61
11.32
10.88
10.29
9.74
9.45
9.56
10.05
10.68
11.17
11.24
10.77
9.82
8.50
6.96
5.34
3.73
2.20
0.82
-0.39
-1.47
-2.46
-3.47
-4.52
-5.64
-6.82
-8.08
-9.42
-10.88
-12.45
-14.14
-15.99
-17.97
-20.00
-21.78
-22.83
-22.53
-20.41
-16.37
-10.85
-4.74
0.95
5.43
8.43
10.21
11.28
12.09
12.74
13.00
12.53
11.20
9.20
7.10
5.51
4.83
5.11
6.01
7.07
7.89
8.37
8.63
8.84
9.09
9.23
8.99
8.15
6.68
4.86
3.07
1.68
0.76
0.14
-0.50
-1.40
-2.57
-3.77
-4.76
-5.47
-6.11
-7.09
-8.76
-11.22
-14.14
-16.95
-18.98
-19.77
-19.15
-17.20
-14.13
-10.23
-5.72
-0.85
4.06
8.59
12.33
14.89
16.06
15.89
14.65
12.82
10.80
8.89
7.28
6.01
5.18
4.93
5.40
6.61
8.14
9.36
9.63
8.65
6.71
4.62
3.18
2.82
3.12
3.20
2.19
-0.17
-3.35
-6.30
-8.15
-8.63
-8.44
-8.64
-10.06
-12.81
-16.17
-19.08
-20.74
-20.98
-20.34
-19.53
-18.93
-18.25
-16.72
-13.61
-8.70
-2.53
3.69
8.70
11.73
12.78
12.50
11.76
11.17
10.94
10.84
10.53
9.84
8.89
8.02
7.56
7.67
8.32
9.23
10.07
10.54
10.44
9.72
8.51
7.01
5.48
4.10
2.88
1.69
0.35
-1.27
-3.11
-4.93
-6.38
-7.25
-7.53
-7.55
-7.80
-8.79
-10.81
-13.87
-17.56
-21.25
-24.22
-25.83
-25.70
-23.75
-20.18
-15.41
-9.98
-4.46
0.66
4.96
8.21
10.34
11.49
11.94
12.03
12.07
12.27
12.71
13.33
13.97
14.48
14.73
14.73
14.56
14.33
14.09
13.78
13.27
12.42
11.18
9.64
7.98
6.37
4.88
3.48
2.06
0.53
-1.12
-2.82
-4.47
-5.96
-7.27
-8.40
-9.45
-10.53
-11.77
-13.25
-15.02
-17.10
-19.34
-21.53
-23.26
-24.08
-23.57
-21.49
-17.83
-12.91
-7.27
-1.57
3.59
7.72
10.55
12.10
12.55
12.23
11.49
10.57
9.62
8.72
7.94
7.47
7.49
8.05
9.04
10.14
10.99
11.37
11.32
11.04
10.74
10.47
10.05
9.25
7.92
6.13
4.16
2.36
0.94
-0.09
-0.93
-1.86
-3.10
-4.68
-6.44
-8.11
-9.39
-10.19
-10.65
-11.11
-11.96
-13.47
-15.60
-18.06
-20.32
-21.81
-22.09
-20.93
-18.34
-14.59
-10.06
-5.21
-0.46
3.87
7.51
10.29
12.09
12.90
12.82
12.13
11.17
10.24
9.51
8.96
8.53
8.14
7.84
7.75
7.96
8.46
9.10
9.67
9.95
9.82
9.25
8.33
7.18
5.96
4.81
3.79
2.88
1.98
0.94
-0.25
-1.55
-2.81
-3.90
-4.79
-5.56
-6.37
-7.35
-8.54
-9.93
-11.50
-13.23
-15.09
-16.89
-18.26
-18.74
-17.87
-15.41
-11.49
-6.58
-1.39
3.39
7.23
9.90
11.43
12.05
11.98
11.38
10.33
8.92
7.29
5.76
4.72
4.48
5.14
6.44
7.92
9.08
9.57
9.36
8.67
7.81
7.01
6.32
5.62
4.72
3.55
2.12
0.60
-0.84
-2.13
-3.35
-4.65
-6.15
-7.88
-9.64
-11.21
-12.39
-13.20
-13.88
-14.80
-16.23
-18.24
-20.58
-22.72
-24.03
-23.94
-22.15
-18.71
-13.99
-8.56
-3.03
2.04
6.27
9.41
11.38
12.23
12.19
11.59
10.82
10.18
9.84
9.77
9.85
9.99
10.17
10.45
10.88
11.39
11.85
12.07
11.96
11.54
10.95
10.28
9.57
8.75
7.72
6.47
5.06
3.66
2.38
1.25
0.20
-0.90
-2.15
-3.55
-5.01
-6.39
-7.59
-8.60
-9.54
-10.59
-11.97
-13.80
-16.04
-18.43
-20.53
-21.77
-21.62
-19.77
-16.23
-11.42
-6.05
-0.93
3.27
6.21
7.98
8.94
9.53
10.01
10.37
10.41
9.98
9.10
8.06
7.26
7.00
7.34
8.08
8.87
9.46
9.76
9.88
9.98
10.13
10.19
9.91
9.07
7.60
5.67
3.62
1.83
0.55
-0.25
-0.80
-1.44
-2.42
-3.81
-5.48
-7.11
-8.43
-9.30
-9.80
-10.23
-10.98
-12.34
-14.37
-16.80
-19.07
-20.56
-20.76
-19.46
-16.76
-12.96
-8.49
-3.79
0.74
4.72
7.84
9.91
10.91
11.00
10.45
9.59
8.66
7.84
7.22
6.84
6.74
6.89
7.26
7.81
8.49
9.24
10.00
10.62
10.93
10.75
10.04
8.86
7.42
5.96
4.70
3.68
2.86
2.14
1.39
0.53
-0.47
-1.66
-3.02
-4.53
-6.10
-7.56
-8.73
-9.48
-9.86
-10.11
-10.65
-11.83
-13.77
-16.19
-18.46
-19.77
-19.43
-17.17
-13.20
-8.18
-2.93
1.79
5.57
8.34
10.27
11.54
12.25
12.33
11.74
10.58
9.23
8.13
7.73
8.17
9.22
10.41
11.32
11.73
11.71
11.35
10.69
9.65
8.11
6.17
4.15
2.55
1.73
1.64
1.87
1.85
1.11
-0.39
-2.29
-4.06
-5.26
-5.84
-6.09
-6.43
-7.17
-8.35
-9.74
-11.03
-11.98
-12.87
-14.12
-16.16
-19.02
-22.09
-24.31
-24.58
-22.32
-17.93
-12.54
-7.48
-3.65
-1.10
0.81
2.84
5.33
7.82
9.41
9.36
7.65
5.11
3.02
2.41
3.51
5.64
7.65
8.65
8.44
7.56
6.90
7.10
8.25
9.71
10.65
10.46
9.09
7.05
5.07
3.75
3.27
3.32
3.34
2.90
1.80
0.22
-1.48
-2.97
-4.06
-4.79
-5.38
-6.06
-7.10
-8.65
-10.74
-13.25
-15.82
-17.92
-18.93
-18.39
-16.11
-12.32
-7.60
-2.64
1.95
5.79
8.74
10.81
12.07
12.53
12.26
11.39
10.23
9.14
8.45
8.27
8.49
8.78
8.86
8.62
8.16
7.74
7.54
7.58
7.67
7.53
7.00
6.06
4.90
3.76
2.81
2.05
1.36
0.55
-0.50
-1.79
-3.24
-4.68
-6.02
-7.21
-8.27
-9.31
-10.42
-11.70
-13.18
-14.88
-16.75
-18.68
-20.41
-21.52
-21.57
-20.14
-17.11
-12.74
-7.62
-2.50
1.97
5.42
7.84
9.39
10.34
10.86
11.02
10.81
10.24
9.45
8.60
7.95
7.63
7.69
8.06
8.58
9.08
9.44
9.58
9.46
9.06
8.41
7.53
6.52
5.47
4.46
3.50
2.55
1.56
0.51
-0.52
-1.43
-2.22
-2.95
-3.79
-4.85
-6.11
-7.41
-8.61
-9.64
-10.69
-11.97
-13.64
-15.51
-17.08
-17.63
-16.60
-13.80
-9.60
-4.70
0.07
4.12
7.24
9.49
11.13
12.28
12.93
12.91
12.08
10.48
8.50
6.64
5.42
5.11
5.64
6.70
7.85
8.75
9.24
9.34
9.15
8.77
8.21
7.45
6.50
5.36
4.13
2.87
1.64
0.39
-0.94
-2.44
-4.13
-5.93
-7.67
-9.12
-10.20
-10.99
-11.77
-12.88
-14.54
-16.68
-18.83
-20.34
-20.53
-19.03
-15.89
-11.55
-6.72
-2.08
1.85
4.87
6.97
8.29
8.96
9.06
8.64
7.79
6.71
5.66
4.97
4.85
5.33
6.21
7.15
7.85
8.16
8.16
8.01
7.84
7.65
7.30
6.64
5.64
4.43
3.25
2.24
1.37
0.48
-0.61
-1.98
-3.52
-4.99
-6.18
-7.00
-7.58
-8.16
-9.05
-10.45
-12.45
-14.92
-17.51
-19.77
-21.18
-21.29
-19.90
-17.05
-13.05
-8.37
-3.54
0.94
4.67
7.42
9.16
10.04
10.33
10.34
10.26
10.20
10.12
9.98
9.81
9.73
9.93
10.49
11.36
12.33
13.09
13.41
13.21
12.50
11.44
10.16
8.83
7.51
6.26
5.14
4.14
3.20
2.25
1.17
-0.15
-1.71
-3.43
-5.11
-6.53
-7.57
-8.23
-8.73
-9.43
-10.67
-12.67
-15.36
-18.37
-21.07
-22.74
-22.79
-20.93
-17.31
-12.43
-7.00
-1.70
2.92
6.61
9.31
11.09
12.05
12.34
12.12
11.57
10.92
10.34
9.91
9.62
9.45
9.35
9.27
9.18
9.06
8.95
8.92
9.04
9.32
9.62
9.68
9.19
7.94
6.03
3.82
1.87
0.60
0.10
0.08
-0.03
-0.69
-2.04
-3.81
-5.53
-6.78
-7.48
-7.89
-8.47
-9.60
-11.38
-13.64
-15.99
-18.06
-19.55
-20.21
-19.83
-18.19
-15.23
-11.04
-6.05
-0.87
3.81
7.46
9.85
11.05
11.39
11.27
11.06
10.91
10.87
10.85
10.78
10.63
10.50
10.54
10.83
11.38
12.05
12.65
13.04
13.17
13.11
12.91
12.52
11.85
10.79
9.38
7.77
6.22
4.96
4.03
3.35
2.67
1.79
0.61
-0.84
-2.45
-4.05
-5.46
-6.56
-7.34
-7.91
-8.53
-9.52
-11.16
-13.49
-16.24
-18.85
-20.61
-20.94
-19.54
-16.51
-12.27
-7.43
-2.57
1.86
5.57
8.37
10.16
10.93
10.77
9.95
8.81
7.73
6.96
6.58
6.52
6.67
6.99
7.45
8.07
8.75
9.30
9.50
9.21
8.43
7.35
6.22
5.22
4.42
3.67
2.77
1.56
0.02
-1.68
-3.31
-4.61
-5.56
-6.30
-7.16
-8.43
-10.20
-12.26
-14.18
-15.60
-16.38
-16.80
-17.36
-18.49
-20.19
-21.93
-22.90
-22.43
-20.31
-16.86
-12.72
-8.44
-4.21
0.01
4.29
8.35
11.60
13.43
13.58
12.39
10.73
9.52
9.29
9.86
10.60
10.86
10.42
9.66
9.31
9.92
11.56
13.47
14.67
14.40
12.59
9.97
7.56
6.17
5.97
6.29
6.18
4.93
2.47
-0.61
-3.39
-5.20
-5.92
-6.10
-6.56
-7.92
-10.25
-13.09
-15.76
-17.75
-18.95
-19.81
-20.86
-22.40
-24.11
-25.20
-24.68
-21.92
-16.87
-10.29
-3.32
2.88
7.56
10.55
12.12
12.77
12.96
12.92
12.68
12.20
11.44
10.50
9.54
8.78
8.41
8.51
8.97
9.63
10.26
10.68
10.86
10.82
10.68
10.49
10.20
9.66
8.73
7.34
5.59
3.71
1.94
0.41
-0.94
-2.23
-3.62
-5.13
-6.66
-8.04
-9.13
-9.94
-10.61
-11.34
-12.37
-13.80
-15.62
-17.64
-19.47
-20.57
-20.43
-18.66
-15.24
-10.51
-5.13
0.16
4.75
8.28
10.70
12.13
12.75
12.74
12.23
11.37
10.35
9.38
8.66
8.33
8.36
8.67
9.11
9.54
9.87
10.11
10.25
10.26
10.06
9.52
8.54
7.12
5.44
3.70
2.10
0.72
-0.52
-1.78
-3.22
-4.85
-6.53
-8.01
-9.07
-9.71
-10.10
-10.58
-11.46
-12.91
-14.83
-16.94
-18.83
-20.03
-20.21
-19.16
-16.86
-13.44
-9.18
-4.47
0.25
4.54
8.02
10.44
11.72
11.99
11.49
10.51
9.27
7.94
6.60
5.35
4.34
3.76
3.75
4.33
5.32
6.41
7.23
7.50
7.12
6.15
4.78
3.24
1.68
0.19
-1.25
-2.65
-4.05
-5.44
-6.79
-8.06
-9.23
-10.28
-11.27
-12.23
-13.26
-14.44
-15.85
-17.47
-19.16
-20.58
-21.32
-20.93
-19.10
-15.80
-11.28
-6.10
-0.89
3.71
7.29
9.68
10.95
11.30
11.01
10.36
9.57
8.78
8.11
7.57
7.17
6.95
6.94
7.21
7.78
8.58
9.42
10.07
10.32
10.11
9.49
8.61
7.59
6.46
5.15
3.55
1.68
-0.30
-2.08
-3.41
-4.17
-4.52
-4.78
-5.31
-6.33
-7.87
-9.79
-11.90
-14.00
-15.89
-17.34
-18.04
-17.62
-15.79
-12.47
-7.96
-2.81
2.25
6.58
9.79
11.81
12.83
13.14
13.00
12.54
11.81
10.81
9.61
8.39
7.41
6.90
6.96
7.53
8.35
9.12
9.53
9.43
8.81
7.81
6.58
5.20
3.61
1.72
-0.54
-3.09
-5.68
-7.98
-9.71
-10.79
-11.33
-11.66
-12.07
-12.80
-13.93
-15.46
-17.31
-19.34
-21.33
-22.88
-23.52
-22.79
-20.40
-16.43
-11.32
-5.75
-0.47
3.95
7.23
9.35
10.49
10.90
10.79
10.31
9.56
8.66
7.74
6.99
6.59
6.60
7.00
7.63
8.33
8.94
9.37
9.58
9.54
9.17
8.40
7.25
5.76
4.08
2.38
0.78
-0.61
-1.78
-2.74
-3.54
-4.22
-4.89
-5.59
-6.38
-7.29
-8.38
-9.69
-11.26
-13.05
-14.84
-16.20
-16.64
-15.70
-13.20
-9.29
-4.49
0.49
4.97
8.44
10.73
11.93
12.28
12.09
11.57
10.83
9.92
8.91
7.93
7.17
6.81
6.96
7.53
8.31
8.99
9.33
9.21
8.67
7.91
7.12
6.41
5.73
4.93
3.84
2.36
0.60
-1.24
-2.90
-4.24
-5.29
-6.26
-7.42
-9.00
-11.03
-13.34
-15.61
-17.45
-18.47
-18.40
-17.07
-14.48
-10.82
-6.44
-1.76
2.75
6.76
10.01
12.36
13.70
13.99
13.29
11.80
9.90
8.04
6.60
5.82
5.62
5.77
5.99
6.09
6.06
6.00
6.04
6.22
6.39
6.38
5.98
5.13
3.83
2.15
0.20
-1.94
-4.11
-6.15
-7.87
-9.16
-10.13
-11.04
-12.26
-14.04
-16.35
-18.80
-20.80
-21.69
-21.03
-18.76
-15.16
-10.80
-6.26
-2.02
1.67
4.72
7.13
8.88
9.89
10.11
9.61
8.64
7.61
6.93
6.85
7.34
8.17
8.98
9.49
9.61
9.42
9.08
8.72
8.33
7.86
7.25
6.49
5.61
4.56
3.21
1.45
-0.71
-3.06
-5.20
-6.78
-7.61
-7.86
-7.96
-8.41
-9.57
-11.46
-13.76
-15.86
-17.00
-16.58
-14.30
-10.33
-5.24
0.15
5.09
9.11
12.09
14.01
14.91
14.77
13.63
11.79
9.82
8.41
8.06
8.71
9.82
10.67
10.76
10.18
9.43
9.16
9.61
10.38
10.73
9.98
7.99
5.29
2.73
0.99
0.19
-0.26
-1.15
-2.99
-5.66
-8.44
-10.50
-11.42
-11.41
-11.33
-12.13
-14.30
-17.56
-21.04
-23.59
-24.34
-22.94
-19.67
-15.19
-10.21
-5.31
-0.82
3.12
6.49
9.32
11.58
13.21
14.12
14.27
13.69
12.56
11.21
10.02
9.26
8.99
9.09
9.29
9.39
9.36
9.32
9.43
9.69
9.96
9.93
9.38
8.22
6.60
4.77
3.01
1.46
0.09
-1.21
-2.56
-4.00
-5.47
-6.85
-8.01
-8.88
-9.47
-9.89
-10.35
-11.09
-12.31
-14.10
-16.30
-18.51
-20.11
-20.43
-19.01
-15.74
-11.00
-5.52
-0.12
4.51
8.01
10.38
11.82
12.56
12.78
12.58
12.03
11.24
10.40
9.72
9.35
9.34
9.61
9.98
10.33
10.58
10.78
11.00
11.21
11.28
11.01
10.18
8.78
6.98
5.10
3.42
2.09
1.02
0.05
-0.97
-2.02
-2.98
-3.71
-4.22
-4.68
-5.31
-6.26
-7.45
-8.69
-9.75
-10.63
-11.57
-12.96
-15.08
-17.82
-20.66
-22.73
-23.17
-21.52
-17.87
-12.78
-7.08
-1.53
3.35
7.35
10.38
12.45
13.54
13.65
12.88
11.49
9.87
8.42
7.46
7.09
7.19
7.52
7.83
7.96
7.88
7.66
7.40
7.13
6.82
6.40
5.82
5.11
4.34
3.59
2.95
2.47
2.19
2.07
2.03
1.91
1.58
0.91
-0.08
-1.33
-2.72
-4.17
-5.71
-7.38
-9.27
-11.43
-13.82
-16.37
-18.89
-21.13
-22.71
-23.20
-22.23
-19.61
-15.48
-10.26
-4.61
0.74
5.19
8.38
10.18
10.79
10.54
9.81
8.94
8.10
7.30
6.53
5.77
5.16
4.88
5.05
5.67
6.51
7.24
7.57
7.44
6.99
6.45
5.93
5.37
4.51
3.10
1.09
-1.23
-3.32
-4.61
-4.76
-3.85
-2.34
-0.88
-0.04
-0.03
-0.68
-1.54
-2.20
-2.49
-2.64
-3.05
-4.16
-6.05
-8.46
-10.79
-12.39
-12.78
-11.77
-9.50
-6.22
-2.26
2.09
6.50
10.61
14.00
16.33
17.41
17.33
16.39
14.96
13.28
11.42
9.30
6.83
4.10
1.42
-0.75
-1.95
-1.95
-0.86
0.94
2.90
4.51
5.43
5.59
5.09
4.18
3.07
1.91
0.77
-0.31
-1.32
-2.26
-3.17
-4.14
-5.29
-6.66
-8.20
-9.74
-11.06
-12.06
-12.84
-13.59
-14.54
-15.82
-17.37
-18.97
-20.36
-21.33
-21.67
-21.21
-19.78
-17.23
-13.63
-9.25
-4.59
-0.24
3.29
5.70
6.99
7.38
7.15
6.60
5.88
5.07
4.20
3.32
2.55
2.08
2.05
2.55
3.57
5.01
6.72
8.56
10.45
12.37
14.30
16.19
17.88
19.16
19.79
19.68
18.84
17.47
15.76
13.86
11.83
9.68
7.46
5.28
3.34
1.77
0.62
-0.21
-0.93
-1.72
-2.68
-3.81
-4.92
-5.70
-5.74
-4.58
-1.87
2.51
8.34
15.02
21.67
27.37
31.37
33.31
33.29
31.77
29.39
26.79
24.39
22.41
20.87
19.66
18.68
17.87
17.27
16.96
17.09
17.85
19.50
22.37
26.81
32.99
40.79
49.63
58.55
66.45
72.43
76.23
78.22
79.30
80.39
81.97
83.90
85.53
86.05
84.88
81.92
77.46
71.97
65.85
59.24
52.04
44.01
34.86
24.37
12.51
-0.48
-14.06
-27.46
-39.91
-50.93
-60.47
-68.89
-76.66
-84.11
-91.19
-97.60
-103.07
-107.49
-111.09
-114.21
-117.09
-119.64
-121.54
-122.33
-121.60
-119.01
-114.29
-107.22
-97.72
-86.07
-72.95
-59.49
-46.93
-36.31
-28.17
-22.49
-18.82
-16.54
-15.08
-14.02
-13.04
-11.88
-10.36
-8.43
-6.29
-4.32
-3.00
-2.67
-3.39
-4.80
-6.27
-7.08
-6.76
-5.25
-3.05
-1.06
-0.26
-1.39
-4.62
-9.38
-14.51
-18.70
-20.89
-20.67
-18.35
-14.74
-10.85
-7.45
-4.88
-3.06
-1.36
1.21
5.78
13.29
24.04
37.38
51.63
64.52
74.01
79.12
80.34
79.39
78.50
79.40
82.66
87.44
91.99
94.27
92.64
86.41
75.79
61.79
45.76
28.82
11.94
-4.11
-18.56
-30.46
-38.91
-43.47
-44.52
-43.57
-42.68
-43.74
-47.58
-53.68
-60.42
-65.93
-68.98
-69.45
-68.01
-65.46
-62.05
-57.33
-50.58
-41.59
-31.05
-20.70
-12.41
-7.33
-5.28
-4.82
-4.15
-2.01
1.66
5.71
8.60
9.22
7.49
4.27
0.81
-1.90
-3.51
-4.39
-5.16
-6.26
-7.72
-9.17
-10.08
-10.08
-9.10
-7.51
-5.83
-4.61
-4.15
-4.55
-5.72
-7.53
-9.94
-13.02
-16.85
-21.31
-26.02
-30.34
-33.63
-35.47
-35.84
-34.98
-33.24
-30.78
-27.53
-23.23
-17.83
-11.60
-5.22
0.43
4.69
7.32
8.58
9.03
9.22
9.44
9.68
9.68
9.15
7.86
5.75
2.93
-0.31
-3.49
-5.96
-7.04
-6.25
-3.57
0.52
5.09
9.13
11.87
13.05
12.88
11.86
10.42
8.78
6.92
4.80
2.48
0.26
-1.54
-2.71
-3.40
-3.99
-4.93
-6.53
-8.80
-11.51
-14.42
-17.37
-20.37
-23.37
-26.11
-27.99
-28.22
-26.16
-21.64
-15.11
-7.56
-0.16
6.13
10.78
13.72
15.23
15.68
15.39
14.64
13.64
12.60
11.73
11.17
11.00
11.19
11.63
12.18
12.70
13.10
13.35
13.46
13.45
13.32
13.02
12.46
11.55
10.24
8.54
6.58
4.52
2.57
0.86
-0.60
-1.92
-3.28
-4.82
-6.59
-8.51
-10.47
-12.39
-14.35
-16.57
-19.21
-22.18
-25.04
-26.98
-27.14
-24.97
-20.45
-14.20
-7.17
-0.38
5.49
10.15
13.69
16.29
18.10
19.17
19.45
18.96
17.81
16.27
14.69
13.38
12.47
12.01
11.92
12.12
12.61
13.45
14.69
16.22
17.72
18.72
18.76
17.63
15.53
12.96
10.50
8.55
7.12
5.89
4.45
2.56
0.27
-2.12
-4.27
-6.03
-7.53
-9.11
-11.15
-13.88
-17.24
-20.86
-24.22
-26.71
-27.79
-27.11
-24.53
-20.20
-14.54
-8.09
-1.39
5.09
11.02
16.18
20.42
23.53
25.34
25.79
24.99
23.26
21.03
18.74
16.69
15.02
13.79
13.05
12.86
13.30
14.29
15.55
16.61
16.99
16.44
15.03
13.14
11.21
9.59
8.29
7.12
5.77
4.08
2.07
-0.10
-2.23
-4.23
-6.15
-8.07
-10.06
-12.09
-14.12
-16.19
-18.47
-21.16
-24.31
-27.57
-30.21
-31.22
-29.71
-25.26
-18.20
-9.54
-0.61
7.39
13.69
18.14
20.99
22.65
23.42
23.44
22.76
21.50
19.92
18.39
17.16
16.36
15.88
15.52
15.14
14.77
14.53
14.55
14.80
15.08
15.07
14.56
13.49
12.02
10.40
8.81
7.30
5.73
3.92
1.77
-0.68
-3.18
-5.45
-7.26
-8.58
-9.59
-10.59
-11.86
-13.56
-15.66
-18.07
-20.61
-23.05
-25.02
-26.06
-25.62
-23.27
-18.92
-12.88
-5.90
1.11
7.33
12.21
15.57
17.49
18.19
17.92
16.97
15.59
14.10
12.76
11.76
11.20
11.05
11.23
11.62
12.18
12.88
13.67
14.44
14.98
15.08
14.54
13.32
11.52
9.36
7.06
4.82
2.75
0.91
-0.70
-2.08
-3.26
-4.34
-5.44
-6.70
-8.22
-9.94
-11.71
-13.32
-14.65
-15.74
-16.83
-18.27
-20.34
-23.06
-26.13
-28.88
-30.49
-30.23
-27.69
-22.96
-16.58
-9.37
-2.22
4.17
9.38
13.28
15.97
17.56
18.21
18.05
17.24
16.05
14.83
13.89
13.48
13.62
14.17
14.84
15.41
15.74
15.94
16.17
16.61
17.25
17.88
18.16
17.75
16.57
14.79
12.81
11.09
9.84
8.98
8.17
7.02
5.33
3.14
0.73
-1.56
-3.52
-5.16
-6.65
-8.18
-9.86
-11.67
-13.60
-15.68
-18.03
-20.73
-23.55
-25.93
-27.01
-26.02
-22.59
-17.02
-10.15
-3.05
3.38
8.75
13.11
16.72
19.72
22.06
23.46
23.68
22.73
20.95
18.95
17.34
16.56
16.68
17.46
18.51
19.50
20.32
21.09
21.93
22.89
23.73
24.00
23.26
21.33
18.37
14.88
11.25
7.73
4.32
0.94
-2.30
-5.05
-6.88
-7.61
-7.56
-7.43
-7.89
-9.23
-11.12
-12.84
-13.76
-13.75
-13.44
-13.70
-15.24
-18.00
-21.13
-23.32
-23.36
-20.65
-15.69
-9.60
-3.73
1.00
4.44
7.05
9.48
12.06
14.30
15.36
14.54
11.89
8.40
5.61
4.81
6.38
9.50
12.71
14.72
15.11
14.50
14.09
14.89
17.14
20.08
22.51
23.50
22.86
21.25
19.72
19.11
19.66
20.79
21.60
21.30
19.64
16.94
13.91
11.17
9.11
7.65
6.45
5.15
3.46
1.28
-1.42
-4.53
-7.78
-10.77
-12.91
-13.57
-12.27
-8.88
-3.72
2.52
9.00
14.96
19.88
23.52
25.85
26.83
26.42
24.50
21.03
16.11
10.08
3.43
-3.28
-9.62
-15.34
-20.30
-24.49
-27.85
-30.42
-32.39
-34.03
-35.65
-37.40
-39.09
-40.25
-40.40
-39.33
-37.25
-34.78
-32.59
-31.10
-30.34
-29.94
-29.45
-28.55
-27.17
-25.50
-23.85
-22.51
-21.59
-20.98
-20.32
-19.16
-17.10
-13.93
-9.73
-4.76
0.63
6.15
11.61
16.79
21.42
25.22
27.96
29.56
30.17
30.01
29.31
28.09
26.29
23.79
20.60
16.94
13.23
10.00
7.71
6.69
6.96
8.34
10.40
12.61
14.47
15.57
15.64
14.54
12.33
9.21
5.58
1.95
-1.22
-3.66
-5.43
-6.80
-8.12
-9.58
-11.02
-12.08
-12.36
-11.71
-10.40
-9.05
-8.42
-9.07
-11.18
-14.45
-18.24
-21.67
-23.86
-24.01
-21.64
-16.76
-9.94
-2.27
5.02
10.96
15.20
17.99
19.99
21.75
23.39
24.45
24.19
22.03
17.87
12.21
5.98
0.10
-4.79
-8.51
-11.26
-13.39
-15.24
-17.03
-18.89
-20.91
-23.12
-25.48
-27.83
-29.85
-31.20
-31.66
-31.23
-30.23
-29.12
-28.30
-27.93
-27.85
-27.76
-27.35
-26.59
-25.71
-25.10
-25.08
-25.70
-26.72
-27.73
-28.28
-27.98
-26.55
-23.86
-20.07
-15.76
-11.88
-9.51
-9.40
-11.60
-15.42
-19.74
-23.48
-26.08
-27.51
-28.17
-28.49
-28.69
-28.73
-28.42
-27.57
-25.93
-23.19
-19.03
-13.23
-5.83
2.82
12.05
21.01
28.90
35.13
39.42
41.83
42.74
42.74
42.51
42.62
43.34
44.63
46.15
47.41
47.92
47.30
45.33
41.98
37.43
32.09
26.60
21.80
18.50
17.29
18.22
20.81
24.00
26.53
27.22
25.28
20.49
13.16
4.10
-5.57
-14.64
-22.06
-27.20
-29.98
-30.88
-30.63
-29.90
-29.06
-28.07
-26.66
-24.57
-21.70
-18.08
-13.74
-8.57
-2.38
4.89
13.00
21.26
28.69
34.36
37.61
38.23
36.47
32.82
27.86
22.08
15.83
9.29
2.46
-4.76
-12.51
-20.91
-29.95
-39.47
-49.04
-58.10
-65.98
-71.99
-75.60
-76.54
-74.92
-71.14
-65.83
-59.55
-52.65
-45.23
-37.25
-28.78
-20.12
-11.76
-4.23
2.14
7.38
11.76
15.60
19.04
21.92
23.87
24.53
23.76
21.65
18.47
14.46
9.76
4.41
-1.45
-7.47
-13.10
-17.81
-21.29
-23.65
-25.33
-26.85
-28.46
-29.97
-30.87
-30.69
-29.39
-27.60
-26.53
-27.52
-31.42
-38.10
-46.31
-53.89
-58.39
-57.78
-51.08
-38.67
-22.13
-3.79
13.97
29.29
41.17
49.44
54.52
57.01
57.48
56.35
54.02
50.99
47.88
45.29
43.62
42.90
42.80
42.82
42.53
41.72
40.39
38.66
36.57
34.06
31.00
27.37
23.31
19.11
15.08
11.35
7.74
3.88
-0.72
-6.30
-12.79
-19.82
-26.83
-33.43
-39.48
-45.19
-50.97
-57.15
-63.81
-70.57
-76.67
-81.09
-82.84
-81.25
-76.14
-67.93
-57.53
-46.22
-35.32
-25.95
-18.78
-13.85
-10.56
-7.95
-5.04
-1.14
3.90
9.81
16.18
22.73
29.51
36.82
45.00
54.07
63.76
73.41
82.26
89.63
95.03
98.26
99.33
98.39
95.60
90.99
84.45
75.78
64.95
52.31
38.76
25.59
14.17
5.57
0.26
-1.96
-1.73
0.09
2.66
5.25
7.23
8.13
7.61
5.55
2.13
-2.19
-6.70
-10.60
-13.20
-14.06
-13.13
-10.83
-7.90
-5.16
-3.20
-2.19
-1.78
-1.39
-0.38
1.49
4.06
6.84
9.25
10.93
11.95
12.72
13.82
15.54
17.81
20.15
21.91
22.54
21.86
20.04
17.53
14.65
11.68
8.76
6.03
3.77
2.37
2.10
2.98
4.46
5.67
5.72
4.15
1.24
-2.00
-4.31
-4.66
-2.95
0.25
4.08
8.04
12.26
17.36
23.71
30.91
37.48
41.56
41.82
38.11
31.65
24.27
17.47
11.75
6.39
0.19
-7.72
-17.29
-27.51
-36.94
-44.37
-49.18
-51.58
-52.08
-51.14
-48.97
-45.54
-40.94
-35.51
-29.83
-24.60
-20.29
-16.99
-14.45
-12.34
-10.43
-8.71
-7.35
-6.54
-6.43
-7.03
-8.21
-9.71
-11.13
-12.09
-12.27
-11.62
-10.40
-9.03
-7.86
-6.95
-6.02
-4.61
-2.35
0.75
4.36
7.94
11.03
13.47
15.31
16.78
18.03
19.10
19.84
20.04
19.57
18.45
16.89
15.25
13.91
13.17
13.06
13.40
13.83
14.06
13.93
13.50
12.94
12.40
11.94
11.49
10.90
10.07
8.98
7.66
6.25
4.85
3.56
2.43
1.39
0.35
-0.79
-2.08
-3.48
-4.88
-6.14
-7.18
-7.94
-8.39
-8.44
-7.99
-6.92
-5.21
-3.02
-0.65
1.48
3.04
3.90
4.09
3.86
3.45
2.99
2.52
2.00
1.48
1.12
1.14
1.74
2.88
4.28
5.54
6.27
6.31
5.74
4.88
4.12
3.70
3.66
3.81
3.87
3.59
2.83
1.65
0.27
-1.10
-2.28
-3.25
-4.08
-4.88
-5.69
-6.48
-7.21
-7.91
-8.67
-9.68
-11.00
-12.57
-14.09
-15.17
-15.49
-14.98
-13.84
-12.48
-11.31
-10.64
-10.50
-10.76
-11.16
-11.44
-11.39
-10.90
-9.95
-8.60
-6.95
-5.15
-3.35
-1.69
-0.31
0.63
1.00
0.73
-0.12
-1.38
-2.76
-3.96
-4.84
-5.39
-5.77
-6.16
-6.68
-7.27
-7.74
-7.86
-7.51
-6.77
-5.89
-5.22
-4.95
-5.05
-5.24
-5.23
-4.86
-4.32
-4.02
-4.37
-5.55
-7.33
-9.11
-10.24
-10.20
-8.91
-6.67
-4.01
-1.50
0.45
1.71
2.37
2.63
2.64
2.44
2.02
1.37
0.65
0.19
0.33
1.24
2.79
4.64
6.36
7.67
8.56
9.23
9.86
10.54
11.12
11.36
11.09
10.32
9.27
8.28
7.59
7.30
7.25
7.20
6.89
6.18
5.13
3.88
2.63
1.46
0.39
-0.70
-1.96
-3.51
-5.39
-7.54
-9.80
-11.91
-13.56
-14.53
-14.65
-13.94
-12.52
-10.60
-8.36
-5.98
-3.64
-1.54
0.13
1.21
1.71
1.76
1.58
1.42
1.38
1.44
1.56
1.70
1.90
2.28
2.94
3.83
4.77
5.52
5.84
5.68
5.13
4.42
3.74
3.17
2.69
2.19
1.59
0.90
0.22
-0.35
-0.71
-0.91
-1.00
-1.09
-1.18
-1.23
-1.18
-1.10
-1.18
-1.64
-2.62
-4.02
-5.46
-6.43
-6.54
-5.61
-3.84
-1.65
0.55
2.47
4.09
5.53
6.95
8.35
9.61
10.49
10.82
10.59
9.96
9.18
8.52
8.16
8.13
8.39
8.83
9.32
9.71
9.84
9.61
8.95
7.90
6.58
5.08
3.43
1.60
-0.44
-2.61
-4.74
-6.61
-8.06
-9.05
-9.74
-10.36
-11.21
-12.52
-14.46
-17.07
-20.35
-24.16
-28.26
-32.26
-35.66
-37.89
-38.44
-37.03
-33.66
-28.70
-22.82
-16.80
-11.38
-7.01
-3.85
-1.80
-0.66
-0.18
-0.15
-0.34
-0.49
-0.33
0.38
1.68
3.39
5.15
6.54
7.30
7.43
7.15
6.79
6.58
6.47
6.16
5.30
3.64
1.25
-1.52
-4.20
-6.37
-7.88
-8.92
-9.92
-11.38
-13.62
-16.63
-20.00
-23.08
-25.14
-25.63
-24.27
-21.14
-16.61
-11.17
-5.36
0.32
5.40
9.50
12.37
13.94
14.37
13.99
13.20
12.38
11.77
11.48
11.46
11.59
11.74
11.83
11.81
11.69
11.47
11.11
10.57
9.78
8.75
7.49
6.07
4.49
2.71
0.68
-1.65
-4.16
-6.66
-8.87
-10.60
-11.91
-13.03
-14.38
-16.29
-18.82
-21.72
-24.31
-25.85
-25.68
-23.49
-19.42
-14.04
-8.04
-2.11
3.24
7.64
10.78
12.48
12.65
11.47
9.39
7.10
5.34
4.61
5.04
6.31
7.86
9.12
9.81
9.99
10.02
10.17
10.53
10.88
10.87
10.27
9.11
7.66
6.26
4.83
3.03
0.39
-3.25
-7.43
-11.28
-13.95
-15.22
-15.85
-17.12
-20.05
-24.63
-29.58
-32.80
-32.51
-28.10
-20.72
-12.53
-5.68
-1.25
1.20
3.06
5.74
9.71
14.10
17.38
18.29
16.75
13.86
11.43
10.88
12.61
15.70
18.64
20.16
19.89
18.48
17.07
16.56
17.25
18.56
19.58
19.59
18.37
16.24
13.82
11.61
9.88
8.48
7.14
5.61
3.83
1.87
-0.14
-2.15
-4.22
-6.59
-9.48
-12.98
-16.85
-20.50
-23.09
-23.73
-21.82
-17.31
-10.83
-3.43
3.64
9.45
13.53
15.99
17.25
17.80
17.96
17.80
17.29
16.40
15.27
14.11
13.22
12.76
12.75
13.00
13.27
13.36
13.15
12.62
11.80
10.70
9.29
7.56
5.58
3.49
1.52
-0.14
-1.42
-2.38
-3.18
-3.99
-4.91
-6.00
-7.23
-8.58
-10.05
-11.64
-13.37
-15.32
-17.63
-20.45
-23.75
-27.23
-30.16
-31.59
-30.66
-26.97
-20.89
-13.40
-5.78
0.91
6.12
9.84
12.38
14.10
15.13
15.49
15.19
14.39
13.47
12.84
12.80
13.41
14.47
15.67
16.74
17.55
18.19
18.79
19.44
20.09
20.53
20.47
19.70
18.18
16.16
14.02
12.16
10.78
9.80
8.96
7.91
6.43
4.56
2.52
0.58
-1.06
-2.43
-3.73
-5.20
-6.99
-9.13
-11.53
-14.12
-16.83
-19.59
-22.13
-23.96
-24.43
-22.98
-19.40
-14.06
-7.76
-1.52
3.86
7.96
10.78
12.63
13.81
14.48
14.65
14.22
13.21
11.78
10.28
9.12
8.65
8.98
9.94
11.19
12.31
13.00
13.21
13.07
12.74
12.33
11.76
10.84
9.43
7.58
5.55
3.77
2.52
1.81
1.36
0.71
-0.49
-2.35
-4.63
-6.89
-8.69
-9.86
-10.53
-11.10
-12.09
-13.84
-16.44
-19.57
-22.67
-25.04
-26.03
-25.25
-22.60
-18.32
-12.88
-6.87
-0.84
4.69
9.32
12.79
14.98
15.89
15.66
14.56
12.95
11.25
9.83
8.95
8.70
9.01
9.66
10.44
11.18
11.74
12.04
12.03
11.63
10.84
9.71
8.40
7.08
5.87
4.75
3.58
2.18
0.49
-1.42
-3.34
-5.01
-6.30
-7.23
-7.98
-8.80
-9.89
-11.38
-13.26
-15.43
-17.70
-19.83
-21.50
-22.35
-22.07
-20.41
-17.31
-12.94
-7.73
-2.35
2.49
6.20
8.49
9.46
9.49
9.08
8.58
8.08
7.48
6.70
5.78
4.99
4.66
5.01
6.00
7.31
8.55
9.41
9.81
9.87
9.73
9.49
9.04
8.23
6.92
5.09
2.84
0.33
-2.30
-4.94
-7.47
-9.78
-11.73
-13.22
-14.28
-15.05
-15.81
-16.89
-18.55
-20.88
-23.71
-26.56
-28.75
-29.55
-28.43
-25.26
-20.39
-14.55
-8.60
-3.21
1.30
4.94
7.93
10.43
12.45
13.87
14.57
14.55
13.94
13.01
12.10
11.47
11.27
11.53
12.13
12.88
13.57
14.07
14.35
14.45
14.39
14.06
13.25
11.77
9.58
6.98
4.45
2.51
1.41
0.97
0.69
-0.02
-1.53
-3.75
-6.24
-8.40
-9.84
-10.52
-10.82
-11.26
-12.29
-14.08
-16.49
-19.16
-21.67
-23.63
-24.70
-24.56
-22.96
-19.78
-15.13
-9.47
-3.49
2.05
6.60
9.93
12.18
13.65
14.65
15.38
15.86
16.04
15.92
15.58
15.21
15.00
15.10
15.54
16.24
17.03
17.70
18.04
17.96
17.44
16.57
15.49
14.37
13.28
12.24
11.22
10.17
9.09
7.98
6.85
5.67
4.39
2.95
1.25
-0.70
-2.85
-5.05
-7.17
-9.05
-10.65
-12.00
-13.19
-14.35
-15.52
-16.71
-17.90
-19.14
-20.59
-22.52
-25.07
-28.09
-31.01
-32.94
-32.99
-30.64
-26.02
-19.85
-13.14
-6.84
-1.38
3.20
7.15
10.62
13.48
15.36
16.00
15.45
14.20
13.05
12.71
13.44
14.99
16.74
18.09
18.74
18.90
18.95
19.28
19.91
20.58
20.87
20.52
19.56
18.19
16.56
14.65
12.33
9.57
6.67
4.21
2.78
2.63
3.35
4.14
4.22
3.24
1.51
-0.29
-1.53
-2.06
-2.37
-3.22
-5.19
-8.23
-11.69
-14.64
-16.38
-16.75
-16.45
-16.45
-17.60
-20.10
-23.37
-26.20
-27.38
-26.13
-22.69
-18.00
-13.29
-9.49
-6.84
-4.93
-3.21
-1.38
0.04
0.27
-1.31
-4.52
-8.20
-10.73
-10.81
-8.15
-3.73
0.85
4.19
5.87
6.53
7.40
9.48
12.92
16.84
19.86
20.87
19.64
16.90
13.96
11.97
11.48
12.09
12.87
12.91
11.76
9.63
7.18
5.08
3.77
3.16
2.90
2.53
1.81
0.70
-0.65
-2.08
-3.47
-4.82
-6.20
-7.63
-9.11
-10.60
-12.08
-13.61
-15.32
-17.28
-19.45
-21.56
-23.12
-23.53
-22.30
-19.25
-14.56
-8.82
-2.76
2.87
7.59
11.14
13.48
14.72
15.05
14.64
13.73
12.54
11.31
10.21
9.38
8.93
8.93
9.42
10.32
11.42
12.38
12.79
12.44
11.37
9.91
8.57
7.72
7.44
7.45
7.28
6.50
5.00
2.99
0.93
-0.79
-2.03
-2.92
-3.77
-4.83
-6.16
-7.57
-8.83
-9.81
-10.57
-11.33
-12.31
-13.63
-15.17
-16.75
-18.22
-19.62
-21.13
-22.90
-24.81
-26.41
-26.97
-25.81
-22.56
-17.38
-10.95
-4.24
1.84
6.65
10.00
12.01
13.02
13.33
13.18
12.68
11.94
11.09
10.34
9.92
9.98
10.49
11.24
11.91
12.21
12.04
11.47
10.73
10.08
9.69
9.55
9.47
9.17
8.46
7.30
5.88
4.54
3.58
3.15
3.16
3.34
3.36
3.01
2.24
1.15
-0.13
-1.54
-3.07
-4.73
-6.49
-8.21
-9.70
-10.81
-11.53
-12.04
-12.67
-13.77
-15.45
-17.53
-19.44
-20.49
-20.14
-18.18
-14.86
-10.78
-6.58
-2.72
0.63
3.52
6.05
8.20
9.86
10.86
11.19
11.02
10.70
10.57
10.82
11.40
12.11
12.69
13.03
13.12
13.13
13.22
13.42
13.65
13.73
13.46
12.79
11.76
10.51
9.17
7.81
6.41
4.94
3.37
1.74
0.14
-1.32
-2.53
-3.49
-4.28
-5.06
-6.02
-7.27
-8.78
-10.39
-11.88
-13.07
-13.95
-14.71
-15.61
-16.87
-18.56
-20.51
-22.42
-23.96
-24.79
-24.70
-23.56
-21.30
-17.95
-13.68
-8.79
-3.68
1.16
5.32
8.53
10.67
11.80
12.15
12.00
11.64
11.34
11.27
11.51
12.02
12.74
13.52
14.27
14.87
15.31
15.53
15.53
15.30
14.81
14.09
13.16
12.05
10.82
9.49
8.12
6.76
5.46
4.25
3.11
1.93
0.53
-1.24
-3.45
-5.98
-8.56
-10.89
-12.75
-14.15
-15.28
-16.44
-17.83
-19.45
-21.11
-22.58
-23.76
-24.78
-25.93
-27.42
-29.10
-30.38
-30.44
-28.55
-24.45
-18.55
-11.71
-4.99
0.86
5.51
9.07
11.80
13.93
15.49
16.33
16.32
15.45
13.96
12.25
10.73
9.77
9.51
9.85
10.46
10.84
10.44
8.80
5.72
1.31
-3.97
-9.40
-14.18
-17.59
-19.06
-18.30
-15.33
-10.63
-5.09
0.15
3.98
5.75
5.44
3.71
1.56
-0.12
-0.88
-0.83
-0.48
-0.40
-0.96
-2.28
-4.29
-6.96
-10.29
-14.22
-18.54
-22.64
-25.63
-26.54
-24.68
-20.00
-13.15
-5.34
2.09
8.13
12.39
15.05
16.65
17.68
18.32
18.45
17.81
16.28
14.05
11.64
9.71
8.77
8.97
10.06
11.54
12.84
13.62
13.81
13.64
13.40
13.24
13.10
12.65
11.58
9.77
7.42
5.08
3.33
2.52
2.53
2.85
2.83
1.96
0.17
-2.20
-4.61
-6.60
-8.03
-9.06
-10.00
-11.20
-12.80
-14.85
-17.36
-20.29
-23.53
-26.82
-29.64
-31.29
-31.09
-28.63
-23.94
-17.60
-10.51
-3.64
2.25
6.84
10.17
12.53
14.24
15.48
16.27
16.58
16.45
16.05
15.67
15.60
15.99
16.79
17.75
18.54
18.92
18.80
18.26
17.46
16.52
15.46
14.17
12.52
10.46
8.12
5.76
3.71
2.17
1.18
0.59
0.14
-0.35
-0.94
-1.52
-1.92
-2.07
-2.03
-2.09
-2.57
-3.67
-5.34
-7.23
-8.95
-10.26
-11.30
-12.47
-14.17
-16.37
-18.50
-19.63
-19.06
-16.68
-13.02
-8.99
-5.25
-1.92
1.37
5.03
8.88
12.22
14.11
14.03
12.30
10.03
8.53
8.56
9.88
11.48
12.29
11.81
10.48
9.33
9.34
10.82
13.02
14.68
14.75
12.98
10.11
7.45
6.05
6.18
6.97
7.14
5.72
2.72
-0.81
-3.37
-3.93
-2.44
-0.18
1.21
0.54
-2.22
-5.90
-8.83
-9.84
-8.82
-6.90
-5.67
-6.35
-9.20
-13.47
-17.85
-21.12
-22.45
-21.68
-19.09
-15.11
-10.24
-4.92
0.40
5.30
9.48
12.66
14.76
15.81
15.96
15.42
14.47
13.34
12.29
11.47
10.92
10.63
10.52
10.55
10.72
11.06
11.58
12.23
12.82
13.09
12.80
11.85
10.29
8.37
6.41
4.69
3.32
2.28
1.39
0.44
-0.69
-2.04
-3.48
-4.89
-6.11
-7.12
-8.00
-8.84
-9.75
-10.72
-11.64
-12.41
-12.96
-13.37
-13.86
-14.67
-15.99
-17.86
-20.04
-22.11
-23.48
-23.54
-21.93
-18.65
-14.05
-8.79
-3.50
1.30
5.34
8.53
10.85
12.28
12.82
12.52
11.56
10.22
8.79
7.52
6.54
5.88
5.57
5.64
6.13
7.01
8.14
9.27
10.08
10.34
9.99
9.15
8.08
7.00
6.00
5.02
3.92
2.62
1.19
-0.11
-1.06
-1.56
-1.80
-2.13
-2.93
-4.37
-6.30
-8.37
-10.18
-11.52
-12.45
-13.25
-14.28
-15.82
-18.01
-20.80
-23.91
-26.90
-29.18
-30.14
-29.31
-26.61
-22.34
-17.16
-11.80
-6.82
-2.50
1.12
4.13
6.55
8.35
9.46
9.91
9.87
9.56
9.24
9.05
9.06
9.25
9.63
10.24
11.08
12.09
13.13
13.91
14.23
13.94
13.11
11.98
10.86
9.99
9.42
9.00
8.49
7.65
6.43
4.99
3.58
2.44
1.63
0.97
0.18
-1.02
-2.67
-4.63
-6.55
-8.12
-9.18
-9.84
-10.37
-11.11
-12.24
-13.79
-15.64
-17.64
-19.72
-21.77
-23.59
-24.76
-24.69
-22.83
-18.96
-13.40
-6.97
-0.70
4.50
8.19
10.41
11.60
12.23
12.66
12.93
12.95
12.58
11.85
10.97
10.29
10.11
10.57
11.53
12.71
13.81
14.67
15.32
15.89
16.46
16.92
17.01
16.43
15.04
12.99
10.64
8.46
6.79
5.70
5.02
4.46
3.77
2.85
1.76
0.67
-0.29
-1.11
-1.86
-2.71
-3.76
-5.06
-6.54
-8.06
-9.46
-10.64
-11.59
-12.45
-13.44
-14.81
-16.77
-19.33
-22.27
-25.17
-27.45
-28.52
-27.95
-25.55
-21.42
-15.98
-9.84
-3.70
1.80
6.20
9.33
11.31
12.43
13.04
13.34
13.40
13.21
12.77
12.25
11.89
11.95
12.51
13.41
14.36
15.01
15.23
15.08
14.78
14.52
14.33
14.03
13.40
12.29
10.78
9.19
7.92
7.24
7.14
7.33
7.35
6.84
5.74
4.27
2.88
1.90
1.42
1.20
0.88
0.14
-1.11
-2.72
-4.44
-6.05
-7.48
-8.79
-10.08
-11.40
-12.82
-14.38
-16.21
-18.40
-20.96
-23.63
-25.89
-27.08
-26.65
-24.33
-20.29
-15.09
-9.45
-4.07
0.54
4.15
6.74
8.34
9.07
9.05
8.50
7.71
7.02
6.69
6.77
7.14
7.57
7.91
8.19
8.62
9.39
10.57
11.98
13.27
14.10
14.29
13.94
13.26
12.48
11.69
10.78
9.58
8.00
6.09
4.09
2.28
0.82
-0.28
-1.20
-2.15
-3.28
-4.57
-5.85
-6.95
-7.78
-8.42
-9.05
-9.86
-10.94
-12.21
-13.49
-14.67
-15.83
-17.20
-19.06
-21.43
-23.93
-25.77
-26.05
-24.15
-20.06
-14.43
-8.38
-2.97
1.12
3.78
5.35
6.29
6.88
7.16
6.98
6.24
5.07
3.85
3.03
2.98
3.75
5.09
6.54
7.68
8.28
8.41
8.34
8.36
8.59
8.94
9.09
8.67
7.54
5.81
3.86
2.08
0.70
-0.37
-1.45
-2.89
-4.85
-7.14
-9.38
-11.12
-12.16
-12.57
-12.68
-12.86
-13.40
-14.39
-15.83
-17.63
-19.70
-21.88
-23.89
-25.26
-25.40
-23.83
-20.39
-15.42
-9.73
-4.29
0.13
3.26
5.36
7.01
8.77
10.79
12.80
14.24
14.64
13.90
12.38
10.82
9.87
9.95
10.97
12.48
13.91
14.84
15.19
15.10
14.67
13.86
12.51
10.47
7.90
5.30
3.30
2.35
2.30
2.51
2.22
0.97
-1.08
-3.25
-4.83
-5.49
-5.66
-6.14
-7.63
-10.17
-13.07
-15.27
-16.02
-15.34
-14.37
-14.50
-16.72
-20.88
-25.61
-28.90
-29.12
-25.71
-19.71
-12.92
-7.11
-3.15
-0.69
1.36
4.06
7.76
11.82
15.04
16.44
15.82
13.87
11.80
10.67
10.95
12.24
13.75
14.67
14.67
13.95
13.02
12.39
12.36
12.83
13.53
14.12
14.37
14.23
13.76
13.11
12.46
11.91
11.46
10.99
10.35
9.41
8.12
6.63
5.13
3.79
2.60
1.40
-0.06
-1.90
-4.04
-6.22
-8.15
-9.64
-10.81
-11.99
-13.60
-15.94
-18.95
-22.19
-24.87
-26.12
-25.27
-22.19
-17.27
-11.43
-5.69
-0.87
2.71
5.22
7.07
8.59
9.88
10.83
11.26
11.13
10.67
10.19
9.99
10.21
10.76
11.44
12.06
12.53
12.89
13.25
13.71
14.24
14.72
14.93
14.68
13.91
12.77
11.53
10.50
9.81
9.33
8.78
7.88
6.51
4.83
3.16
1.79
0.79
-0.03
-0.99
-2.37
-4.22
-6.36
-8.52
-10.45
-12.08
-13.52
-14.91
-16.42
-18.12
-20.00
-22.08
-24.32
-26.68
-28.93
-30.65
-31.28
-30.31
-27.44
-22.75
-16.77
-10.33
-4.30
0.65
4.28
6.69
8.27
9.44
10.46
11.34
11.95
12.15
11.97
11.59
11.34
11.51
12.16
13.15
14.17
14.89
15.18
15.09
14.86
14.70
14.70
14.73
14.57
14.00
12.96
11.59
10.14
8.85
7.79
6.89
6.00
4.96
3.73
2.34
0.90
-0.49
-1.83
-3.16
-4.57
-6.13
-7.84
-9.60
-11.26
-12.70
-13.91
-15.00
-16.18
-17.70
-19.68
-22.01
-24.27
-25.84
-26.09
-24.59
-21.29
-16.56
-11.06
-5.49
-0.42
3.89
7.40
10.14
12.13
13.27
13.49
12.89
11.76
10.52
9.57
9.12
9.09
9.27
9.40
9.35
9.17
9.01
8.98
9.12
9.31
9.40
9.24
8.77
7.99
6.98
5.85
4.71
3.63
2.64
1.72
0.82
-0.10
-1.08
-2.11
-3.19
-4.28
-5.38
-6.50
-7.63
-8.76
-9.88
-11.06
-12.43
-14.15
-16.33
-18.93
-21.64
-23.90
-24.99
-24.32
-21.66
-17.26
-11.85
-6.33
-1.49
2.33
5.16
7.34
9.12
10.55
11.47
11.67
11.12
10.10
9.08
8.52
8.66
9.43
10.55
11.67
12.56
13.13
13.47
13.64
13.64
13.41
12.83
11.87
10.62
9.23
7.92
6.76
5.75
4.78
3.71
2.49
1.15
-0.17
-1.39
-2.45
-3.41
-4.36
-5.41
-6.61
-7.90
-9.21
-10.41
-11.48
-12.46
-13.52
-14.86
-16.64
-18.91
-21.51
-24.13
-26.26
-27.37
-26.97
-24.77
-20.82
-15.46
-9.41
-3.43
1.73
5.68
8.34
10.01
11.08
11.86
12.50
12.96
13.16
13.15
13.03
13.00
13.12
13.40
13.73
14.04
14.36
14.77
15.29
15.84
16.19
16.09
15.42
14.25
12.81
11.33
9.96
8.70
7.45
6.15
4.82
3.60
2.59
1.83
1.21
0.53
-0.39
-1.59
-2.93
-4.16
-5.13
-5.84
-6.51
-7.47
-8.95
-10.94
-13.20
-15.42
-17.41
-19.27
-21.22
-23.42
-25.71
-27.51
-27.97
-26.40
-22.61
-17.02
-10.61
-4.45
0.65
4.38
6.94
8.74
10.15
11.31
12.09
12.35
12.04
11.35
10.60
10.15
10.13
10.46
10.94
11.36
11.66
11.96
12.45
13.23
14.20
15.08
15.52
15.24
14.19
12.51
10.50
8.40
6.39
4.50
2.70
1.01
-0.49
-1.69
-2.48
-2.86
-2.97
-3.02
-3.29
-3.95
-5.04
-6.46
-8.02
-9.50
-10.74
-11.77
-12.75
-13.95
-15.59
-17.77
-20.29
-22.73
-24.51
-25.05
-24.03
-21.39
-17.42
-12.57
-7.35
-2.21
2.46
6.33
9.10
10.61
10.90
10.30
9.35
8.58
8.32
8.52
8.92
9.18
9.19
9.11
9.25
9.87
10.95
12.15
13.05
13.35
13.07
12.41
11.58
10.54
9.12
7.13
4.63
2.06
0.02
-0.97
-0.86
-0.05
0.74
0.85
-0.03
-1.72
-3.77
-5.64
-7.13
-8.25
-9.24
-10.33
-11.56
-12.84
-14.04
-15.13
-16.48
-18.47
-21.23
-24.32
-26.67
-26.96
-24.31
-18.73
-11.45
-4.21
1.42
4.82
6.43
7.42
8.82
10.97
13.18
14.36
13.74
11.43
8.52
6.45
6.30
8.16
11.02
13.40
14.23
13.32
11.53
10.10
9.95
11.09
12.56
13.05
11.70
8.59
4.70
1.35
-0.51
-0.67
0.17
1.00
0.99
-0.12
-2.04
-4.14
-5.87
-6.89
-7.37
-7.72
-8.46
-9.99
-12.40
-15.38
-18.30
-20.36
-20.96
-19.82
-17.11
-13.33
-9.09
-4.89
-1.06
2.26
5.02
7.15
8.55
9.12
8.84
7.86
6.47
5.07
3.99
3.46
3.50
4.03
4.89
5.95
7.14
8.44
9.81
11.11
12.13
12.61
12.37
11.35
9.69
7.70
5.71
4.00
2.70
1.75
0.94
0.04
-1.08
-2.41
-3.79
-5.05
-6.09
-7.03
-8.15
-9.76
-12.00
-14.69
-17.35
-19.32
-19.99
-19.08
-16.65
-13.09
-8.90
-4.56
-0.40
3.34
6.44
8.71
9.98
10.23
9.65
8.58
7.44
6.52
5.99
5.80
5.86
6.05
6.33
6.68
7.10
7.52
7.83
7.87
7.54
6.80
5.67
4.24
2.61
0.88
-0.87
-2.62
-4.36
-6.10
-7.83
-9.46
-10.93
-12.19
-13.29
-14.39
-15.76
-17.63
-20.11
-23.01
-25.83
-27.89
-28.51
-27.30
-24.27
-19.88
-14.81
-9.75
-5.15
-1.16
2.26
5.17
7.49
9.10
9.86
9.87
9.41
8.92
8.76
9.03
9.67
10.43
11.13
11.74
12.33
12.93
13.50
13.82
13.66
12.86
11.53
9.98
8.59
7.58
6.89
6.22
5.16
3.47
1.18
-1.41
-3.88
-5.96
-7.64
-9.11
-10.67
-12.57
-14.86
-17.45
-20.17
-22.74
-24.89
-26.21
-26.29
-24.77
-21.49
-16.61
-10.60
-4.20
1.82
6.84
10.54
12.92
14.26
14.93
15.28
15.52
15.71
15.81
15.76
15.58
15.38
15.31
15.49
15.93
16.48
16.94
17.08
16.77
15.98
14.83
13.44
11.90
10.26
8.49
6.60
4.65
2.76
1.09
-0.31
-1.55
-2.87
-4.57
-6.82
-9.63
-12.75
-15.78
-18.35
-20.29
-21.70
-22.98
-24.55
-26.68
-29.20
-31.51
-32.75
-32.13
-29.27
-24.34
-18.00
-11.12
-4.51
1.34
6.22
10.12
13.10
15.17
16.40
16.88
16.86
16.67
16.64
16.93
17.51
18.16
18.62
18.72
18.46
17.98
17.54
17.30
17.26
17.29
17.22
16.83
16.06
14.90
13.39
11.64
9.73
7.75
5.83
4.09
2.59
1.32
0.15
-1.08
-2.55
-4.29
-6.24
-8.20
-9.99
-11.50
-12.77
-13.96
-15.30
-17.04
-19.34
-22.23
-25.51
-28.79
-31.50
-32.96
-32.59
-30.06
-25.45
-19.27
-12.30
-5.46
0.53
5.29
8.77
11.20
12.86
13.97
14.64
14.94
14.97
14.90
14.92
15.19
15.73
16.48
17.34
18.24
19.16
20.07
20.87
21.45
21.66
21.45
20.88
20.09
19.22
18.29
17.27
16.03
14.49
12.67
10.71
8.83
7.22
5.96
5.01
4.18
3.24
2.00
0.40
-1.49
-3.48
-5.39
-7.12
-8.65
-10.06
-11.44
-12.92
-14.56
-16.47
-18.76
-21.48
-24.58
-27.79
-30.60
-32.31
-32.20
-29.80
-25.09
-18.63
-11.41
-4.57
0.97
4.78
7.03
8.23
8.97
9.66
10.40
11.08
11.55
11.77
11.87
12.06
12.54
13.33
14.29
15.17
15.79
16.04
16.02
15.92
15.86
15.82
15.62
15.03
13.88
12.26
10.43
8.74
7.42
6.50
5.78
5.02
4.08
2.98
1.93
1.12
0.63
0.29
-0.21
-1.22
-2.90
-5.13
-7.52
-9.66
-11.29
-12.50
-13.68
-15.29
-17.59
-20.47
-23.39
-25.63
-26.54
-25.74
-23.23
-19.31
-14.40
-8.96
-3.42
1.77
6.19
9.48
11.42
12.04
11.64
10.70
9.74
9.17
9.18
9.73
10.57
11.43
12.09
12.51
12.78
13.09
13.56
14.12
14.55
14.63
14.26
13.51
12.41
10.96
9.02
6.48
3.53
0.67
-1.42
-2.25
-1.86
-0.84
-0.08
-0.26
-1.48
-3.28
-4.93
-5.84
-5.94
-5.56
-5.26
-5.46
-6.29
-7.57
-9.02
-10.38
-11.84
-13.65
-15.98
-18.61
-20.77
-21.42
-19.70
-15.39
-9.34
-2.97
2.34
5.84
7.80
9.19
10.94
13.41
15.95
17.51
17.23
15.14
12.23
9.96
9.46
10.93
13.43
15.52
16.01
14.61
12.09
9.77
8.68
9.10
10.24
10.92
10.26
8.16
5.39
3.00
1.80
1.91
2.73
3.38
3.22
2.10
0.38
-1.42
-2.88
-3.83
-4.51
-5.26
-6.41
-8.13
-10.34
-12.81
-15.17
-17.00
-18.00
-17.95
-16.84
-14.76
-11.93
-8.57
-4.95
-1.27
2.28
5.50
8.21
10.17
11.20
11.26
10.50
9.26
7.95
6.88
6.19
5.77
5.42
4.95
4.38
3.86
3.62
3.78
4.29
4.87
5.21
5.08
4.40
3.35
2.15
0.99
-0.06
-1.08
-2.21
-3.52
-4.97
-6.38
-7.59
-8.55
-9.36
-10.22
-11.32
-12.72
-14.41
-16.28
-18.26
-20.25
-22.03
-23.30
-23.62
-22.64
-20.26
-16.74
-12.59
-8.43
-4.71
-1.65
0.75
2.61
4.01
5.02
5.64
5.91
5.85
5.50
4.87
4.04
3.16
2.42
2.11
2.39
3.28
4.59
5.95
6.97
7.34
6.95
5.96
4.68
3.40
2.30
1.41
0.61
-0.24
-1.24
-2.42
-3.74
-5.18
-6.70
-8.28
-9.85
-11.29
-12.51
-13.50
-14.38
-15.38
-16.76
-18.59
-20.66
-22.45
-23.26
-22.42
-19.63
-15.12
-9.60
-4.00
0.83
4.44
6.84
8.32
9.22
9.71
9.75
9.21
8.09
6.68
5.39
4.66
4.67
5.27
6.09
6.73
7.01
7.02
7.03
7.26
7.72
8.14
8.15
7.47
6.08
4.26
2.42
0.91
-0.13
-0.86
-1.61
-2.67
-4.21
-6.13
-8.18
-10.05
-11.56
-12.76
-13.91
-15.40
-17.50
-20.22
-23.19
-25.77
-27.23
-27.00
-24.92
-21.17
-16.29
-10.93
-5.64
-0.82
3.25
6.41
8.58
9.75
10.06
9.75
9.18
8.71
8.57
8.81
9.30
9.83
10.18
10.22
10.02
9.75
9.64
9.86
10.41
11.08
11.57
11.60
11.06
10.02
8.68
7.27
5.89
4.53
3.10
1.52
-0.17
-1.85
-3.40
-4.73
-5.84
-6.82
-7.79
-8.87
-10.17
-11.76
-13.69
-15.94
-18.39
-20.76
-22.61
-23.43
-22.77
-20.39
-16.45
-11.41
-5.99
-0.90
3.38
6.68
9.08
10.77
11.86
12.37
12.26
11.55
10.45
9.31
8.56
8.52
9.23
10.46
11.75
12.68
12.97
12.66
12.03
11.46
11.21
11.31
11.52
11.49
10.96
9.88
8.40
6.85
5.50
4.47
3.67
2.88
1.90
0.65
-0.78
-2.19
-3.35
-4.17
-4.77
-5.34
-6.13
-7.32
-8.97
-11.05
-13.49
-16.11
-18.63
-20.60
-21.46
-20.66
-17.95
-13.46
-7.76
-1.68
3.92
8.43
11.60
13.54
14.54
14.91
14.85
14.41
13.60
12.48
11.21
10.07
9.39
9.34
9.87
10.74
11.54
11.94
11.77
11.14
10.29
9.48
8.78
8.04
7.01
5.44
3.33
0.92
-1.37
-3.15
-4.25
-4.78
-5.11
-5.61
-6.53
-7.90
-9.50
-11.07
-12.42
-13.54
-14.62
-15.93
-17.67
-19.89
-22.43
-25.03
-27.39
-29.23
-30.23
-30.05
-28.36
-25.02
-20.13
-14.20
-8.01
-2.39
2.02
5.03
6.84
7.92
8.73
9.55
10.37
11.01
11.31
11.28
11.13
11.20
11.74
12.79
14.11
15.27
15.90
15.83
15.20
14.29
13.41
12.67
11.98
11.09
9.82
8.13
6.17
4.21
2.51
1.18
0.19
-0.66
-1.61
-2.83
-4.34
-6.03
-7.67
-9.06
-10.11
-10.88
-11.58
-12.50
-13.89
-15.87
-18.38
-21.13
-23.69
-25.54
-26.26
-25.56
-23.38
-19.87
-15.34
-10.19
-4.90
0.06
4.27
7.45
9.56
10.73
11.28
11.48
11.48
11.29
10.88
10.34
9.91
9.96
10.80
12.41
14.48
16.44
17.75
18.19
17.86
17.18
16.59
16.33
16.27
16.07
15.34
13.93
12.01
10.02
8.38
7.36
6.90
6.68
6.29
5.44
4.07
2.30
0.22
-2.13
-4.77
-7.63
-10.43
-12.62
-13.74
-13.67
-12.98
-12.68
-13.79
-16.67
-20.75
-24.64
-26.78
-26.15
-22.83
-17.81
-12.40
-7.55
-3.44
0.31
4.17
8.24
11.90
14.29
14.83
13.62
11.50
9.65
8.98
9.77
11.36
12.77
13.21
12.55
11.42
10.85
11.59
13.74
16.39
18.19
18.06
15.79
12.19
8.71
6.56
6.22
7.05
7.87
7.67
6.10
3.69
1.34
-0.20
-0.68
-0.56
-0.53
-1.12
-2.41
-4.06
-5.63
-6.85
-7.74
-8.74
-10.36
-12.91
-16.33
-20.03
-23.12
-24.70
-24.11
-21.26
-16.59
-10.88
-5.05
0.21
4.49
7.74
10.12
11.83
13.03
13.76
14.01
13.74
13.02
12.06
11.19
10.73
10.90
11.62
12.62
13.54
14.12
14.27
14.12
13.87
13.63
13.38
12.97
12.24
11.14
9.73
8.18
6.67
5.28
4.03
2.84
1.63
0.36
-0.98
-2.35
-3.75
-5.18
-6.64
-8.12
-9.56
-10.89
-12.05
-13.10
-14.15
-15.37
-16.88
-18.76
-20.93
-23.20
-25.20
-26.50
-26.62
-25.18
-22.00
-17.28
-11.54
-5.50
0.06
4.64
8.05
10.40
11.98
13.05
13.77
14.15
14.18
13.94
13.56
13.23
13.10
13.15
13.27
13.26
13.04
12.64
12.22
11.97
11.93
11.99
11.89
11.36
10.30
8.81
7.17
5.70
4.56
3.75
3.06
2.28
1.30
0.17
-0.93
-1.89
-2.76
-3.75
-5.11
-6.99
-9.21
-11.42
-13.16
-14.17
-14.51
-14.61
-15.01
-16.16
-18.18
-20.77
-23.32
-25.16
-25.71
-24.68
-22.08
-18.11
-13.16
-7.66
-2.09
3.09
7.39
10.48
12.23
12.75
12.35
11.47
10.49
9.67
9.12
8.81
8.66
8.62
8.68
8.87
9.24
9.78
10.45
11.13
11.66
11.86
11.63
10.98
10.03
8.98
8.00
7.15
6.38
5.54
4.55
3.41
2.27
1.27
0.49
-0.15
-0.87
-1.88
-3.24
-4.83
-6.39
-7.65
-8.54
-9.16
-9.76
-10.60
-11.81
-13.35
-15.14
-17.08
-19.08
-21.05
-22.72
-23.64
-23.27
-21.15
-17.14
-11.60
-5.29
0.80
5.85
9.36
11.32
12.04
11.95
11.33
10.30
8.84
6.98
4.92
3.04
1.76
1.36
1.80
2.77
3.84
4.62
5.01
5.09
5.12
5.28
5.61
5.93
5.99
5.57
4.61
3.32
2.01
0.99
0.40
0.10
-0.28
-1.14
-2.70
-4.89
-7.34
-9.60
-11.28
-12.33
-12.92
-13.43
-14.24
-15.62
-17.65
-20.26
-23.16
-25.93
-28.07
-29.04
-28.48
-26.19
-22.28
-17.12
-11.29
-5.50
-0.43
3.40
5.81
6.97
7.29
7.24
7.16
7.14
7.12
7.01
6.88
6.94
7.39
8.35
9.72
11.21
12.52
13.47
14.03
14.31
14.46
14.54
14.51
14.22
13.53
12.40
10.97
9.49
8.26
7.39
6.82
6.28
5.48
4.20
2.42
0.29
-1.96
-4.11
-6.04
-7.75
-9.31
-10.86
-12.56
-14.55
-16.88
-19.46
-22.02
-24.16
-25.45
-25.50
-24.10
-21.22
-17.03
-11.94
-6.48
-1.28
3.12
6.34
8.32
9.26
9.53
9.53
9.51
9.53
9.53
9.44
9.24
9.05
9.05
9.36
10.02
10.88
11.71
12.32
12.61
12.62
12.48
12.31
12.08
11.68
10.93
9.76
8.23
6.57
5.06
3.88
3.01
2.27
1.35
0.03
-1.73
-3.73
-5.62
-7.07
-7.94
-8.39
-8.85
-9.84
-11.75
-14.64
-18.20
-21.85
-24.94
-26.94
-27.46
-26.34
-23.59
-19.44
-14.27
-8.62
-3.12
1.68
5.47
8.18
9.99
11.18
12.02
12.62
13.00
13.06
12.72
11.98
11.02
10.08
9.46
9.33
9.68
10.27
10.78
10.95
10.73
10.25
9.72
9.29
8.99
8.67
8.15
7.35
6.33
5.27
4.40
3.84
3.50
3.13
2.36
0.92
-1.22
-3.80
-6.36
-8.45
-9.81
-10.56
-11.07
-11.82
-13.14
-15.14
-17.65
-20.41
-23.11
-25.41
-26.89
-27.07
-25.50
-21.95
-16.64
-10.27
-3.81
1.77
5.86
8.37
9.69
10.42
11.07
11.82
12.50
12.79
12.47
11.60
10.53
9.85
9.94
10.88
12.35
13.77
14.60
14.65
14.08
13.30
12.50
11.65
10.49
8.76
6.54
4.34
2.79
2.29
2.60
3.00
2.69
1.26
-0.96
-3.17
-4.59
-4.97
-4.91
-5.31
-6.90
-9.65
-12.78
-15.22
-16.26
-15.97
-15.45
-15.99
-18.45
-22.64
-27.35
-30.82
-31.65
-29.34
-24.71
-19.21
-14.26
-10.53
-7.73
-4.91
-1.27
3.38
8.27
12.22
14.26
14.26
12.99
11.69
11.44
12.67
14.96
17.48
19.40
20.31
20.34
19.89
19.41
19.16
19.06
18.83
18.11
16.68
14.52
11.84
9.04
6.54
4.56
3.14
2.08
1.07
-0.05
-1.30
-2.50
-3.45
-4.04
-4.39
-4.77
-5.48
-6.68
-8.35
-10.28
-12.30
-14.31
-16.42
-18.81
-21.60
-24.62
-27.37
-29.13
-29.20
-27.18
-23.15
-17.71
-11.76
-6.19
-1.70
1.49
3.56
4.89
5.86
6.62
7.08
7.03
6.40
5.38
4.43
4.07
4.61
6.01
7.85
9.56
10.70
11.12
11.05
10.80
10.70
10.82
10.99
10.90
10.30
9.07
7.36
5.43
3.56
1.93
0.57
-0.63
-1.77
-2.92
-4.00
-4.91
-5.55
-5.96
-6.28
-6.73
-7.50
-8.68
-10.22
-12.07
-14.22
-16.71
-19.62
-22.81
-25.90
-28.18
-28.76
-26.97
-22.62
-16.19
-8.72
-1.47
4.58
8.96
11.84
13.75
15.21
16.45
17.37
17.67
17.22
16.19
15.10
14.50
14.71
15.68
16.95
17.96
18.34
18.02
17.28
16.53
16.05
15.85
15.65
15.12
13.99
12.28
10.26
8.29
6.65
5.41
4.43
3.46
2.33
1.01
-0.39
-1.68
-2.77
-3.63
-4.36
-5.10
-5.94
-6.94
-8.10
-9.39
-10.86
-12.55
-14.59
-16.99
-19.57
-21.86
-23.15
-22.74
-20.25
-15.79
-10.01
-3.85
1.82
6.46
9.92
12.37
14.04
15.11
15.62
15.61
15.20
14.57
13.98
13.63
13.59
13.78
14.00
14.07
13.88
13.56
13.34
13.50
14.12
14.98
15.67
15.71
14.82
13.12
11.02
9.04
7.51
6.44
5.55
4.44
2.82
0.68
-1.72
-4.03
-5.98
-7.52
-8.83
-10.26
-12.07
-14.38
-17.06
-19.84
-22.39
-24.44
-25.74
-26.08
-25.21
-22.91
-19.06
-13.84
-7.71
-1.44
4.17
8.45
11.10
12.20
12.12
11.30
10.13
8.80
7.38
5.93
4.56
3.51
3.07
3.42
4.60
6.33
8.17
9.62
10.33
10.22
9.51
8.53
7.56
6.68
5.77
4.67
3.30
1.83
0.43
-0.78
-1.96
-3.38
-5.30
-7.65
-10.06
-12.03
-13.22
-13.74
-14.07
-14.86
-16.56
-19.19
-22.30
-25.15
-26.95
-27.05
-25.10
-21.06
-15.26
-8.33
-1.16
5.33
10.38
13.65
15.26
15.67
15.44
14.97
14.41
13.75
12.97
12.14
11.50
11.28
11.55
12.22
13.05
13.83
14.48
14.95
15.22
15.15
14.53
13.20
11.19
8.77
6.34
4.28
2.74
1.64
0.67
-0.44
-1.85
-3.56
-5.45
-7.40
-9.36
-11.38
-13.61
-16.16
-19.08
-22.29
-25.61
-28.77
-31.43
-33.21
-33.76
-32.74
-30.00
-25.59
-19.84
-13.31
-6.70
-0.68
4.26
7.89
10.26
11.60
12.24
12.46
12.44
12.22
11.78
11.10
10.26
9.45
8.94
8.96
9.65
10.89
12.40
13.73
14.46
14.34
13.37
11.81
9.95
8.08
6.29
4.53
2.79
1.09
-0.41
-1.59
-2.44
-3.17
-4.08
-5.38
-7.10
-9.02
-10.77
-12.08
-12.94
-13.63
-14.63
-16.39
-19.13
-22.58
-26.07
-28.70
-29.61
-28.28
-24.70
-19.33
-12.91
-6.21
0.14
5.70
10.19
13.46
15.45
16.25
16.13
15.46
14.65
14.02
13.76
13.84
14.14
14.50
14.79
14.98
15.15
15.41
15.87
16.50
17.18
17.71
17.90
17.66
16.99
15.98
14.72
13.25
11.59
9.78
7.96
6.30
5.00
4.09
3.44
2.71
1.51
-0.38
-2.90
-5.61
-8.06
-9.86
-11.05
-12.07
-13.50
-15.72
-18.60
-21.52
-23.62
-24.20
-22.90
-19.85
-15.49
-10.33
-4.86
0.52
5.41
9.41
12.22
13.70
13.95
13.31
12.29
11.38
10.95
11.14
11.85
12.79
13.60
13.98
13.86
13.50
13.18
13.18
13.52
13.92
14.03
13.59
12.63
11.40
9.99
8.35
6.28
3.64
0.70
-1.89
-3.42
-3.57
-2.82
-2.21
-2.80
-5.04
-8.46
-11.93
-14.31
-15.18
-15.15
-15.38
-16.93
-20.09
-24.15
-27.80
-29.83
-29.66
-27.66
-24.67
-21.36
-17.88
-13.75
-8.37
-1.63
5.79
12.47
16.99
18.59
17.59
15.17
12.77
11.36
11.19
11.73
12.23
12.24
11.71
10.98
10.46
10.36
10.70
11.23
11.69
11.81
11.39
10.35
8.75
6.80
4.91
3.40
2.43
1.91
1.47
0.78
-0.38
-1.97
-3.77
-5.52
-7.10
-8.51
-9.88
-11.30
-12.84
-14.52
-16.32
-18.24
-20.25
-22.26
-24.03
-25.20
-25.29
-23.87
-20.68
-15.79
-9.69
-3.15
2.99
8.04
11.67
13.91
15.02
15.31
14.99
14.22
13.12
11.94
10.99
10.57
10.82
11.64
12.76
13.81
14.49
14.62
14.24
13.47
12.52
11.51
10.52
9.54
8.53
7.46
6.32
5.18
4.07
3.06
2.15
1.28
0.32
-0.85
-2.30
-4.02
-5.85
-7.57
-9.01
-10.11
-11.08
-12.27
-14.08
-16.70
-19.95
-23.29
-25.95
-27.17
-26.51
-23.92
-19.76
-14.61
-9.09
-3.77
0.97
4.91
7.93
10.00
11.17
11.61
11.56
11.33
11.16
11.21
11.44
11.75
11.98
12.10
12.21
12.47
13.02
13.85
14.78
15.53
15.85
15.62
14.86
13.69
12.22
10.55
8.72
6.83
5.05
3.52
2.35
1.49
0.75
-0.15
-1.44
-3.20
-5.35
-7.67
-9.88
-11.81
-13.39
-14.75
-16.14
-17.82
-19.98
-22.57
-25.31
-27.74
-29.28
-29.45
-27.97
-24.85
-20.35
-14.93
-9.10
-3.39
1.77
6.02
9.19
11.19
12.13
12.24
11.79
11.12
10.48
10.06
9.97
10.25
10.91
11.94
13.29
14.82
16.32
17.52
18.19
18.20
17.60
16.59
15.47
14.42
13.50
12.56
11.38
9.78
7.79
5.61
3.58
1.95
0.81
-0.01
-0.80
-1.88
-3.33
-5.02
-6.66
-8.00
-8.95
-9.66
-10.41
-11.50
-13.12
-15.27
-17.77
-20.36
-22.69
-24.36
-24.95
-24.11
-21.67
-17.79
-12.92
-7.74
-2.89
1.20
4.40
6.81
8.63
10.04
11.08
11.74
12.01
11.95
11.75
11.59
11.68
12.11
12.87
13.85
14.94
16.00
16.99
17.91
18.78
19.60
20.32
20.84
21.09
20.99
20.45
19.43
17.86
15.71
13.07
10.11
7.07
4.15
1.46
-0.94
-3.05
-4.85
-6.37
-7.66
-8.89
-10.30
-12.04
-14.14
-16.43
-18.69
-20.80
-22.83
-24.99
-27.48
-30.20
-32.67
-34.13
-33.83
-31.33
-26.79
-20.85
-14.43
-8.41
-3.27
0.83
4.01
6.37
7.93
8.55
8.18
7.01
5.47
4.18
3.63
4.05
5.28
6.94
8.60
9.96
10.92
11.50
11.76
11.70
11.27
10.41
9.11
7.39
5.31
2.97
0.51
-1.84
-3.84
-5.31
-6.25
-6.92
-7.65
-8.78
-10.31
-11.97
-13.34
-14.16
-14.47
-14.67
-15.28
-16.59
-18.58
-20.87
-22.99
-24.55
-25.32
-25.20
-24.09
-21.85
-18.36
-13.69
-8.14
-2.30
3.19
7.78
11.20
13.43
14.67
15.21
15.32
15.21
14.95
14.57
14.08
13.54
13.15
13.13
13.67
14.76
16.17
17.52
18.45
18.80
18.65
18.30
18.00
17.78
17.43
16.59
15.01
12.71
10.06
7.57
5.67
4.46
3.70
2.90
1.61
-0.32
-2.74
-5.24
-7.36
-8.90
-9.92
-10.77
-11.87
-13.57
-15.93
-18.78
-21.76
-24.38
-26.22
-26.93
-26.23
-24.01
-20.27
-15.22
-9.28
-3.09
2.64
7.24
10.30
11.78
11.97
11.40
10.62
10.01
9.71
9.65
9.67
9.66
9.62
9.66
9.86
10.28
10.82
11.33
11.67
11.77
11.70
11.55
11.45
11.40
11.28
10.83
9.85
8.29
6.35
4.42
2.90
1.98
1.52
1.09
0.20
-1.41
-3.59
-5.91
-7.87
-9.19
-10.00
-10.69
-11.63
-13.00
-14.67
-16.48
-18.35
-20.36
-22.64
-25.03
-26.96
-27.57
-26.10
-22.35
-16.91
-10.89
-5.46
-1.33
1.49
3.48
5.28
7.18
9.09
10.64
11.49
11.62
11.30
10.98
11.05
11.41
11.76
11.72
11.14
10.30
9.76
10.08
11.44
13.28
14.66
14.69
13.06
10.28
7.43
5.57
5.11
5.52
5.75
4.91
2.82
0.25
-1.64
-1.99
-0.78
0.90
1.58
0.26
-3.04
-7.18
-10.60
-12.18
-11.79
-10.48
-9.69
-10.50
-13.13
-16.92
-20.81
-23.92
-25.80
-26.52
-26.24
-24.96
-22.47
-18.59
-13.46
-7.62
-1.80
3.21
6.96
9.35
10.57
10.90
10.63
10.00
9.28
8.71
8.50
8.72
9.26
9.92
10.45
10.76
10.89
10.99
11.15
11.34
11.35
10.97
10.07
8.71
7.17
5.76
4.68
3.94
3.36
2.67
1.70
0.47
-0.88
-2.14
-3.22
-4.18
-5.17
-6.33
-7.67
-9.06
-10.26
-11.14
-11.74
-12.37
-13.47
-15.39
-18.19
-21.50
-24.57
-26.52
-26.62
-24.60
-20.71
-15.59
-10.05
-4.76
-0.10
3.79
6.89
9.21
10.68
11.28
11.04
10.16
9.02
8.01
7.44
7.42
7.83
8.43
8.99
9.40
9.72
10.08
10.59
11.17
11.64
11.69
11.15
10.00
8.43
6.76
5.23
4.01
3.04
2.22
1.43
0.61
-0.25
-1.18
-2.20
-3.37
-4.74
-6.25
-7.77
-9.16
-10.32
-11.29
-12.29
-13.63
-15.56
-18.12
-21.06
-23.82
-25.65
-25.90
-24.23
-20.68
-15.75
-10.17
-4.66
0.22
4.20
7.24
9.42
10.87
11.70
12.04
12.06
11.92
11.78
11.74
11.83
12.03
12.30
12.56
12.78
12.95
13.09
13.26
13.48
13.71
13.81
13.55
12.75
11.35
9.52
7.56
5.78
4.35
3.19
2.08
0.82
-0.65
-2.22
-3.67
-4.83
-5.70
-6.49
-7.45
-8.72
-10.25
-11.84
-13.24
-14.38
-15.38
-16.54
-18.15
-20.36
-23.02
-25.68
-27.71
-28.48
-27.56
-24.84
-20.58
-15.31
-9.68
-4.22
0.65
4.72
7.92
10.27
11.83
12.71
13.08
13.15
13.09
12.99
12.86
12.66
12.38
12.12
12.05
12.31
12.93
13.79
14.68
15.37
15.73
15.71
15.37
14.77
13.98
13.01
11.85
10.57
9.25
8.01
6.91
5.99
5.19
4.43
3.60
2.53
1.11
-0.72
-2.86
-5.10
-7.14
-8.70
-9.73
-10.34
-10.88
-11.73
-13.16
-15.24
-17.79
-20.47
-22.83
-24.42
-24.81
-23.72
-21.05
-16.95
-11.86
-6.37
-1.16
3.23
6.45
8.48
9.54
9.97
10.10
10.15
10.21
10.24
10.22
10.19
10.26
10.51
11.00
11.63
12.21
12.57
12.64
12.47
12.20
11.96
11.78
11.53
11.02
10.08
8.68
6.98
5.24
3.71
2.58
1.83
1.31
0.79
0.07
-0.95
-2.25
-3.74
-5.26
-6.69
-7.93
-8.96
-9.82
-10.67
-11.73
-13.29
-15.47
-18.16
-20.86
-22.82
-23.22
-21.54
-17.78
-12.50
-6.62
-1.09
3.47
6.85
9.20
10.83
11.94
12.62
12.86
12.74
12.43
12.18
12.18
12.41
12.73
12.95
13.04
13.10
13.28
13.62
