1552673598.00
64.000000
-0.00
-0.00
-0.00
-0.00
-0.00
-0.00
-0.00
-0.00
-0.00
-0.00
0.00
0.01
0.01
-0.00
-0.03
-0.05
-0.05
0.00
0.13
0.36
0.66
1.01
1.37
1.72
2.06
2.40
2.79
3.24
3.80
4.42
5.06
5.66
6.20
6.68
7.15
7.68
8.31
9.14
10.09
11.04
11.88
12.56
13.14
13.76
14.65
15.96
17.91
20.32
22.90
25.38
27.58
29.57
31.68
34.32
37.81
42.54
48.15
54.10
59.83
64.97
69.58
74.14
79.34
85.71
93.76
103.00
112.62
121.73
129.77
136.75
143.30
150.75
157.77
166.64
177.95
191.79
206.97
220.57
228.25
225.36
208.53
176.87
132.76
80.05
23.07
-34.94
-92.44
-149.16
-205.23
-260.37
-313.74
-363.87
-409.83
-450.91
-486.50
-515.74
-537.23
-549.22
-549.96
-538.37
-514.21
-478.67
-433.88
-382.45
-327.02
-269.84
-212.63
-156.66
-102.95
-52.37
-5.90
35.58
71.43
101.35
125.50
144.38
158.69
169.15
176.37
180.75
182.57
182.07
179.51
175.23
169.65
163.18
156.15
148.81
141.30
133.69
126.02
118.33
110.69
103.16
95.80
88.68
81.83
75.25
68.95
62.95
57.25
51.86
46.78
42.03
37.59
33.45
29.61
26.07
22.81
19.83
17.11
14.67
12.48
10.54
8.83
7.35
6.07
4.97
4.05
3.27
2.62
2.09
1.65
1.30
1.01
0.79
0.61
0.47
0.37
0.29
0.23
0.19
0.17
0.16
0.15
0.16
0.18
0.20
0.24
0.27
0.31
0.35
0.39
0.43
0.48
0.53
0.60
0.67
0.74
0.78
0.80
0.78
0.75
0.72
0.73
0.79
0.90
1.04
1.19
1.31
1.41
1.50
1.61
1.78
2.02
2.35
2.71
3.06
3.35
3.56
3.75
3.98
4.33
4.85
5.54
6.29
6.95
7.41
7.64
7.73
7.86
8.23
9.00
10.11
11.36
12.43
13.07
13.16
12.88
12.51
12.39
12.65
13.13
13.33
12.60
10.43
6.64
1.49
-4.39
-10.38
-15.93
-20.89
-25.44
-29.93
-34.66
-39.89
-45.79
-52.33
-58.97
-64.43
-66.79
-64.03
-55.06
-40.48
-22.72
-5.24
8.77
17.64
21.55
22.09
21.09
19.79
18.50
16.96
14.98
12.79
10.97
10.01
9.98
10.44
10.78
10.48
9.45
8.00
6.60
5.63
5.17
5.00
4.77
4.24
3.41
2.53
2.03
2.29
3.43
5.35
7.67
9.90
11.58
12.35
12.11
10.97
9.20
7.19
5.31
3.83
2.92
2.58
2.69
3.05
3.46
3.79
3.98
4.01
3.97
3.94
3.98
4.05
4.02
3.75
3.09
2.02
0.64
-0.85
-2.27
-3.49
-4.54
-5.56
-6.70
-8.11
-9.78
-11.61
-13.34
-14.74
-15.59
-15.73
-15.04
-13.43
-10.85
-7.33
-3.15
1.29
5.41
8.71
10.89
11.94
12.07
11.57
10.68
9.60
8.40
7.23
6.23
5.57
5.37
5.59
6.10
6.71
7.22
7.50
7.47
7.07
6.33
5.28
3.99
2.50
0.85
-0.97
-2.91
-4.86
-6.70
-8.33
-9.79
-11.25
-12.99
-15.21
-17.85
-20.49
-22.39
-22.81
-21.24
-17.72
-12.78
-7.26
-1.98
2.48
5.88
8.27
9.81
10.65
10.92
10.73
10.25
9.69
9.20
8.88
8.72
8.68
8.71
8.81
8.99
9.23
9.43
9.47
9.22
8.66
7.82
6.77
5.60
4.37
3.09
1.84
0.63
-0.45
-1.44
-2.36
-3.35
-4.52
-6.05
-7.99
-10.31
-12.84
-15.38
-17.74
-19.81
-21.52
-22.81
-23.49
-23.23
-21.70
-18.71
-14.41
-9.33
-4.18
0.32
3.71
5.91
7.14
7.77
8.15
8.51
9.03
9.74
10.69
11.87
13.22
14.57
15.72
16.45
16.66
16.36
15.68
14.81
13.94
13.16
12.49
11.88
11.27
10.60
9.82
8.88
7.72
6.34
4.76
3.06
1.36
-0.26
-1.78
-3.23
-4.64
-6.01
-7.29
-8.46
-9.55
-10.73
-12.16
-13.97
-16.09
-18.25
-19.92
-20.53
-19.60
-16.95
-12.83
-7.84
-2.79
1.64
5.03
7.40
9.00
10.17
11.08
11.66
11.78
11.40
10.64
9.84
9.34
9.38
9.94
10.85
11.82
12.62
13.13
13.34
13.29
13.01
12.48
11.67
10.61
9.37
8.10
6.93
5.93
5.04
4.15
3.12
1.86
0.36
-1.34
-3.16
-5.02
-6.85
-8.59
-10.19
-11.69
-13.20
-14.78
-16.43
-17.92
-18.89
-18.87
-17.57
-14.97
-11.33
-7.14
-2.92
0.90
4.03
6.33
7.79
8.43
8.37
7.79
6.90
6.00
5.38
5.30
5.89
7.15
8.83
10.60
12.06
12.93
13.11
12.68
11.83
10.75
9.55
8.31
7.06
5.85
4.69
3.60
2.51
1.34
-0.01
-1.55
-3.20
-4.79
-6.26
-7.60
-8.96
-10.61
-12.78
-15.60
-18.94
-22.42
-25.50
-27.58
-28.29
-27.48
-25.39
-22.38
-18.91
-15.23
-11.52
-7.83
-4.28
-1.10
1.42
3.11
3.94
4.16
3.98
3.65
3.29
3.06
3.16
3.87
5.39
7.69
10.31
12.56
13.74
13.45
11.80
9.34
6.78
4.65
3.05
1.77
0.46
-1.03
-2.53
-3.59
-3.83
-3.12
-1.99
-1.27
-1.79
-3.97
-7.59
-11.90
-16.08
-19.65
-22.77
-26.01
-29.90
-34.40
-38.77
-41.80
-42.47
-40.46
-36.48
-31.93
-28.31
-26.51
-26.57
-27.83
-29.45
-30.85
-31.99
-33.20
-34.69
-36.31
-37.49
-37.42
-35.43
-31.20
-24.90
-17.06
-8.25
0.99
10.26
19.31
27.92
35.89
42.95
48.80
53.15
55.83
56.86
56.42
54.88
52.55
49.68
46.31
42.46
38.18
33.66
29.24
25.22
21.81
18.95
16.40
13.81
10.86
7.40
3.48
-0.68
-4.68
-8.00
-10.16
-10.77
-9.68
-7.04
-3.29
0.91
4.89
8.15
10.45
11.81
12.43
12.52
12.24
11.68
10.92
10.10
9.39
9.00
8.98
9.29
9.73
10.11
10.31
10.36
10.41
10.58
10.86
11.11
11.08
10.57
9.55
8.12
6.50
4.86
3.26
1.70
0.12
-1.43
-2.79
-3.76
-4.21
-4.21
-4.07
-4.18
-4.89
-6.35
-8.48
-11.02
-13.70
-16.24
-18.40
-19.94
-20.58
-20.07
-18.32
-15.43
-11.77
-7.83
-4.09
-0.89
1.59
3.39
4.58
5.31
5.69
5.80
5.71
5.47
5.19
5.00
5.07
5.54
6.40
7.47
8.43
9.01
9.07
8.69
8.11
7.59
7.22
6.86
6.28
5.23
3.68
1.77
-0.23
-2.04
-3.57
-4.91
-6.27
-7.82
-9.62
-11.59
-13.58
-15.43
-17.02
-18.23
-18.92
-18.86
-17.85
-15.80
-12.79
-9.13
-5.28
-1.71
1.21
3.28
4.48
4.87
4.65
4.02
3.26
2.64
2.35
2.46
2.96
3.73
4.64
5.56
6.35
6.91
7.12
6.92
6.32
5.36
4.18
2.93
1.71
0.57
-0.49
-1.52
-2.58
-3.68
-4.81
-5.92
-6.98
-7.99
-9.05
-10.33
-11.99
-14.13
-16.61
-19.16
-21.30
-22.55
-22.49
-20.94
-17.97
-13.88
-9.12
-4.22
0.38
4.30
7.30
9.27
10.20
10.24
9.64
8.77
7.97
7.49
7.38
7.56
7.86
8.14
8.36
8.54
8.75
8.93
8.97
8.70
8.02
6.97
5.70
4.41
3.23
2.23
1.34
0.48
-0.36
-1.17
-1.84
-2.33
-2.69
-3.07
-3.69
-4.75
-6.34
-8.39
-10.75
-13.18
-15.43
-17.30
-18.54
-18.93
-18.20
-16.22
-13.08
-9.14
-4.96
-1.11
1.99
4.26
5.82
6.92
7.67
8.05
7.90
7.18
6.08
5.05
4.60
5.09
6.49
8.45
10.41
11.89
12.61
12.60
12.02
11.09
9.87
8.39
6.69
4.98
3.58
2.84
2.85
3.36
3.75
3.30
1.57
-1.43
-5.14
-8.74
-11.52
-13.21
-14.12
-14.86
-15.96
-17.51
-19.10
-20.02
-19.62
-17.68
-14.47
-10.65
-6.80
-3.31
-0.24
2.47
4.78
6.50
7.29
7.03
5.86
4.28
2.87
2.08
2.04
2.59
3.41
4.26
5.06
5.82
6.56
7.20
7.56
7.46
6.80
5.61
4.05
2.38
0.78
-0.64
-1.83
-2.83
-3.70
-4.53
-5.45
-6.59
-8.09
-10.03
-12.34
-14.78
-16.95
-18.41
-18.78
-17.90
-15.82
-12.83
-9.25
-5.37
-1.29
2.91
7.19
11.36
15.09
17.98
19.79
20.49
20.34
19.73
19.07
18.62
18.44
18.44
18.53
18.58
18.57
18.51
18.38
18.17
17.81
17.24
16.36
15.04
13.21
10.88
8.16
5.26
2.39
-0.31
-2.84
-5.18
-7.29
-9.05
-10.32
-11.07
-11.46
-11.83
-12.53
-13.79
-15.53
-17.42
-18.99
-19.76
-19.41
-17.78
-14.91
-10.99
-6.40
-1.61
2.80
6.32
8.63
9.64
9.54
8.72
7.64
6.67
6.01
5.67
5.51
5.38
5.22
5.11
5.18
5.53
6.07
6.57
6.74
6.40
5.57
4.50
3.46
2.68
2.20
1.91
1.69
1.45
1.20
0.94
0.53
-0.23
-1.55
-3.39
-5.45
-7.27
-8.40
-8.84
-9.01
-9.65
-11.38
-14.27
-17.75
-20.73
-22.14
-21.29
-18.23
-13.60
-8.28
-3.11
1.38
4.97
7.70
9.67
10.91
11.46
11.37
10.80
10.01
9.36
9.15
9.58
10.44
11.37
11.94
11.91
11.36
10.69
10.30
10.35
10.51
10.25
9.09
7.00
4.45
2.21
0.88
0.53
0.63
0.40
-0.73
-2.76
-5.15
-7.14
-8.21
-8.37
-8.22
-8.55
-9.90
-12.30
-15.28
-18.09
-20.06
-20.76
-20.16
-18.43
-15.80
-12.47
-8.61
-4.50
-0.47
3.08
5.77
7.37
7.88
7.52
6.64
5.61
4.77
4.39
4.52
5.13
5.99
6.83
7.36
7.45
7.10
6.50
5.82
5.16
4.50
3.71
2.69
1.45
0.12
-1.14
-2.15
-2.85
-3.30
-3.62
-3.97
-4.43
-5.01
-5.65
-6.28
-6.94
-7.79
-9.04
-10.81
-12.96
-15.00
-16.27
-16.12
-14.29
-10.95
-6.64
-2.05
2.31
6.17
9.51
12.37
14.75
16.51
17.42
17.32
16.21
14.31
12.01
9.76
7.94
6.76
6.28
6.38
6.89
7.61
8.34
8.88
9.03
8.68
7.80
6.52
5.05
3.64
2.48
1.66
1.14
0.81
0.52
0.12
-0.51
-1.41
-2.52
-3.78
-5.15
-6.68
-8.54
-10.87
-13.74
-16.92
-19.90
-21.99
-22.56
-21.23
-18.03
-13.38
-7.90
-2.29
2.90
7.30
10.68
13.01
14.31
14.74
14.51
13.87
13.09
12.36
11.81
11.50
11.42
11.52
11.72
11.90
11.97
11.88
11.62
11.24
10.70
9.96
8.91
7.50
5.82
4.08
2.54
1.40
0.65
0.06
-0.66
-1.75
-3.21
-4.83
-6.32
-7.51
-8.42
-9.26
-10.32
-11.78
-13.67
-15.87
-18.22
-20.57
-22.77
-24.58
-25.61
-25.39
-23.52
-19.93
-14.98
-9.45
-4.22
-0.00
2.88
4.55
5.40
5.81
6.00
5.96
5.60
4.89
3.99
3.20
2.84
3.10
3.94
5.08
6.17
6.87
7.06
6.87
6.58
6.47
6.65
7.01
7.25
7.08
6.36
5.22
3.99
2.98
2.27
1.71
0.96
-0.26
-2.00
-4.03
-5.94
-7.38
-8.31
-9.02
-9.95
-11.52
-13.79
-16.43
-18.85
-20.38
-20.63
-19.53
-17.33
-14.41
-11.10
-7.63
-4.11
-0.69
2.42
4.92
6.58
7.30
7.22
6.65
5.97
5.52
5.50
5.95
6.81
7.96
9.25
10.55
11.76
12.82
13.65
14.22
14.49
14.46
14.18
13.73
13.14
12.42
11.49
10.26
8.72
6.95
5.16
3.52
2.17
1.07
0.06
-1.10
-2.56
-4.34
-6.34
-8.33
-10.12
-11.66
-13.05
-14.52
-16.22
-18.07
-19.66
-20.38
-19.80
-17.82
-14.73
-11.13
-7.50
-4.07
-0.84
2.28
5.14
7.39
8.66
8.78
8.00
6.91
6.12
5.94
6.24
6.60
6.66
6.32
5.81
5.52
5.67
6.18
6.63
6.53
5.63
4.06
2.23
0.68
-0.28
-0.62
-0.65
-0.76
-1.23
-2.09
-3.08
-3.84
-4.07
-3.72
-3.12
-2.81
-3.33
-4.93
-7.45
-10.26
-12.52
-13.39
-12.45
-9.70
-5.61
-0.81
4.04
8.52
12.45
15.79
18.49
20.39
21.26
20.91
19.37
17.03
14.47
12.36
11.13
10.88
11.35
12.05
12.52
12.43
11.67
10.33
8.60
6.70
4.82
3.07
1.43
-0.13
-1.65
-3.03
-4.06
-4.52
-4.29
-3.47
-2.28
-0.97
0.38
1.90
3.82
6.38
9.64
13.57
18.16
23.55
29.94
37.49
46.02
54.96
63.48
70.78
76.48
80.68
83.88
86.66
89.40
92.00
93.87
93.95
90.85
83.12
69.58
49.92
25.13
-2.38
-29.21
-51.93
-68.06
-76.79
-78.84
-75.84
-69.37
-60.44
-49.51
-36.94
-23.52
-10.47
0.86
9.69
16.06
20.72
24.56
28.13
31.46
34.35
36.59
38.05
38.45
36.97
32.41
23.57
10.04
-7.21
-25.98
-43.49
-57.41
-66.71
-71.73
-73.67
-73.72
-72.48
-69.92
-65.76
-59.83
-52.32
-43.48
-33.42
-21.92
-8.74
5.94
21.21
35.40
46.69
53.64
55.75
53.41
47.77
40.37
33.05
27.43
24.67
24.84
26.69
27.89
25.89
19.00
7.10
-8.44
-25.30
-41.23
-54.69
-65.10
-72.51
-77.34
-80.15
-81.87
-83.52
-86.03
-89.82
-94.43
-98.60
-100.80
-99.90
-96.03
-90.40
-84.85
-81.00
-79.59
-80.17
-81.63
-82.65
-82.73
-81.81
-80.16
-77.81
-74.28
-68.95
-61.71
-53.34
-45.88
-41.36
-40.68
-42.62
-43.96
-40.58
-29.50
-10.24
14.45
40.02
62.05
78.07
88.32
94.88
99.98
104.63
107.86
107.81
103.27
94.84
85.00
76.95
72.91
73.15
75.70
77.71
76.87
72.51
65.62
58.01
51.23
45.99
41.75
37.57
32.65
26.86
20.68
14.93
10.28
7.04
4.81
2.85
0.26
-3.58
-8.65
-14.19
-18.79
-20.77
-18.97
-13.20
-4.48
5.19
13.61
19.10
21.14
20.40
18.27
16.08
14.51
13.35
11.89
9.46
6.08
2.53
0.03
-0.45
1.29
4.53
8.00
10.49
11.40
10.85
9.35
7.29
4.59
0.71
-4.95
-12.52
-21.35
-30.13
-37.39
-42.20
-44.54
-45.27
-45.74
-47.13
-49.96
-53.90
-58.00
-61.12
-62.31
-61.07
-57.29
-51.16
-43.03
-33.37
-22.95
-12.80
-4.16
1.76
4.17
2.94
-1.30
-7.24
-13.35
-18.35
-21.52
-22.93
-23.11
-22.76
-22.37
-21.94
-21.24
-20.01
-18.28
-16.50
-15.35
-15.39
-16.78
-19.09
-21.61
-23.59
-24.57
-24.54
-23.82
-22.79
-21.69
-20.57
-19.45
-18.44
-17.83
-18.02
-19.22
-21.30
-23.79
-25.93
-27.07
-26.93
-25.67
-23.89
-22.34
-21.63
-21.99
-23.05
-23.98
-23.84
-21.96
-18.27
-13.31
-7.91
-2.68
2.35
7.64
13.86
21.32
29.69
38.23
46.22
53.49
60.53
68.03
76.30
84.81
92.32
97.67
100.45
101.45
102.29
104.47
108.38
112.93
115.97
115.27
109.67
99.54
86.62
73.17
61.21
52.06
46.25
43.57
43.13
43.53
43.37
41.76
38.93
36.18
35.20
37.13
41.78
47.76
53.26
56.88
58.15
57.27
54.48
49.60
42.19
32.01
19.56
6.00
-7.30
-19.21
-29.07
-36.49
-41.18
-42.94
-41.75
-38.11
-33.05
-27.79
-23.52
-21.06
-20.76
-22.56
-25.94
-30.08
-33.91
-36.23
-36.19
-33.47
-28.61
-22.85
-18.00
-15.98
-18.37
-25.91
-38.12
-53.25
-68.72
-81.90
-90.91
-95.36
-96.39
-96.12
-96.94
-100.53
-107.36
-116.57
-126.35
-134.80
-140.71
-143.91
-145.20
-145.62
-145.65
-144.48
-139.90
-129.16
-110.17
-82.74
-49.18
-13.58
19.48
46.61
66.35
79.05
85.99
88.29
86.50
80.85
71.88
60.95
50.34
42.58
39.66
42.32
49.61
58.99
66.85
69.46
64.29
51.09
32.43
13.12
-1.44
-7.12
-2.67
10.02
26.71
42.53
53.54
57.72
55.00
46.86
35.29
22.28
9.22
-2.94
-13.49
-21.82
-27.37
-29.82
-29.53
-27.45
-25.12
-23.99
-24.93
-27.80
-31.64
-35.07
-37.05
-37.31
-36.43
-35.47
-35.42
-36.64
-38.75
-40.66
-41.11
-39.01
-34.07
-26.86
-18.66
-11.01
-5.20
-1.81
-0.69
-0.92
-1.35
-0.87
1.28
5.47
11.47
18.71
26.27
33.31
39.09
43.32
46.04
47.50
47.98
47.76
47.18
46.77
47.18
48.95
52.20
56.44
60.58
63.42
63.98
61.96
57.68
51.77
44.74
36.70
27.31
16.12
2.95
-11.81
-27.02
-41.08
-52.44
-60.02
-63.58
-63.76
-61.73
-58.75
-55.73
-53.15
-51.10
-49.56
-48.64
-48.64
-49.88
-52.49
-56.11
-59.94
-62.89
-63.84
-61.99
-56.93
-48.50
-36.59
-20.94
-1.43
21.47
46.23
70.13
89.96
103.00
108.17
106.44
100.22
92.30
84.63
77.80
71.57
65.71
60.73
57.96
58.52
62.51
68.52
74.07
76.66
74.97
69.31
61.43
53.53
47.25
43.08
40.24
37.32
32.98
26.61
18.44
9.18
-0.53
-10.56
-21.28
-33.03
-45.52
-57.51
-67.18
-72.97
-74.63
-73.49
-72.05
-72.69
-76.52
-82.70
-88.86
-92.27
-91.12
-85.29
-76.22
-66.10
-56.68
-48.41
-40.61
-31.76
-20.73
-7.45
6.92
20.57
31.76
39.42
43.23
43.25
39.81
33.22
24.10
13.43
2.61
-6.81
-13.66
-17.42
-18.36
-17.18
-14.81
-12.02
-9.39
-7.18
-5.64
-4.87
-4.91
-5.81
-7.41
-9.38
-11.31
-12.69
-13.74
-14.93
-16.88
-19.84
-23.30
-26.18
-27.40
-26.57
-24.51
-22.63
-22.01
-22.63
-23.18
-21.89
-17.75
-11.31
-4.89
-1.27
-2.31
-7.87
-15.71
-22.61
-25.78
-24.05
-18.55
-11.62
-5.51
-1.14
2.38
7.02
14.43
24.88
36.18
44.75
46.90
40.12
24.00
0.25
-28.01
-57.06
-83.68
-105.30
-120.07
-126.76
-124.83
-114.52
-97.19
-74.94
-50.68
-27.30
-7.11
8.50
19.30
25.92
29.56
31.65
33.35
35.44
38.17
41.24
43.85
45.05
44.11
41.08
36.45
31.06
25.65
20.53
15.69
11.01
6.56
2.69
-0.19
-1.85
-2.43
-2.37
-2.24
-2.44
-3.12
-4.16
-5.33
-6.48
-7.67
-9.16
-11.40
-14.83
-19.66
-25.62
-31.96
-37.59
-41.45
-42.96
-42.27
-40.08
-37.36
-34.89
-33.17
-32.57
-33.53
-36.59
-42.06
-49.59
-57.94
-65.17
-69.35
-69.37
-65.34
-58.58
-50.77
-43.31
-36.77
-30.87
-25.03
-18.97
-12.98
-7.92
-4.79
-4.25
-6.19
-9.57
-12.60
-13.25
-9.77
-1.26
12.03
28.68
46.48
62.94
75.89
83.97
86.83
85.01
79.67
72.20
63.92
55.88
48.76
42.72
37.45
32.27
26.37
19.16
10.63
1.55
-6.67
-12.41
-14.44
-12.39
-6.90
0.64
8.61
15.87
21.93
26.95
31.43
35.64
39.56
42.86
45.20
46.59
47.39
48.22
49.60
51.65
54.11
56.47
58.19
58.97
58.67
57.32
54.94
51.52
47.11
41.89
36.23
30.64
25.57
21.32
17.90
15.08
12.48
9.77
6.74
3.52
0.42
-2.27
-4.46
-6.50
-8.98
-12.45
-16.95
-21.83
-25.81
-27.49
-25.99
-21.26
-14.12
-5.84
2.41
10.01
16.91
23.30
29.33
34.81
39.37
42.68
44.78
46.17
47.52
49.37
51.81
54.42
56.48
57.44
57.18
56.09
54.83
53.88
53.28
52.58
51.14
48.48
44.61
40.00
35.30
31.08
27.53
24.46
21.50
18.30
14.80
11.21
7.88
5.07
2.84
0.95
-0.93
-3.10
-5.70
-8.69
-12.02
-15.66
-19.61
-23.73
-27.61
-30.51
-31.56
-30.00
-25.58
-18.71
-10.35
-1.69
6.22
12.78
17.81
21.50
24.14
25.92
26.92
27.19
26.83
26.11
25.45
25.28
25.80
26.93
28.28
29.32
29.62
29.02
27.76
26.31
25.07
24.13
23.18
21.65
19.03
15.21
10.67
6.17
2.56
0.24
-0.97
-1.64
-2.44
-3.78
-5.75
-8.41
-11.78
-15.89
-20.53
-25.02
-28.20
-28.90
-26.38
-20.89
-13.52
-5.79
1.08
6.59
10.99
14.82
18.43
21.61
23.81
24.53
23.78
22.12
20.48
19.67
20.00
20.98
21.78
21.67
20.45
18.67
17.24
16.88
17.73
18.98
19.48
18.33
15.42
11.49
7.81
5.33
4.28
3.94
3.23
1.36
-1.70
-5.25
-8.36
-10.50
-11.80
-13.12
-15.45
-19.27
-24.27
-29.37
-33.15
-34.42
-32.57
-27.84
-21.10
-13.57
-6.43
-0.52
3.83
6.72
8.59
9.87
10.83
11.51
11.81
11.63
11.06
10.40
10.09
10.43
11.40
12.68
13.73
14.10
13.65
12.57
11.29
10.18
9.34
8.58
7.50
5.80
3.46
0.77
-1.80
-3.82
-5.16
-5.99
-6.70
-7.66
-9.03
-10.68
-12.24
-13.37
-13.90
-14.00
-14.12
-14.79
-16.38
-18.86
-21.75
-24.23
-25.39
-24.58
-21.55
-16.60
-10.35
-3.62
2.89
8.75
13.84
18.29
22.33
26.04
29.40
32.25
34.48
36.17
37.57
39.05
40.89
43.14
45.63
48.08
50.29
52.23
53.99
55.61
57.00
57.93
58.16
57.67
56.72
55.78
55.30
55.48
56.11
56.59
56.10
53.81
49.19
42.14
32.96
22.26
10.82
-0.63
-11.50
-21.40
-30.22
-38.14
-45.65
-53.40
-61.98
-71.67
-82.14
-92.50
-101.47
-107.82
-110.81
-110.47
-107.56
-103.23
-98.62
-94.37
-90.47
-86.48
-81.84
-76.25
-69.82
-62.94
-55.90
-48.76
-41.28
-33.32
-25.00
-16.73
-9.02
-2.12
4.23
10.55
17.21
23.95
29.97
34.35
36.63
37.28
37.50
38.69
41.61
45.93
50.38
53.33
53.54
50.62
45.05
37.71
29.55
20.94
11.91
2.23
-8.19
-19.13
-30.05
-40.39
-49.79
-58.51
-66.98
-75.42
-83.39
-89.69
-92.74
-91.43
-85.70
-77.05
-67.78
-60.06
-54.94
-51.98
-49.71
-46.66
-42.24
-37.17
-32.86
-30.43
-29.89
-30.02
-29.01
-25.51
-19.31
-11.71
-4.62
0.37
2.76
3.31
3.42
4.28
6.32
8.90
10.98
11.69
10.86
9.02
7.07
5.72
5.31
5.56
5.97
6.05
5.47
4.24
2.48
0.36
-1.94
-4.29
-6.58
-8.65
-10.29
-11.21
-11.10
-9.72
-6.93
-2.90
1.90
6.75
10.85
13.58
14.67
14.26
12.86
11.06
9.36
8.00
6.95
6.10
5.40
4.94
4.95
5.56
6.76
8.27
9.66
10.51
10.60
9.99
8.96
7.84
6.87
6.04
5.15
3.95
2.32
0.35
-1.62
-3.22
-4.24
-4.82
-5.38
-6.41
-8.29
-11.03
-14.23
-17.23
-19.34
-20.04
-19.11
-16.65
-13.00
-8.61
-3.95
0.54
4.48
7.57
9.63
10.60
10.57
9.83
8.79
7.85
7.32
7.28
7.59
8.02
8.37
8.60
8.87
9.37
10.18
11.16
11.95
12.18
11.65
10.45
8.94
7.55
6.51
5.79
5.04
3.88
2.09
-0.21
-2.64
-4.70
-6.04
-6.68
-6.98
-7.46
-8.60
-10.65
-13.48
-16.72
-19.81
-22.18
-23.39
-23.11
-21.27
-17.99
-13.62
-8.67
-3.71
0.80
4.47
7.14
8.73
9.31
9.12
8.46
7.70
7.11
6.76
6.56
6.38
6.16
6.05
6.30
7.10
8.40
9.90
11.13
11.66
11.31
10.23
8.76
7.32
6.14
5.18
4.22
2.99
1.39
-0.44
-2.21
-3.67
-4.79
-5.77
-6.93
-8.48
-10.36
-12.28
-13.92
-15.20
-16.34
-17.75
-19.70
-22.08
-24.32
-25.51
-24.84
-22.01
-17.31
-11.63
-6.03
-1.30
2.29
5.03
7.38
9.67
11.76
13.21
13.52
12.52
10.62
8.57
7.17
6.86
7.58
8.89
10.28
11.39
12.08
12.45
12.59
12.53
12.18
11.45
10.30
8.79
7.09
5.43
3.96
2.76
1.76
0.81
-0.27
-1.61
-3.24
-5.14
-7.28
-9.65
-12.23
-14.92
-17.49
-19.56
-20.67
-20.44
-18.72
-15.64
-11.56
-7.00
-2.45
1.65
5.02
7.51
9.07
9.73
9.60
8.79
7.49
5.94
4.46
3.35
2.84
2.98
3.66
4.58
5.39
5.80
5.77
5.42
4.96
4.50
3.93
2.91
1.14
-1.50
-4.64
-7.72
-10.07
-11.33
-11.59
-11.34
-11.12
-11.29
-11.90
-12.95
-14.43
-16.40
-18.89
-21.58
-23.77
-24.60
-23.41
-20.19
-15.52
-10.35
-5.48
-1.28
2.39
5.81
9.11
11.95
13.75
14.08
12.99
11.12
9.44
8.76
9.35
10.69
11.89
12.23
11.58
10.52
10.00
10.69
12.59
14.82
16.15
15.70
13.41
10.07
6.89
4.82
4.13
4.23
4.11
2.97
0.60
-2.58
-5.72
-8.09
-9.32
-9.62
-9.58
-9.90
-11.08
-13.32
-16.46
-20.09
-23.60
-26.44
-28.08
-28.21
-26.72
-23.68
-19.37
-14.15
-8.45
-2.76
2.44
6.75
9.88
11.74
12.46
12.36
11.86
11.36
11.10
11.18
11.55
12.05
12.54
12.96
13.34
13.81
14.47
15.31
16.14
16.62
16.43
15.35
13.50
11.22
9.01
7.25
6.03
5.18
4.33
3.16
1.56
-0.29
-2.08
-3.57
-4.68
-5.54
-6.37
-7.42
-8.80
-10.57
-12.73
-15.29
-18.24
-21.48
-24.75
-27.55
-29.22
-29.08
-26.81
-22.52
-16.86
-10.81
-5.35
-1.08
1.89
3.96
5.62
7.23
8.76
9.93
10.40
10.12
9.41
8.84
8.97
10.00
11.69
13.50
14.88
15.55
15.62
15.47
15.45
15.68
15.94
15.85
15.09
13.60
11.67
9.79
8.40
7.67
7.42
7.21
6.58
5.29
3.44
1.42
-0.38
-1.73
-2.76
-3.80
-5.19
-7.02
-9.10
-11.09
-12.80
-14.36
-16.16
-18.56
-21.51
-24.35
-25.96
-25.28
-21.81
-15.92
-8.75
-1.70
4.19
8.50
11.48
13.41
14.49
14.59
13.57
11.66
9.59
8.37
8.71
10.51
12.89
14.71
15.22
14.52
13.50
13.21
14.23
16.15
17.93
18.45
17.21
14.56
11.49
9.05
7.87
7.61
7.50
6.64
4.62
1.70
-1.31
-3.61
-4.73
-5.11
-5.58
-6.97
-9.54
-12.79
-15.74
-17.55
-18.05
-18.03
-18.69
-20.81
-24.09
-27.13
-28.01
-25.38
-19.18
-10.85
-2.62
3.62
7.10
8.36
8.64
9.08
10.13
11.34
11.96
11.47
10.02
8.27
7.10
7.02
8.12
9.90
11.67
12.86
13.13
12.49
11.17
9.53
7.93
6.58
5.57
4.75
3.87
2.68
1.06
-0.93
-2.98
-4.77
-6.06
-6.91
-7.60
-8.55
-10.07
-12.25
-14.88
-17.59
-20.06
-22.12
-23.65
-24.56
-24.54
-23.22
-20.23
-15.49
-9.41
-2.79
3.36
8.19
11.24
12.59
12.67
12.12
11.47
11.02
10.84
10.86
10.97
11.17
11.54
12.18
13.11
14.17
15.05
15.50
15.37
14.79
14.03
13.35
12.87
12.44
11.78
10.67
9.04
7.07
5.07
3.28
1.83
0.60
-0.62
-2.03
-3.72
-5.60
-7.53
-9.44
-11.40
-13.70
-16.66
-20.41
-24.68
-28.80
-31.76
-32.66
-30.94
-26.67
-20.48
-13.35
-6.30
-0.10
4.89
8.63
11.28
13.07
14.09
14.46
14.24
13.66
13.06
12.81
13.14
13.99
15.06
15.88
16.15
15.86
15.35
15.07
15.31
16.01
16.72
16.84
15.94
13.98
11.38
8.77
6.68
5.34
4.58
3.95
3.01
1.57
-0.31
-2.35
-4.29
-6.01
-7.57
-9.17
-10.95
-12.95
-15.07
-17.21
-19.29
-21.34
-23.32
-25.07
-26.14
-25.98
-24.03
-20.13
-14.56
-8.09
-1.74
3.62
7.42
9.61
10.56
10.79
10.75
10.65
10.45
10.02
9.37
8.71
8.42
8.83
10.01
11.65
13.23
14.20
14.29
13.60
12.50
11.40
10.48
9.68
8.75
7.44
5.67
3.59
1.50
-0.31
-1.68
-2.64
-3.39
-4.20
-5.35
-6.99
-9.11
-11.64
-14.37
-17.13
-19.64
-21.62
-22.65
-22.28
-20.15
-16.17
-10.72
-4.57
1.28
5.98
9.07
10.59
10.97
10.79
10.46
10.12
9.73
9.23
8.69
8.34
8.50
9.32
10.70
12.28
13.54
14.06
13.69
12.58
11.17
9.91
9.01
8.38
7.70
6.56
4.79
2.55
0.20
-1.78
-3.12
-3.92
-4.49
-5.18
-6.22
-7.62
-9.38
-11.52
-14.20
-17.51
-21.34
-25.19
-28.28
-29.80
-29.25
-26.60
-22.29
-17.01
-11.38
-5.85
-0.63
4.15
8.30
11.56
13.69
14.56
14.31
13.32
12.10
11.23
10.94
11.21
11.77
12.28
12.55
12.64
12.79
13.27
14.00
14.63
14.68
13.82
12.17
10.29
8.81
8.16
8.11
8.03
7.25
5.48
3.04
0.75
-0.69
-1.05
-0.87
-1.07
-2.40
-5.02
-8.36
-11.48
-13.64
-14.72
-15.36
-16.42
-18.43
-21.15
-23.58
-24.45
-22.94
-18.99
-13.41
-7.38
-1.98
2.26
5.32
7.49
9.04
10.09
10.58
10.45
9.79
8.90
8.09
7.65
7.70
8.19
8.98
9.88
10.71
11.32
11.57
11.39
10.78
9.87
8.83
7.87
7.09
6.43
5.74
4.87
3.71
2.33
0.87
-0.48
-1.64
-2.62
-3.59
-4.73
-6.18
-7.97
-9.95
-11.97
-13.90
-15.75
-17.63
-19.60
-21.55
-23.09
-23.58
-22.42
-19.29
-14.43
-8.58
-2.76
2.17
5.78
8.13
9.60
10.54
11.06
11.05
10.30
8.88
7.13
5.68
5.08
5.53
6.79
8.27
9.37
9.76
9.45
8.73
7.92
7.18
6.46
5.59
4.39
2.86
1.13
-0.55
-2.04
-3.30
-4.39
-5.48
-6.65
-7.93
-9.23
-10.46
-11.62
-12.79
-14.18
-15.93
-18.04
-20.30
-22.28
-23.44
-23.34
-21.74
-18.73
-14.64
-9.94
-5.11
-0.49
3.62
7.02
9.50
10.91
11.18
10.44
9.02
7.41
6.11
5.46
5.57
6.27
7.29
8.36
9.31
10.18
11.04
11.92
12.75
13.27
13.20
12.35
10.81
8.92
7.15
5.93
5.37
5.26
5.08
4.29
2.60
0.13
-2.71
-5.33
-7.30
-8.59
-9.48
-10.39
-11.70
-13.52
-15.98
-19.03
-22.55
-26.21
-29.29
-30.74
-29.61
-25.42
-18.77
-11.05
-3.97
1.22
4.28
5.96
7.39
9.36
11.74
13.72
14.42
13.54
11.67
10.04
9.75
11.27
13.91
16.42
17.62
17.11
15.45
13.86
13.41
14.48
16.32
17.59
17.12
14.54
10.59
6.67
4.13
3.58
4.50
5.66
5.87
4.56
2.04
-0.73
-2.77
-3.51
-3.19
-2.51
-2.30
-3.07
-4.85
-7.31
-9.92
-12.21
-13.99
-15.26
-16.04
-16.27
-15.74
-14.15
-11.31
-7.23
-2.30
2.81
7.34
10.73
12.71
13.40
13.14
12.38
11.47
10.60
9.84
9.16
8.53
8.01
7.65
7.59
7.91
8.62
9.61
10.66
11.49
11.84
11.59
10.74
9.44
7.92
6.33
4.70
2.96
1.01
-1.17
-3.45
-5.59
-7.36
-8.67
-9.65
-10.56
-11.64
-12.95
-14.36
-15.62
-16.56
-17.21
-17.79
-18.69
-20.17
-22.24
-24.54
-26.44
-27.25
-26.46
-23.98
-20.13
-15.54
-10.88
-6.69
-3.18
-0.35
1.89
3.51
4.37
4.31
3.31
1.72
0.11
-0.88
-0.86
0.16
1.79
3.50
4.88
5.83
6.55
7.29
8.14
8.91
9.23
8.74
7.36
5.43
3.47
1.97
1.11
0.66
0.19
-0.71
-2.10
-3.70
-5.01
-5.67
-5.69
-5.52
-5.80
-7.06
-9.40
-12.39
-15.25
-17.19
-17.66
-16.53
-14.08
-10.73
-6.91
-2.89
1.15
5.02
8.43
10.92
12.04
11.58
9.74
7.13
4.59
2.87
2.31
2.78
3.83
4.96
5.88
6.65
7.47
8.50
9.63
10.43
10.40
9.21
6.90
3.89
0.79
-1.87
-3.88
-5.37
-6.70
-8.17
-9.95
-11.89
-13.79
-15.46
-16.92
-18.31
-19.76
-21.14
-21.93
-21.47
-19.19
-14.99
-9.38
-3.32
2.11
6.10
8.36
9.10
8.83
8.05
7.09
5.99
4.68
3.17
1.63
0.47
0.14
0.90
2.66
4.93
7.03
8.37
8.72
8.25
7.38
6.48
5.73
5.00
4.05
2.66
0.88
-1.04
-2.78
-4.12
-5.05
-5.84
-6.88
-8.54
-10.95
-13.92
-17.03
-19.81
-21.87
-23.05
-23.30
-22.62
-20.96
-18.20
-14.29
-9.42
-4.00
1.34
6.03
9.67
12.19
13.74
14.53
14.72
14.38
13.52
12.27
10.87
9.78
9.43
10.11
11.76
13.89
15.76
16.67
16.27
14.74
12.64
10.68
9.27
8.36
7.51
6.21
4.24
1.71
-1.10
-3.96
-6.85
-9.86
-13.00
-16.06
-18.74
-20.88
-22.79
-25.10
-28.49
-33.16
-38.52
-43.33
-46.20
-46.21
-43.36
-38.41
-32.49
-26.59
-21.26
-16.55
-12.40
-8.71
-5.79
-3.95
-3.36
-3.72
-4.32
-4.26
-2.88
-0.09
3.45
6.78
9.10
10.28
10.87
11.86
13.97
17.22
20.73
23.25
23.82
22.35
19.62
16.87
15.07
14.46
14.46
14.15
12.85
10.54
7.74
5.18
3.31
2.08
0.99
-0.52
-2.84
-5.97
-9.68
-13.56
-17.18
-20.02
-21.60
-21.42
-19.21
-15.05
-9.43
-3.12
3.02
8.35
12.46
15.23
16.69
16.93
16.09
14.42
12.35
10.42
9.17
8.96
9.82
11.42
13.25
14.79
15.72
16.02
15.90
15.64
15.40
15.15
14.69
13.84
12.52
10.89
9.20
7.68
6.37
5.09
3.55
1.54
-0.96
-3.68
-6.25
-8.41
-10.11
-11.59
-13.22
-15.18
-17.29
-18.98
-19.49
-18.17
-14.89
-10.03
-4.39
1.21
6.18
10.34
13.74
16.50
18.56
19.71
19.69
18.49
16.39
13.97
11.91
10.69
10.48
11.14
12.22
13.28
13.99
14.22
14.05
13.60
12.88
11.78
10.11
7.77
4.88
1.79
-1.08
-3.41
-5.18
-6.57
-7.89
-9.39
-11.14
-13.11
-15.27
-17.69
-20.53
-23.88
-27.53
-30.96
-33.32
-33.73
-31.58
-26.78
-19.89
-11.89
-3.93
3.08
8.64
12.65
15.31
16.85
17.45
17.20
16.20
14.72
13.20
12.14
11.94
12.71
14.29
16.24
18.10
19.54
20.41
20.77
20.61
19.88
18.44
16.23
13.37
10.23
7.28
4.90
3.11
1.58
-0.16
-2.48
-5.39
-8.59
-11.59
-13.92
-15.51
-16.60
-17.75
-19.56
-22.43
-26.22
-30.34
-33.73
-35.53
-35.11
-32.40
-27.72
-21.55
-14.40
-6.70
1.07
8.14
13.71
17.15
18.37
17.93
16.86
16.10
16.13
16.68
17.11
16.96
16.26
15.62
15.87
17.50
20.35
23.47
25.70
26.17
24.80
22.25
19.60
17.71
16.88
16.66
16.22
14.90
12.50
9.43
6.34
3.82
2.11
0.96
-0.11
-1.58
-3.69
-6.43
-9.64
-13.15
-16.82
-20.55
-24.18
-27.36
-29.65
-30.47
-29.34
-25.99
-20.48
-13.38
-5.58
1.85
7.93
12.12
14.37
15.08
14.87
14.35
13.89
13.62
13.46
13.36
13.28
13.30
13.57
14.20
15.19
16.39
17.49
18.13
18.04
17.11
15.51
13.55
11.54
9.64
7.84
6.07
4.25
2.42
0.68
-0.91
-2.36
-3.78
-5.33
-7.05
-8.92
-10.84
-12.74
-14.68
-16.84
-19.42
-22.55
-26.08
-29.55
-32.23
-33.27
-31.99
-28.15
-22.09
-14.66
-6.98
-0.06
5.47
9.46
12.13
13.83
14.85
15.26
15.09
14.38
13.32
12.31
11.76
12.00
13.07
14.74
16.60
18.20
19.23
19.59
19.37
18.74
17.81
16.55
14.87
12.69
10.10
7.39
4.96
3.14
2.02
1.37
0.81
-0.08
-1.50
-3.39
-5.47
-7.49
-9.37
-11.34
-13.73
-16.81
-20.47
-24.14
-26.91
-27.86
-26.44
-22.74
-17.41
-11.41
-5.61
-0.48
3.88
7.55
10.59
12.80
13.90
13.73
12.44
10.59
8.86
7.86
7.80
8.52
9.61
10.66
11.43
11.89
12.11
12.14
11.93
11.33
10.25
8.63
6.56
4.20
1.72
-0.68
-2.90
-4.84
-6.51
-7.95
-9.31
-10.71
-12.29
-14.15
-16.35
-18.82
-21.39
-23.67
-25.12
-25.17
-23.44
-19.92
-15.04
-9.53
-4.16
0.53
4.30
7.19
9.25
10.49
10.77
10.03
8.45
6.49
4.80
3.99
4.33
5.71
7.67
9.62
11.06
11.75
11.70
11.14
10.37
9.62
8.92
8.16
7.06
5.38
3.02
0.14
-2.90
-5.73
-8.04
-9.81
-11.26
-12.71
-14.49
-16.74
-19.40
-22.27
-25.02
-27.27
-28.65
-28.71
-27.12
-23.71
-18.60
-12.24
-5.39
1.11
6.57
10.54
12.96
14.01
14.01
13.28
12.13
10.83
9.63
8.79
8.50
8.90
9.91
11.30
12.70
13.71
14.05
13.69
12.80
11.75
10.86
10.21
9.59
8.60
6.85
4.29
1.28
-1.59
-3.71
-4.83
-5.17
-5.34
-5.97
-7.47
-9.84
-12.84
-16.17
-19.50
-22.54
-24.87
-25.85
-24.84
-21.45
-15.95
-9.24
-2.59
2.89
6.69
9.01
10.47
11.61
12.55
13.03
12.66
11.37
9.56
8.02
7.45
8.16
9.77
11.45
12.42
12.34
11.46
10.46
10.01
10.39
11.20
11.70
11.15
9.27
6.38
3.20
0.46
-1.45
-2.62
-3.51
-4.52
-5.85
-7.42
-9.00
-10.51
-12.05
-13.89
-16.20
-18.86
-21.39
-23.04
-23.16
-21.38
-17.77
-12.85
-7.35
-2.04
2.52
6.01
8.35
9.60
9.93
9.57
8.72
7.65
6.58
5.70
5.12
4.93
5.12
5.68
6.53
7.51
8.44
9.08
9.24
8.82
7.82
6.38
4.72
3.05
1.46
-0.03
-1.52
-3.07
-4.68
-6.27
-7.73
-9.06
-10.36
-11.83
-13.56
-15.41
-16.94
-17.50
-16.58
-13.98
-9.97
-5.22
-0.52
3.52
6.58
8.64
9.86
10.36
10.18
9.30
7.76
5.83
3.93
2.56
2.08
2.57
3.75
5.13
6.23
6.74
6.60
5.96
5.05
4.05
2.99
1.81
0.45
-1.04
-2.51
-3.77
-4.75
-5.58
-6.57
-8.05
-10.17
-12.80
-15.47
-17.59
-18.56
-18.04
-16.00
-12.67
-8.47
-3.84
0.80
5.13
8.82
11.57
13.10
13.27
12.15
10.12
7.76
5.74
4.55
4.35
4.98
6.01
7.02
7.67
7.89
7.80
7.62
7.53
7.57
7.63
7.47
6.86
5.78
4.31
2.71
1.23
-0.07
-1.25
-2.46
-3.78
-5.22
-6.80
-8.61
-10.79
-13.39
-16.18
-18.57
-19.79
-19.19
-16.68
-12.76
-8.32
-4.22
-0.91
1.70
3.97
6.21
8.26
9.67
9.89
8.76
6.64
4.37
2.81
2.55
3.40
4.70
5.68
5.88
5.47
5.04
5.21
6.21
7.51
8.25
7.66
5.56
2.48
-0.59
-2.77
-3.72
-3.84
-3.93
-4.76
-6.62
-9.20
-11.89
-14.09
-15.51
-16.40
-17.15
-17.99
-18.77
-18.89
-17.63
-14.52
-9.69
-3.93
1.60
5.88
8.36
9.10
8.61
7.50
6.25
5.02
3.83
2.62
1.45
0.52
0.02
0.08
0.68
1.64
2.63
3.35
3.58
3.22
2.30
0.98
-0.58
-2.21
-3.80
-5.32
-6.76
-8.12
-9.45
-10.76
-12.13
-13.64
-15.30
-17.02
-18.53
-19.41
-19.21
-17.57
-14.40
-9.97
-4.82
0.31
4.72
7.89
9.56
9.76
8.81
7.17
5.31
3.64
2.42
1.75
1.66
2.13
3.11
4.51
6.09
7.51
8.40
8.45
7.60
6.07
4.28
2.61
1.30
0.32
-0.58
-1.69
-3.20
-5.08
-7.16
-9.30
-11.46
-13.71
-16.04
-18.23
-19.75
-19.95
-18.31
-14.80
-9.90
-4.51
0.38
4.11
6.50
7.79
8.40
8.67
8.69
8.41
7.72
6.69
5.59
4.81
4.68
5.32
6.59
8.11
9.46
10.37
10.75
10.67
10.27
9.64
8.72
7.40
5.59
3.32
0.82
-1.60
-3.64
-5.18
-6.33
-7.40
-8.78
-10.72
-13.28
-16.18
-18.93
-20.95
-21.73
-20.95
-18.58
-14.86
-10.24
-5.32
-0.63
3.40
6.58
8.88
10.38
11.11
11.13
10.44
9.16
7.57
6.07
5.04
4.75
5.17
6.08
7.10
7.98
8.59
8.96
9.17
9.29
9.26
8.92
8.15
6.92
5.36
3.70
2.18
0.90
-0.21
-1.28
-2.43
-3.63
-4.74
-5.67
-6.50
-7.57
-9.26
-11.75
-14.80
-17.67
-19.43
-19.34
-17.15
-13.27
-8.51
-3.78
0.28
3.46
5.91
7.84
9.37
10.44
10.86
10.52
9.59
8.51
7.77
7.76
8.51
9.73
10.99
11.90
12.33
12.42
12.40
12.39
12.32
11.97
11.11
9.64
7.70
5.59
3.59
1.87
0.44
-0.82
-2.04
-3.30
-4.54
-5.73
-6.85
-8.06
-9.56
-11.50
-13.83
-16.17
-17.92
-18.42
-17.25
-14.38
-10.21
-5.38
-0.59
3.64
7.05
9.62
11.44
12.61
13.09
12.84
11.86
10.35
8.75
7.54
7.11
7.52
8.50
9.59
10.41
10.81
10.91
10.82
10.55
9.91
8.68
6.76
4.36
1.87
-0.31
-1.99
-3.24
-4.30
-5.44
-6.85
-8.56
-10.49
-12.47
-14.32
-15.77
-16.55
-16.42
-15.21
-12.91
-9.69
-5.85
-1.88
1.72
4.49
6.23
6.99
7.05
6.71
6.16
5.36
4.15
2.49
0.63
-0.94
-1.65
-1.13
0.52
2.74
4.73
5.82
5.75
4.68
3.09
1.42
-0.04
-1.29
-2.52
-3.91
-5.57
-7.46
-9.49
-11.57
-13.56
-15.30
-16.58
-17.07
-16.41
-14.36
-10.89
-6.31
-1.14
3.86
7.97
10.68
11.81
11.50
10.16
8.27
6.27
4.42
2.86
1.63
0.74
0.26
0.18
0.48
1.01
1.59
2.03
2.20
2.06
1.61
0.91
-0.06
-1.30
-2.84
-4.64
-6.65
-8.79
-11.01
-13.26
-15.45
-17.32
-18.49
-18.50
-17.01
-13.99
-9.78
-5.01
-0.40
3.52
6.52
8.67
10.16
11.02
11.13
10.31
8.58
6.26
4.03
2.54
2.20
2.92
4.18
5.36
5.99
5.98
5.53
4.90
4.20
3.34
2.11
0.38
-1.80
-4.20
-6.57
-8.80
-10.93
-13.08
-15.30
-17.38
-18.83
-19.02
-17.46
-14.02
-9.06
-3.32
2.26
6.97
10.36
12.44
13.41
13.53
12.95
11.74
9.98
7.86
5.80
4.24
3.56
3.83
4.76
5.80
6.43
6.29
5.35
3.85
2.12
0.42
-1.19
-2.78
-4.52
-6.49
-8.72
-11.10
-13.54
-15.92
-18.21
-20.36
-22.23
-23.52
-23.75
-22.48
-19.47
-14.87
-9.27
-3.49
1.70
5.83
8.83
10.91
12.32
13.19
13.55
13.36
12.72
11.88
11.16
10.92
11.23
12.03
13.04
13.95
14.50
14.59
14.31
13.79
13.02
11.93
10.33
8.08
5.28
2.27
-0.46
-2.49
-3.81
-4.72
-5.73
-7.32
-9.65
-12.54
-15.64
-18.59
-21.20
-23.35
-24.85
-25.27
-24.08
-20.85
-15.59
-8.90
-1.95
4.01
8.16
10.37
11.26
11.68
12.33
13.44
14.64
15.38
15.28
14.46
13.47
13.04
13.65
15.31
17.47
19.36
20.33
20.17
19.19
17.87
16.65
15.72
14.88
13.80
12.24
10.24
8.00
5.85
3.98
2.43
1.04
-0.41
-2.07
-3.96
-5.96
-7.91
-9.68
-11.27
-12.90
-14.86
-17.38
-20.44
-23.62
-26.18
-27.29
-26.28
-23.01
-17.87
-11.66
-5.33
0.39
5.12
8.86
11.80
14.13
15.84
16.80
16.87
16.08
14.73
13.34
12.46
12.45
13.34
14.80
16.36
17.52
18.00
17.77
17.05
16.11
15.18
14.33
13.45
12.36
10.97
9.32
7.62
6.11
4.92
3.97
3.00
1.70
-0.10
-2.30
-4.55
-6.45
-7.71
-8.37
-8.74
-9.31
-10.56
-12.75
-15.75
-19.13
-22.24
-24.39
-25.05
-23.94
-21.12
-16.87
-11.66
-5.97
-0.32
4.81
8.97
11.87
13.40
13.67
13.04
11.94
10.78
9.87
9.34
9.21
9.42
9.91
10.65
11.63
12.80
14.06
15.17
15.90
16.02
15.46
14.35
12.95
11.52
10.24
9.12
8.05
6.95
5.87
4.89
4.11
3.45
2.73
1.68
0.17
-1.72
-3.76
-5.60
-7.11
-8.32
-9.50
-11.02
-13.16
-15.92
-18.99
-21.78
-23.54
-23.71
-22.01
-18.62
-14.05
-8.98
-4.05
0.34
3.99
6.80
8.73
9.72
9.79
9.09
7.97
6.91
6.32
6.43
7.18
8.30
9.43
10.27
10.67
10.74
10.65
10.59
10.63
10.63
10.38
9.70
8.58
7.22
5.95
5.02
4.47
4.14
3.71
2.93
1.73
0.24
-1.30
-2.70
-3.88
-4.89
-5.80
-6.68
-7.59
-8.54
-9.58
-10.79
-12.30
-14.22
-16.55
-19.09
-21.35
-22.67
-22.34
-19.99
-15.67
-10.02
-4.02
1.35
5.44
8.14
9.72
10.62
11.07
11.01
10.29
8.91
7.21
5.80
5.34
6.07
7.74
9.69
11.24
12.00
12.07
11.81
11.55
11.40
11.11
10.35
8.93
6.93
4.71
2.76
1.42
0.74
0.49
0.21
-0.50
-1.83
-3.63
-5.48
-6.93
-7.75
-8.02
-8.13
-8.57
-9.68
-11.45
-13.60
-15.74
-17.59
-19.04
-20.10
-20.68
-20.56
-19.38
-16.97
-13.44
-9.28
-5.14
-1.58
1.23
3.37
5.08
6.36
7.00
6.70
5.37
3.35
1.38
0.22
0.35
1.69
3.68
5.62
7.01
7.72
7.98
8.13
8.37
8.51
8.21
7.18
5.40
3.28
1.45
0.44
0.39
0.87
1.18
0.66
-0.86
-3.07
-5.23
-6.72
-7.29
-7.26
-7.29
-7.99
-9.64
-11.99
-14.52
-16.64
-17.97
-18.50
-18.41
-17.86
-16.77
-14.94
-12.15
-8.41
-4.02
0.42
4.28
7.10
8.73
9.28
9.04
8.29
7.30
6.25
5.26
4.45
3.90
3.62
3.57
3.68
3.94
4.28
4.71
5.15
5.49
5.55
5.19
4.35
3.10
1.61
0.10
-1.29
-2.51
-3.64
-4.77
-5.98
-7.24
-8.38
-9.26
-9.74
-9.90
-9.96
-10.27
-11.07
-12.43
-14.19
-16.02
-17.55
-18.49
-18.66
-17.94
-16.30
-13.77
-10.47
-6.70
-2.84
0.69
3.54
5.52
6.63
6.99
6.81
6.23
5.42
4.46
3.47
2.54
1.80
1.39
1.45
2.07
3.17
4.53
5.85
6.80
7.19
7.04
6.51
5.80
5.03
4.22
3.29
2.18
0.90
-0.44
-1.71
-2.84
-3.81
-4.69
-5.58
-6.57
-7.71
-8.98
-10.33
-11.69
-12.94
-13.96
-14.61
-14.77
-14.29
-13.09
-11.10
-8.32
-4.90
-1.08
2.74
6.14
8.77
10.47
11.25
11.34
10.95
10.25
9.24
7.86
6.15
4.36
2.93
2.30
2.64
3.77
5.17
6.27
6.76
6.66
6.22
5.71
5.22
4.57
3.56
2.11
0.37
-1.31
-2.67
-3.63
-4.37
-5.18
-6.30
-7.74
-9.35
-10.90
-12.30
-13.62
-15.03
-16.63
-18.28
-19.59
-20.00
-18.94
-16.23
-12.08
-7.10
-2.13
2.09
5.17
7.06
8.01
8.18
7.62
6.30
4.22
1.72
-0.59
-2.03
-2.12
-1.06
0.55
1.91
2.51
2.42
2.15
2.29
3.06
4.04
4.44
3.59
1.37
-1.60
-4.33
-5.94
-6.15
-5.54
-5.11
-5.74
-7.76
-10.77
-13.97
-16.59
-18.27
-19.13
-19.53
-19.60
-19.16
-17.72
-14.84
-10.54
-5.26
0.06
4.46
7.27
8.35
7.98
6.72
5.12
3.62
2.41
1.58
1.14
1.07
1.35
1.88
2.56
3.32
4.05
4.67
5.05
5.02
4.47
3.36
1.81
0.10
-1.51
-2.86
-3.98
-5.08
-6.39
-8.04
-10.03
-12.17
-14.18
-15.77
-16.70
-16.82
-16.04
-14.34
-11.71
-8.22
-4.06
0.42
4.70
8.22
10.52
11.45
11.15
10.05
8.62
7.18
5.93
4.91
4.22
3.98
4.37
5.47
7.14
9.00
10.60
11.49
11.41
10.31
8.39
6.03
3.63
1.59
0.04
-1.14
-2.25
-3.68
-5.69
-8.25
-11.15
-14.07
-16.62
-18.49
-19.36
-18.89
-16.83
-13.13
-8.08
-2.28
3.49
8.53
12.35
14.80
15.98
16.15
15.63
14.74
13.80
13.08
12.79
13.03
13.75
14.79
15.84
16.58
16.75
16.23
15.12
13.66
12.12
10.67
9.34
8.00
6.50
4.75
2.76
0.59
-1.67
-3.92
-6.10
-8.23
-10.36
-12.63
-15.12
-17.80
-20.33
-22.14
-22.54
-21.05
-17.60
-12.58
-6.77
-0.98
4.16
8.34
11.55
13.90
15.48
16.32
16.39
15.70
14.48
13.16
12.27
12.27
13.34
15.24
17.44
19.27
20.22
20.15
19.25
17.88
16.41
15.05
13.75
12.37
10.77
8.88
6.83
4.78
2.92
1.35
-0.02
-1.36
-2.87
-4.69
-6.84
-9.24
-11.84
-14.60
-17.47
-20.25
-22.45
-23.41
-22.49
-19.41
-14.46
-8.42
-2.32
3.01
7.13
10.12
12.24
13.81
14.92
15.53
15.51
14.88
13.91
13.04
12.67
13.07
14.15
15.58
16.91
17.78
18.06
17.91
17.52
17.08
16.57
15.83
14.64
12.95
10.91
8.83
7.00
5.53
4.28
2.96
1.28
-0.88
-3.37
-5.89
-8.09
-9.80
-11.11
-12.34
-13.90
-16.11
-19.03
-22.43
-25.82
-28.54
-29.91
-29.40
-26.78
-22.18
-16.16
-9.52
-3.12
2.35
6.48
9.22
10.74
11.31
11.24
10.85
10.45
10.33
10.65
11.39
12.36
13.29
14.02
14.54
14.96
15.43
15.91
16.18
15.97
15.09
13.66
11.93
10.19
8.65
7.29
6.05
4.86
3.75
2.74
1.75
0.61
-0.84
-2.58
-4.39
-5.90
-6.86
-7.39
-8.04
-9.51
-12.23
-16.04
-20.13
-23.34
-24.59
-23.35
-19.83
-14.81
-9.22
-3.80
1.09
5.46
9.38
12.82
15.47
16.97
17.10
16.02
14.31
12.74
11.96
12.28
13.49
15.05
16.37
17.12
17.27
17.10
16.90
16.80
16.68
16.27
15.28
13.64
11.50
9.17
6.97
5.15
3.69
2.45
1.20
-0.24
-1.91
-3.73
-5.47
-6.94
-8.07
-8.98
-9.97
-11.41
-13.53
-16.30
-19.40
-22.31
-24.43
-25.23
-24.42
-21.94
-18.01
-13.06
-7.65
-2.41
2.13
5.64
8.01
9.25
9.50
8.93
7.75
6.26
4.84
3.88
3.68
4.27
5.45
6.79
7.90
8.51
8.65
8.48
8.23
8.00
7.73
7.21
6.19
4.57
2.44
0.07
-2.22
-4.15
-5.62
-6.76
-7.77
-8.81
-9.93
-11.04
-12.08
-13.09
-14.29
-15.94
-18.13
-20.60
-22.67
-23.51
-22.45
-19.33
-14.56
-8.99
-3.54
1.14
4.80
7.47
9.26
10.19
10.18
9.19
7.40
5.29
3.48
2.50
2.54
3.41
4.69
5.92
6.85
7.40
7.64
7.62
7.28
6.48
5.13
3.26
1.07
-1.13
-3.04
-4.49
-5.52
-6.28
-7.06
-8.09
-9.56
-11.49
-13.81
-16.31
-18.72
-20.70
-21.85
-21.81
-20.32
-17.28
-12.94
-7.81
-2.61
1.92
5.27
7.22
7.97
7.92
7.46
6.87
6.28
5.74
5.36
5.32
5.88
7.12
8.80
10.49
11.65
12.00
11.62
10.90
10.25
9.86
9.44
8.50
6.64
3.83
0.56
-2.41
-4.46
-5.45
-5.92
-6.74
-8.69
-12.00
-16.16
-20.19
-23.03
-23.94
-22.88
-20.24
-16.62
-12.52
-8.11
-3.37
1.68
6.78
11.27
14.44
15.80
15.39
13.78
11.85
10.38
9.81
10.02
10.61
11.18
11.59
11.99
12.60
13.50
14.52
15.21
15.10
13.97
11.98
9.54
7.16
5.14
3.58
2.29
1.02
-0.39
-1.96
-3.64
-5.37
-7.15
-9.07
-11.26
-13.84
-16.88
-20.28
-23.76
-26.80
-28.72
-28.85
-26.79
-22.60
-16.83
-10.41
-4.26
0.90
4.81
7.56
9.42
10.65
11.38
11.63
11.46
10.96
10.38
9.97
9.90
10.18
10.71
11.29
11.74
11.98
11.97
11.77
11.43
11.00
10.48
9.83
8.99
7.90
6.57
5.08
3.57
2.19
0.95
-0.24
-1.55
-3.15
-5.05
-7.12
-9.16
-11.02
-12.77
-14.70
-17.16
-20.36
-24.09
-27.74
-30.42
-31.29
-29.89
-26.30
-21.10
-15.11
-9.10
-3.57
1.28
5.43
8.88
11.50
13.17
13.78
13.49
12.64
11.72
11.17
11.22
11.85
12.84
13.86
14.69
15.25
15.60
15.85
16.00
15.94
15.47
14.42
12.77
10.73
8.62
6.79
5.39
4.36
3.51
2.59
1.46
0.11
-1.41
-3.04
-4.78
-6.65
-8.67
-10.80
-12.98
-15.16
-17.37
-19.70
-22.12
-24.42
-26.12
-26.58
-25.26
-21.93
-16.79
-10.50
-3.89
2.21
7.24
10.99
13.50
15.03
15.81
16.02
15.78
15.17
14.32
13.45
12.79
12.59
12.94
13.75
14.77
15.68
16.19
16.18
15.66
14.78
13.73
12.66
11.61
10.55
9.37
7.94
6.20
4.16
1.93
-0.33
-2.48
-4.49
-6.36
-8.17
-9.94
-11.66
-13.29
-14.82
-16.36
-18.11
-20.27
-22.83
-25.48
-27.56
-28.28
-27.00
-23.60
-18.49
-12.54
-6.71
-1.74
2.14
4.99
7.09
8.55
9.29
9.16
8.10
6.37
4.58
3.37
3.21
4.12
5.72
7.42
8.74
9.53
10.00
10.49
11.22
12.10
12.74
12.73
11.80
10.02
7.78
5.49
3.45
1.69
0.03
-1.69
-3.56
-5.49
-7.28
-8.80
-10.09
-11.39
-13.04
-15.29
-18.08
-21.03
-23.42
-24.49
-23.67
-20.83
-16.30
-10.78
-5.00
0.41
5.03
8.64
11.11
12.40
12.57
11.86
10.62
9.28
8.20
7.55
7.34
7.48
7.84
8.35
8.97
9.67
10.39
11.02
11.42
11.50
11.18
10.45
9.35
7.96
6.30
4.42
2.33
0.11
-2.11
-4.16
-5.89
-7.25
-8.43
-9.71
-11.38
-13.65
-16.52
-19.74
-22.99
-25.84
-27.98
-29.17
-29.18
-27.84
-24.98
-20.58
-14.88
-8.42
-2.02
3.53
7.72
10.43
11.95
12.71
12.97
12.79
12.02
10.57
8.70
6.94
5.95
6.14
7.44
9.38
11.23
12.41
12.69
12.21
11.26
10.13
8.95
7.70
6.32
4.76
3.04
1.24
-0.64
-2.58
-4.58
-6.59
-8.55
-10.43
-12.32
-14.39
-16.86
-19.84
-23.17
-26.36
-28.74
-29.62
-28.55
-25.49
-20.84
-15.25
-9.41
-3.88
1.05
5.24
8.64
11.13
12.59
12.95
12.33
11.04
9.59
8.44
7.92
8.05
8.68
9.52
10.33
10.97
11.41
11.66
11.71
11.51
10.97
10.00
8.57
6.76
4.68
2.50
0.36
-1.68
-3.57
-5.33
-6.96
-8.46
-9.85
-11.23
-12.79
-14.74
-17.25
-20.26
-23.43
-26.19
-27.80
-27.67
-25.53
-21.49
-16.05
-9.92
-3.77
1.83
6.56
10.26
12.87
14.37
14.83
14.35
13.16
11.56
9.92
8.54
7.65
7.36
7.59
8.20
8.96
9.72
10.33
10.75
10.88
10.60
9.69
8.00
5.53
2.51
-0.60
-3.33
-5.39
-6.83
-7.98
-9.28
-11.07
-13.43
-16.21
-19.08
-21.72
-23.77
-24.94
-24.95
-23.51
-20.44
-15.86
-10.19
-4.16
1.38
5.76
8.61
10.02
10.39
10.21
9.91
9.60
9.17
8.46
7.43
6.34
5.73
6.03
7.42
9.58
11.81
13.33
13.65
12.75
11.03
8.91
6.65
4.20
1.43
-1.61
-4.60
-7.09
-8.81
-10.00
-11.33
-13.57
-17.04
-21.37
-25.51
-28.24
-28.61
-26.45
-22.22
-16.80
-11.03
-5.40
-0.10
4.81
9.15
12.44
14.15
14.01
12.24
9.62
7.19
5.81
5.83
6.92
8.35
9.49
10.05
10.24
10.46
11.03
11.92
12.65
12.62
11.42
9.00
5.76
2.32
-0.77
-3.16
-4.90
-6.33
-7.87
-9.92
-12.66
-16.09
-19.99
-23.87
-27.17
-29.23
-29.50
-27.68
-23.84
-18.43
-12.07
-5.42
0.94
6.60
11.26
14.70
16.75
17.40
16.86
15.64
14.34
13.49
13.38
13.93
14.81
15.64
16.18
16.40
16.44
16.49
16.58
16.61
16.35
15.56
14.10
11.99
9.36
6.45
3.50
0.70
-1.85
-4.16
-6.35
-8.55
-10.85
-13.36
-16.14
-19.29
-22.85
-26.63
-30.16
-32.66
-33.28
-31.39
-26.91
-20.41
-12.87
-5.39
1.26
6.72
11.06
14.49
17.16
19.09
20.14
20.25
19.52
18.31
17.14
16.49
16.67
17.65
19.15
20.71
21.93
22.61
22.77
22.59
22.21
21.64
20.68
19.13
16.84
13.90
10.63
7.41
4.56
2.17
0.12
-1.82
-3.88
-6.16
-8.70
-11.51
-14.65
-18.16
-21.94
-25.61
-28.48
-29.68
-28.49
-24.66
-18.54
-11.06
-3.39
3.44
8.81
12.57
14.93
16.17
16.53
16.13
15.12
13.74
12.46
11.79
12.11
13.46
15.50
17.59
19.15
19.80
19.53
18.64
17.50
16.36
15.23
13.97
12.39
10.40
8.07
5.57
3.07
0.72
-1.44
-3.45
-5.41
-7.40
-9.54
-11.87
-14.43
-17.22
-20.22
-23.33
-26.26
-28.52
-29.46
-28.50
-25.34
-20.15
-13.54
-6.44
0.24
5.84
10.06
12.87
14.43
15.01
14.83
14.17
13.30
12.52
12.05
12.12
12.78
13.98
15.53
17.13
18.47
19.25
19.30
18.63
17.37
15.69
13.80
11.81
9.80
7.78
5.78
3.86
2.02
0.26
-1.52
-3.40
-5.48
-7.74
-10.07
-12.31
-14.35
-16.30
-18.46
-21.21
-24.79
-29.03
-33.27
-36.50
-37.67
-36.07
-31.67
-25.04
-17.19
-9.17
-1.80
4.48
9.50
13.22
15.64
16.77
16.74
15.89
14.74
13.85
13.65
14.24
15.41
16.76
17.87
18.55
18.83
18.96
19.17
19.50
19.78
19.64
18.75
17.01
14.62
12.01
9.63
7.74
6.28
4.97
3.49
1.69
-0.36
-2.48
-4.54
-6.54
-8.66
-11.09
-13.94
-17.13
-20.53
-23.96
-27.27
-30.25
-32.53
-33.54
-32.66
-29.48
-23.96
-16.69
-8.58
-0.70
6.14
11.52
15.41
18.05
19.70
20.48
20.45
19.66
18.35
16.96
16.11
16.25
17.56
19.62
21.71
23.11
23.45
22.89
22.00
21.35
21.12
20.99
20.31
18.61
15.85
12.51
9.33
6.80
4.98
3.40
1.50
-1.07
-4.17
-7.29
-9.85
-11.54
-12.47
-13.20
-14.42
-16.62
-19.91
-23.97
-28.06
-31.33
-32.98
-32.52
-29.81
-25.12
-19.07
-12.42
-5.94
-0.23
4.40
7.87
10.24
11.58
11.91
11.27
9.79
7.85
6.02
4.95
5.04
6.30
8.29
10.37
11.93
12.68
12.68
12.23
11.63
11.01
10.29
9.25
7.73
5.70
3.35
0.97
-1.19
-2.99
-4.44
-5.65
-6.79
-7.98
-9.33
-10.92
-12.84
-15.19
-17.95
-20.95
-23.73
-25.64
-26.03
-24.41
-20.76
-15.45
-9.22
-2.93
2.73
7.31
10.69
12.98
14.34
14.92
14.84
14.20
13.16
11.93
10.83
10.16
10.12
10.79
12.02
13.51
14.86
15.70
15.80
15.18
14.01
12.55
11.01
9.45
7.79
5.91
3.72
1.33
-1.08
-3.31
-5.27
-7.03
-8.78
-10.66
-12.72
-14.90
-17.17
-19.59
-22.36
-25.57
-29.06
-32.26
-34.29
-34.25
-31.59
-26.44
-19.55
-12.04
-5.00
0.83
5.24
8.39
10.61
12.17
13.13
13.47
13.22
12.56
11.81
11.31
11.26
11.63
12.22
12.83
13.32
13.72
14.06
14.35
14.45
14.15
13.31
11.92
10.20
8.44
6.90
5.70
4.74
3.76
2.49
0.72
-1.52
-3.99
-6.28
-8.11
-9.49
-10.71
-12.31
-14.65
-17.71
-20.94
-23.45
-24.50
-23.76
-21.38
-17.81
-13.51
-8.68
-3.42
2.08
7.27
11.39
13.74
14.04
12.74
10.71
8.91
7.92
7.70
7.87
8.02
8.04
8.14
8.71
9.88
11.48
12.88
13.44
12.80
11.08
8.84
6.69
5.01
3.76
2.48
0.66
-1.96
-5.19
-8.51
-11.39
-13.55
-15.08
-16.40
-18.03
-20.28
-23.18
-26.40
-29.43
-31.66
-32.48
-31.55
-28.83
-24.57
-19.35
-13.79
-8.49
-3.84
0.01
2.97
4.99
5.99
5.96
5.03
3.58
2.13
1.20
1.15
1.98
3.41
4.98
6.24
6.95
7.10
6.91
6.58
6.21
5.66
4.67
3.01
0.66
-2.10
-4.79
-6.98
-8.51
-9.52
-10.49
-11.89
-13.97
-16.66
-19.49
-21.90
-23.30
-23.34
-21.86
-18.92
-14.74
-9.68
-4.21
1.15
5.85
9.54
12.03
13.36
13.66
13.13
11.98
10.44
8.83
7.53
6.83
6.93
7.75
9.02
10.36
11.44
12.03
12.06
11.53
10.51
9.07
7.30
5.27
3.11
0.90
-1.27
-3.36
-5.38
-7.38
-9.39
-11.51
-13.75
-16.18
-18.81
-21.62
-24.50
-27.13
-29.02
-29.58
-28.34
-25.14
-20.25
-14.38
-8.30
-2.70
2.11
6.14
9.50
12.28
14.38
15.61
15.82
15.08
13.70
12.20
11.11
10.77
11.29
12.43
13.77
14.81
15.23
14.92
14.07
13.00
11.96
10.99
9.94
8.52
6.56
4.14
1.52
-0.98
-3.11
-4.84
-6.32
-7.79
-9.46
-11.45
-13.74
-16.29
-19.00
-21.75
-24.35
-26.43
-27.53
-27.15
-24.94
-20.88
-15.32
-8.95
-2.53
3.28
8.08
11.76
14.35
15.98
16.73
16.72
16.07
15.01
13.84
12.89
12.44
12.63
13.42
14.58
15.75
16.58
16.82
16.48
15.73
14.83
13.91
12.94
11.76
10.21
8.33
6.32
4.44
2.86
1.54
0.23
-1.35
-3.38
-5.80
-8.46
-11.21
-14.03
-17.01
-20.26
-23.67
-26.88
-29.28
-30.14
-28.94
-25.54
-20.30
-14.01
-7.63
-2.01
2.38
5.46
7.43
8.54
8.89
8.46
7.20
5.27
3.13
1.47
0.91
1.71
3.59
5.91
7.90
9.08
9.37
9.02
8.37
7.61
6.72
5.51
3.91
1.98
-0.07
-1.97
-3.59
-4.98
-6.33
-7.85
-9.67
-11.86
-14.33
-16.97
-19.61
-22.04
-24.07
-25.49
-26.05
-25.48
-23.47
-19.88
-14.78
-8.59
-2.00
4.19
9.41
13.37
16.07
17.58
17.94
17.13
15.25
12.73
10.35
8.92
8.95
10.28
12.23
13.90
14.67
14.50
13.87
13.35
13.27
13.39
13.17
12.06
9.91
7.05
4.09
1.57
-0.32
-1.84
-3.47
-5.61
-8.27
-11.19
-13.98
-16.44
-18.73
-21.26
-24.34
-27.82
-30.97
-32.62
-31.69
-27.65
-20.84
-12.38
-3.73
3.83
9.65
13.71
16.41
18.23
19.49
20.25
20.46
20.16
19.56
19.01
18.82
19.15
20.00
21.14
22.31
23.22
23.68
23.59
22.98
21.94
20.66
19.25
17.76
16.18
14.39
12.31
9.91
7.28
4.58
2.07
-0.12
-1.97
-3.64
-5.48
-7.86
-11.06
-15.10
-19.67
-24.11
-27.59
-29.32
-28.79
-25.89
-20.96
-14.58
-7.46
-0.32
6.28
11.90
16.26
19.25
20.91
21.44
21.15
20.36
19.36
18.39
17.63
17.23
17.29
17.84
18.79
19.96
21.05
21.81
22.03
21.58
20.46
18.72
16.47
13.82
10.86
7.69
4.41
1.16
-1.91
-4.63
-6.87
-8.66
-10.16
-11.72
-13.71
-16.44
-19.95
-24.02
-28.07
-31.30
-32.91
-32.26
-29.14
-23.83
-17.03
-9.63
-2.46
3.85
8.94
12.65
14.89
15.62
14.88
12.93
10.31
7.69
5.70
4.65
4.50
4.91
5.48
6.02
6.51
7.05
7.65
8.08
7.95
6.89
4.78
1.89
-1.28
-4.16
-6.41
-8.04
-9.38
-10.83
-12.74
-15.16
-18.03
-21.13
-24.23
-27.05
-29.22
-30.20
-29.35
-26.22
-20.88
-13.98
-6.71
-0.30
4.44
7.40
9.06
10.08
10.84
11.28
11.07
9.95
8.08
6.06
4.61
4.24
4.99
6.44
8.01
9.24
9.90
9.99
9.58
8.76
7.42
5.54
3.13
0.41
-2.19
-4.14
-5.07
-4.96
-4.46
-4.63
-6.50
-10.55
-16.25
-22.16
-26.46
-27.67
-25.40
-20.33
-13.79
-7.15
-1.21
3.88
8.26
12.01
14.83
16.17
15.68
13.54
10.53
7.76
6.21
6.25
7.52
9.18
10.44
10.86
10.54
9.90
9.35
9.04
8.74
8.06
6.71
4.58
1.87
-1.10
-3.98
-6.51
-8.69
-10.69
-12.80
-15.34
-18.52
-22.34
-26.48
-30.32
-33.09
-34.08
-32.79
-29.18
-23.61
-16.77
-9.47
-2.43
3.80
8.93
12.83
15.43
16.73
16.81
15.94
14.55
13.18
12.34
12.30
13.08
14.41
15.92
17.26
18.24
18.78
18.96
18.81
18.36
17.61
16.51
15.03
13.18
11.01
8.61
6.11
3.60
1.17
-1.14
-3.35
-5.52
-7.74
-10.14
-12.88
-16.09
-19.76
-23.65
-27.23
-29.74
-30.44
-28.81
-24.84
-18.98
-12.05
-4.93
1.65
7.29
11.84
15.30
17.70
18.96
19.07
18.18
16.61
14.93
13.73
13.45
14.22
15.80
17.71
19.37
20.33
20.43
19.78
18.69
17.49
16.32
15.12
13.64
11.64
9.06
6.06
2.96
0.04
-2.52
-4.79
-6.96
-9.18
-11.50
-13.87
-16.27
-18.81
-21.70
-25.05
-28.70
-32.02
-34.08
-33.99
-31.24
-26.01
-19.13
-11.75
-5.00
0.37
4.09
6.28
7.20
7.12
6.19
4.57
2.53
0.47
-1.15
-2.03
-2.15
-1.77
-1.26
-0.88
-0.57
-0.00
1.20
3.15
5.49
7.53
8.53
8.04
6.06
3.00
-0.54
-4.13
-7.58
-10.96
-14.45
-18.20
-22.26
-26.69
-31.48
-36.60
-41.87
-46.81
-50.68
-52.68
-52.19
-49.01
-43.49
-36.34
-28.45
-20.62
-13.49
-7.54
-3.17
-0.69
-0.14
-1.30
-3.63
-6.48
-9.30
-11.80
-13.99
-16.02
-17.99
-19.89
-21.58
-22.93
-23.87
-24.41
-24.58
-24.28
-23.28
-21.26
-17.97
-13.38
-7.65
-1.14
5.80
12.89
19.99
27.02
33.75
39.81
44.71
48.11
50.02
50.96
51.80
53.39
56.14
59.78
63.49
66.24
67.33
66.61
64.46
61.43
57.85
53.67
48.61
42.54
35.76
29.00
23.22
19.04
16.53
15.11
13.95
12.39
10.30
8.01
6.01
4.57
3.51
2.38
0.70
-1.70
-4.59
-7.55
-10.20
-12.44
-14.42
-16.38
-18.47
-20.65
-22.83
-24.98
-27.27
-29.95
-33.12
-36.59
-39.71
-41.54
-41.19
-38.09
-32.29
-24.46
-15.60
-6.76
1.23
7.96
13.26
17.15
19.58
20.54
20.10
18.61
16.73
15.20
14.68
15.40
17.12
19.23
21.11
22.39
23.08
23.49
23.90
24.38
24.67
24.35
23.07
20.79
17.78
14.54
11.47
8.78
6.32
3.81
1.03
-2.01
-5.11
-7.97
-10.45
-12.61
-14.86
-17.60
-21.07
-25.10
-29.04
-31.96
-32.90
-31.23
-26.96
-20.68
-13.46
-6.42
-0.51
3.82
6.57
8.06
8.65
8.67
8.33
7.79
7.19
6.68
6.47
6.75
7.63
9.09
10.93
12.78
14.21
14.87
14.68
13.79
12.53
11.18
9.82
8.36
6.59
4.48
2.11
-0.25
-2.36
-4.12
-5.59
-6.98
-8.52
-10.34
-12.50
-14.98
-17.76
-20.84
-24.19
-27.69
-31.01
-33.67
-35.06
-34.63
-32.07
-27.48
-21.31
-14.35
-7.48
-1.49
3.12
6.12
7.59
7.81
7.16
6.08
4.95
4.15
3.95
4.55
5.98
8.09
10.58
13.03
15.00
16.14
16.33
15.63
14.25
12.45
10.42
8.24
5.89
3.34
0.64
-2.02
-4.39
-6.26
-7.64
-8.76
-10.02
-11.84
-14.43
-17.69
-21.16
-24.19
-26.14
-26.51
-25.08
-21.89
-17.22
-11.48
-5.21
0.98
6.51
10.86
13.71
14.95
14.73
13.39
11.35
9.06
6.99
5.50
4.85
5.09
6.09
7.55
9.09
10.44
11.40
11.91
11.94
11.49
10.52
9.05
7.13
4.85
2.32
-0.37
-3.13
-5.85
-8.36
-10.51
-12.28
-13.86
-15.64
-18.03
-21.17
-24.76
-28.05
-30.07
-30.13
-27.94
-23.80
-18.31
-12.08
-5.57
0.96
7.23
12.76
16.94
19.20
19.37
17.83
15.38
12.99
11.42
10.90
11.26
12.07
12.95
13.75
14.54
15.47
16.59
17.62
18.12
17.61
15.90
13.21
10.06
7.07
4.62
2.61
0.66
-1.62
-4.35
-7.22
-9.73
-11.54
-12.79
-14.12
-16.30
-19.66
-23.77
-27.47
-29.36
-28.43
-24.47
-18.23
-10.95
-3.87
2.20
7.05
10.79
13.68
15.78
16.98
17.09
16.08
14.17
11.88
9.88
8.73
8.80
10.01
11.92
13.90
15.33
15.85
15.46
14.44
13.24
12.11
11.09
9.91
8.25
5.92
3.06
0.09
-2.42
-4.12
-5.01
-5.54
-6.43
-8.30
-11.48
-15.82
-20.77
-25.62
-29.66
-32.35
-33.28
-32.22
-29.07
-23.96
-17.35
-9.94
-2.68
3.53
8.01
10.51
11.18
10.46
8.95
7.18
5.52
4.19
3.26
2.77
2.70
3.02
3.66
4.52
5.47
6.37
7.05
7.35
7.12
6.17
4.45
2.04
-0.86
-3.89
-6.74
-9.16
-11.13
-12.73
-14.17
-15.73
-17.68
-20.26
-23.52
-27.23
-30.79
-33.31
-33.89
-31.91
-27.40
-20.95
-13.60
-6.41
-0.23
4.55
7.84
9.74
10.42
10.04
8.82
7.07
5.21
3.67
2.84
2.90
3.80
5.27
6.89
8.28
9.16
9.40
9.06
8.23
7.00
5.36
3.30
0.84
-1.90
-4.72
-7.39
-9.81
-12.10
-14.58
-17.60
-21.30
-25.40
-29.16
-31.56
-31.69
-29.05
-23.87
-16.91
-9.23
-1.80
4.73
10.07
14.13
16.88
18.27
18.32
17.27
15.61
13.90
12.71
12.28
12.53
13.19
13.93
14.55
15.01
15.34
15.52
15.45
14.87
13.56
11.41
8.56
5.31
2.05
-0.88
-3.36
-5.41
-7.21
-9.03
-11.13
-13.74
-16.99
-20.72
-24.50
-27.58
-29.10
-28.37
-25.11
-19.65
-12.77
-5.44
1.49
7.49
12.35
16.06
18.59
19.90
20.02
19.15
17.70
16.26
15.36
15.30
15.99
17.07
18.09
18.71
18.83
18.55
18.03
17.36
16.50
15.29
13.62
11.50
9.07
6.51
3.96
1.46
-1.03
-3.48
-5.86
-8.11
-10.24
-12.43
-14.99
-18.26
-22.30
-26.84
-31.20
-34.43
-35.64
-34.30
-30.40
-24.44
-17.29
-9.84
-2.81
3.38
8.58
12.73
15.79
17.67
18.38
18.10
17.26
16.42
16.08
16.52
17.73
19.44
21.31
23.05
24.46
25.35
25.57
25.00
23.59
21.50
19.07
16.67
14.58
12.81
11.14
9.27
6.97
4.23
1.27
-1.62
-4.18
-6.35
-8.23
-10.07
-12.11
-14.58
-17.62
-21.19
-25.05
-28.83
-31.96
-33.78
-33.64
-31.09
-26.04
-18.90
-10.54
-2.12
5.27
10.89
14.61
16.74
17.91
18.68
19.31
19.75
19.76
19.25
18.42
17.68
17.50
18.05
19.15
20.25
20.77
20.32
18.93
16.98
14.96
13.27
12.04
11.07
10.04
8.63
6.74
4.44
1.97
-0.41
-2.50
-4.25
-5.76
-7.20
-8.79
-10.68
-12.97
-15.71
-18.90
-22.47
-26.20
-29.63
-32.10
-32.86
-31.37
-27.50
-21.60
-14.47
-7.08
-0.30
5.29
9.44
12.17
13.62
14.02
13.65
12.82
11.83
10.96
10.36
10.12
10.25
10.73
11.48
12.34
13.11
13.56
13.57
13.11
12.30
11.24
9.99
8.53
6.76
4.64
2.27
-0.16
-2.36
-4.18
-5.58
-6.76
-7.96
-9.48
-11.50
-14.03
-16.88
-19.62
-21.65
-22.39
-21.40
-18.52
-14.05
-8.53
-2.67
2.90
7.74
11.60
14.33
15.81
15.97
14.85
12.75
10.22
7.92
6.47
6.21
7.03
8.46
9.90
10.81
10.99
10.58
9.87
9.10
8.26
7.07
5.20
2.53
-0.76
-4.15
-7.13
-9.35
-10.82
-11.88
-12.97
-14.41
-16.37
-18.85
-21.65
-24.53
-27.09
-28.81
-29.08
-27.41
-23.59
-17.84
-10.87
-3.57
3.16
8.65
12.64
15.17
16.47
16.77
16.28
15.21
13.81
12.46
11.56
11.41
12.08
13.37
14.84
16.05
16.65
16.50
15.73
14.59
13.35
12.15
10.95
9.59
7.85
5.64
3.05
0.37
-2.04
-3.94
-5.32
-6.41
-7.64
-9.42
-11.99
-15.34
-19.15
-23.01
-26.35
-28.57
-29.09
-27.45
-23.44
-17.28
-9.63
-1.56
5.78
11.54
15.41
17.64
18.84
19.60
20.14
20.27
19.64
18.12
15.99
14.00
12.93
13.21
14.63
16.34
17.35
16.97
15.22
12.73
10.40
8.87
8.26
8.13
7.78
6.68
4.72
2.21
-0.38
-2.64
-4.42
-5.90
-7.36
-9.00
-10.95
-13.15
-15.55
-18.13
-20.86
-23.70
-26.47
-28.75
-30.06
-29.83
-27.67
-23.46
-17.44
-10.27
-2.89
3.73
8.85
12.16
13.82
14.34
14.28
14.03
13.69
13.22
12.56
11.82
11.24
11.12
11.61
12.57
13.68
14.50
14.73
14.29
13.31
12.03
10.69
9.43
8.25
7.09
5.85
4.53
3.14
1.66
0.10
-1.59
-3.45
-5.45
-7.50
-9.53
-11.49
-13.42
-15.46
-17.78
-20.47
-23.45
-26.40
-28.77
-29.98
-29.51
-27.10
-22.89
-17.30
-11.02
-4.82
0.64
4.86
7.61
8.93
9.04
8.32
7.15
5.83
4.64
3.74
3.30
3.46
4.28
5.67
7.37
8.96
10.05
10.39
10.04
9.27
8.41
7.68
7.07
6.30
5.10
3.32
1.06
-1.40
-3.69
-5.61
-7.14
-8.46
-9.79
-11.28
-12.96
-14.79
-16.71
-18.67
-20.57
-22.27
-23.46
-23.70
-22.54
-19.65
-15.08
-9.21
-2.81
3.24
8.19
11.59
13.39
13.79
13.14
11.77
9.97
8.03
6.27
4.97
4.38
4.56
5.35
6.49
7.64
8.50
8.87
8.68
7.97
6.88
5.62
4.33
3.09
1.88
0.62
-0.76
-2.22
-3.70
-5.13
-6.54
-8.13
-10.13
-12.72
-15.85
-19.14
-21.95
-23.54
-23.33
-21.03
-16.84
-11.28
-5.09
1.02
6.49
10.93
14.08
15.79
16.00
14.78
12.45
9.55
6.67
4.36
2.91
2.36
2.48
2.97
3.54
3.99
4.29
4.41
4.39
4.16
3.63
2.66
1.21
-0.68
-2.79
-4.85
-6.64
-8.08
-9.28
-10.45
-11.86
-13.67
-15.94
-18.61
-21.48
-24.25
-26.53
-27.81
-27.65
-25.67
-21.82
-16.39
-10.02
-3.56
2.16
6.56
9.40
10.82
11.17
10.86
10.18
9.32
8.36
7.45
6.76
6.50
6.78
7.53
8.50
9.37
9.89
9.96
9.67
9.20
8.68
8.13
7.40
6.29
4.63
2.41
-0.16
-2.74
-4.98
-6.65
-7.82
-8.80
-10.07
-12.09
-15.01
-18.57
-22.19
-25.06
-26.42
-25.80
-23.10
-18.56
-12.66
-6.06
0.48
6.25
10.72
13.58
14.89
14.95
14.19
13.05
11.80
10.62
9.63
8.96
8.74
9.10
9.99
11.23
12.44
13.24
13.39
12.87
11.85
10.63
9.40
8.22
6.86
5.10
2.74
-0.12
-3.13
-5.83
-7.85
-9.12
-10.01
-11.16
-13.13
-16.18
-20.03
-23.94
-26.98
-28.38
-27.81
-25.43
-21.70
-17.09
-11.95
-6.44
-0.71
4.98
10.09
13.97
16.10
16.32
14.93
12.58
10.04
7.98
6.73
6.36
6.70
7.49
8.45
9.35
10.01
10.33
10.30
9.90
9.13
7.92
6.20
3.95
1.30
-1.47
-4.06
-6.20
-7.89
-9.29
-10.74
-12.55
-14.92
-17.83
-21.10
-24.36
-27.16
-28.97
-29.31
-27.82
-24.42
-19.32
-13.04
-6.28
0.22
5.79
9.95
12.45
13.32
12.81
11.40
9.58
7.81
6.40
5.47
5.05
5.07
5.52
6.40
7.71
9.27
10.79
11.83
11.99
11.08
9.24
6.90
4.58
2.67
1.23
0.02
-1.35
-3.21
-5.71
-8.73
-12.05
-15.35
-18.31
-20.59
-21.74
-21.30
-18.97
-14.73
-8.96
-2.42
3.98
9.40
13.29
15.49
16.15
15.62
14.26
12.33
10.08
7.74
5.66
4.24
3.83
4.54
6.11
7.98
9.45
10.03
9.54
8.20
6.45
4.68
3.07
1.54
-0.11
-2.04
-4.28
-6.71
-9.22
-11.77
-14.43
-17.34
-20.46
-23.51
-25.90
-26.89
-25.85
-22.50
-17.00
-9.99
-2.41
4.78
10.81
15.20
17.83
18.77
18.27
16.71
14.51
12.20
10.32
9.32
9.34
10.21
11.47
12.56
13.08
12.95
12.39
11.73
11.21
10.79
10.23
9.19
7.44
4.97
2.02
-1.03
-3.78
-6.10
-8.05
-9.94
-12.13
-14.91
-18.24
-21.70
-24.54
-26.05
-25.71
-23.41
-19.41
-14.17
-8.14
-1.75
4.57
10.24
14.58
17.02
17.37
15.96
13.65
11.45
10.15
9.95
10.56
11.49
12.35
13.10
14.00
15.25
16.86
18.40
19.33
19.19
17.89
15.75
13.31
10.99
8.95
7.01
4.85
2.27
-0.66
-3.62
-6.27
-8.45
-10.29
-12.28
-14.88
-18.33
-22.40
-26.40
-29.41
-30.58
-29.35
-25.71
-20.06
-13.13
-5.75
1.26
7.29
11.95
15.13
16.89
17.43
17.02
15.88
14.21
12.26
10.38
8.97
8.37
8.72
9.87
11.38
12.72
13.49
13.57
13.09
12.31
11.44
10.49
9.28
7.60
5.36
2.71
-0.01
-2.41
-4.25
-5.54
-6.55
-7.68
-9.30
-11.58
-14.50
-17.82
-21.16
-24.02
-25.92
-26.40
-25.14
-22.04
-17.30
-11.38
-4.99
1.15
6.39
10.29
12.68
13.61
13.39
12.41
11.10
9.79
8.72
8.04
7.84
8.15
8.96
10.13
11.43
12.55
13.21
13.27
12.73
11.71
10.36
8.82
7.11
5.29
3.35
1.35
-0.66
-2.63
-4.55
-6.49
-8.52
-10.79
-13.42
-16.39
-19.44
-22.06
-23.57
-23.31
-20.92
-16.49
-10.55
-3.92
2.57
8.25
12.81
16.13
18.26
19.27
19.27
18.42
16.98
15.35
13.95
13.11
13.04
13.61
14.51
15.36
15.85
15.86
15.50
14.95
14.34
13.64
12.65
11.16
9.05
6.49
3.82
1.47
-0.29
-1.52
-2.52
-3.79
-5.65
-8.23
-11.33
-14.57
-17.61
-20.13
-21.91
-22.68
-22.15
-20.00
-16.10
-10.69
-4.37
1.99
7.58
11.88
14.78
16.45
17.21
17.28
16.80
15.83
14.50
13.09
11.95
11.41
11.58
12.29
13.15
13.72
13.64
12.82
11.39
9.60
7.76
6.05
4.52
3.04
1.45
-0.43
-2.60
-4.95
-7.19
-9.04
-10.40
-11.38
-12.32
-13.66
-15.78
-18.76
-22.38
-26.15
-29.43
-31.55
-32.01
-30.51
-27.08
-22.06
-15.96
-9.46
-3.15
2.50
7.13
10.54
12.65
13.51
13.30
12.32
10.99
9.68
8.71
8.25
8.36
8.98
9.97
11.13
12.24
13.02
13.25
12.87
11.91
10.58
9.08
7.55
6.01
4.41
2.65
0.70
-1.33
-3.23
-4.80
-5.90
-6.64
-7.26
-8.12
-9.51
-11.55
-14.15
-17.08
-20.04
-22.70
-24.73
-25.76
-25.40
-23.36
-19.55
-14.29
-8.19
-2.10
3.25
7.41
10.35
12.27
13.46
14.05
14.04
13.41
12.29
11.05
10.23
10.23
11.18
12.73
14.29
15.25
15.35
14.74
13.87
13.16
12.82
12.64
12.21
11.20
9.58
7.63
5.81
4.45
3.59
2.87
1.85
0.24
-1.93
-4.28
-6.41
-8.11
-9.53
-11.17
-13.45
-16.49
-19.82
-22.60
-23.86
-23.01
-19.97
-15.24
-9.67
-4.10
0.87
4.95
8.09
10.33
11.77
12.41
12.30
11.50
10.21
8.70
7.26
6.22
5.76
5.97
6.71
7.75
8.74
9.37
9.43
8.90
7.90
6.60
5.20
3.76
2.25
0.62
-1.15
-2.94
-4.56
-5.82
-6.69
-7.29
-7.88
-8.76
-10.08
-11.83
-13.85
-15.97
-18.04
-19.97
-21.65
-22.91
-23.43
-22.87
-20.93
-17.54
-12.95
-7.64
-2.26
2.56
6.35
8.88
10.20
10.47
9.97
8.94
7.63
6.26
5.08
4.41
4.44
5.24
6.61
8.14
9.40
10.04
9.95
9.28
8.32
7.37
6.54
5.78
4.90
3.66
1.97
-0.09
-2.27
-4.25
-5.80
-6.84
-7.55
-8.29
-9.48
-11.39
-14.06
-17.22
-20.31
-22.69
-23.84
-23.43
-21.46
-18.15
-13.84
-8.93
-3.80
1.16
5.56
9.01
11.29
12.36
12.41
11.82
10.97
10.12
9.39
8.83
8.41
8.22
8.32
8.74
9.41
10.08
10.48
10.36
9.63
8.40
6.95
5.59
4.51
3.71
2.97
1.95
0.42
-1.66
-4.03
-6.33
-8.17
-9.45
-10.32
-11.18
-12.42
-14.32
-16.94
-20.17
-23.73
-27.16
-29.85
-31.05
-30.06
-26.55
-20.69
-13.34
-5.72
0.94
5.85
8.87
10.39
11.04
11.29
11.29
10.94
10.19
9.12
8.14
7.74
8.26
9.71
11.63
13.42
14.51
14.69
14.15
13.30
12.55
12.07
11.59
10.67
8.93
6.31
3.18
0.20
-2.04
-3.32
-3.98
-4.65
-5.88
-7.86
-10.31
-12.71
-14.71
-16.28
-17.77
-19.60
-21.85
-24.13
-25.65
-25.56
-23.37
-19.08
-13.26
-6.79
-0.50
4.94
9.18
12.14
13.91
14.68
14.59
13.78
12.43
10.80
9.20
8.02
7.59
8.06
9.35
11.05
12.67
13.70
13.86
13.13
11.77
10.17
8.64
7.37
6.33
5.35
4.19
2.75
1.02
-0.85
-2.67
-4.29
-5.65
-6.82
-7.92
-9.13
-10.56
-12.25
-14.26
-16.58
-19.16
-21.80
-24.11
-25.53
-25.45
-23.45
-19.49
-13.99
-7.75
-1.63
3.63
7.60
10.25
11.77
12.47
12.61
12.33
11.72
10.87
9.94
9.17
8.81
9.02
9.80
10.97
12.26
13.41
14.21
14.55
14.42
13.84
12.87
11.63
10.23
8.81
7.39
5.95
4.42
2.76
0.99
-0.80
-2.52
-4.14
-5.73
-7.40
-9.27
-11.39
-13.75
-16.31
-18.93
-21.45
-23.65
-25.22
-25.79
-24.95
-22.44
-18.29
-12.83
-6.73
-0.77
4.37
8.33
11.09
12.81
13.71
13.86
13.27
11.96
10.14
8.29
6.97
6.60
7.25
8.63
10.20
11.48
12.18
12.28
11.91
11.25
10.38
9.28
7.88
6.16
4.15
2.04
0.02
-1.74
-3.18
-4.33
-5.31
-6.22
-7.12
-8.03
-9.03
-10.26
-11.93
-14.20
-17.02
-19.96
-22.27
-23.11
-21.84
-18.27
-12.79
-6.24
0.38
6.20
10.68
13.61
15.08
15.26
14.35
12.53
10.05
7.25
4.58
2.49
1.33
1.25
2.18
3.79
5.66
7.34
8.50
9.03
9.04
8.77
8.49
8.33
8.18
7.80
6.92
5.46
3.53
1.42
-0.58
-2.37
-4.05
-5.81
-7.83
-10.13
-12.63
-15.23
-17.93
-20.81
-23.94
-27.11
-29.83
-31.31
-30.82
-27.98
-23.01
-16.69
-10.06
-4.06
0.83
4.55
7.32
9.29
10.41
10.52
9.52
7.67
5.61
4.14
3.88
4.96
6.98
9.23
11.05
12.08
12.30
12.00
11.48
10.87
10.14
9.11
7.67
5.81
3.71
1.62
-0.27
-1.90
-3.39
-4.96
-6.75
-8.74
-10.77
-12.69
-14.50
-16.38
-18.64
-21.49
-24.86
-28.34
-31.32
-33.24
-33.70
-32.57
-29.86
-25.70
-20.25
-13.82
-6.89
-0.13
5.79
10.36
13.38
14.91
15.28
14.85
14.03
13.19
12.64
12.60
13.15
14.19
15.55
17.03
18.45
19.65
20.52
20.99
21.02
20.66
20.04
19.25
18.37
17.29
15.90
14.12
12.01
9.79
7.71
5.91
4.36
2.84
1.15
-0.81
-2.90
-4.95
-6.80
-8.59
-10.60
-13.18
-16.44
-20.06
-23.27
-25.11
-24.81
-22.09
-17.21
-10.93
-4.20
2.13
7.45
11.47
14.22
15.85
16.68
16.97
16.92
16.59
15.99
15.14
14.22
13.54
13.47
14.23
15.73
17.52
19.04
19.79
19.56
18.51
17.01
15.44
14.01
12.71
11.34
9.69
7.66
5.36
3.02
0.89
-0.88
-2.33
-3.63
-5.01
-6.68
-8.65
-10.88
-13.28
-15.83
-18.60
-21.56
-24.55
-27.10
-28.52
-28.20
-25.75
-21.27
-15.23
-8.39
-1.59
4.49
9.32
12.62
14.32
14.53
13.55
11.80
9.73
7.74
6.17
5.29
5.27
6.19
7.86
9.92
11.78
12.90
13.03
12.28
11.11
10.04
9.37
9.02
8.60
7.68
6.06
3.93
1.73
-0.10
-1.40
-2.37
-3.47
-5.19
-7.81
-11.26
-15.21
-19.21
-22.76
-25.50
-27.06
-27.12
-25.39
-21.75
-16.33
-9.63
-2.45
4.27
9.73
13.52
15.63
16.46
16.51
16.23
15.82
15.25
14.48
13.58
12.79
12.45
12.76
13.65
14.72
15.46
15.47
14.71
13.44
12.09
10.98
10.09
9.07
7.48
5.03
1.77
-1.86
-5.25
-7.91
-9.67
-10.74
-11.60
-12.80
-14.75
-17.53
-20.91
-24.42
-27.38
-29.13
-29.07
-26.82
-22.31
-15.87
-8.19
-0.30
6.73
12.06
15.27
16.48
16.20
15.06
13.56
11.90
10.09
8.16
6.32
4.98
4.60
5.44
7.39
9.89
12.21
13.71
14.09
13.45
12.24
10.91
9.75
8.62
7.14
4.89
1.76
-1.88
-5.35
-8.01
-9.53
-10.22
-10.73
-11.73
-13.56
-16.08
-18.89
-21.68
-24.36
-27.13
-30.12
-33.12
-35.48
-36.33
-35.01
-31.36
-25.88
-19.54
-13.45
-8.48
-5.06
-3.24
-2.77
-3.24
-4.17
-5.03
-5.24
-4.27
-1.73
2.51
8.16
14.63
21.14
26.89
31.32
34.09
35.20
34.87
33.42
31.17
28.47
25.57
22.69
19.94
17.33
14.72
11.93
8.83
5.50
2.22
-0.65
-2.90
-4.60
-6.13
-8.06
-10.84
-14.62
-19.17
-23.98
-28.46
-32.04
-34.29
-34.97
-33.97
-31.40
-27.56
-22.99
-18.37
-14.38
-11.59
-10.31
-10.56
-12.06
-14.37
-17.07
-19.83
-22.49
-25.07
-27.57
-29.94
-31.99
-33.52
-34.39
-34.58
-34.23
-33.49
-32.42
-30.90
-28.63
-25.33
-20.79
-15.03
-8.28
-0.84
6.95
14.76
22.30
29.21
35.04
39.34
41.71
42.00
40.39
37.45
34.04
31.07
29.25
28.95
30.07
32.21
34.80
37.30
39.34
40.67
41.14
40.62
39.04
36.45
33.09
29.35
25.72
22.62
20.34
18.95
18.30
18.12
18.09
17.97
17.61
16.97
16.07
14.89
13.41
11.54
9.21
6.43
3.39
0.41
-2.18
-4.16
-5.60
-6.82
-8.32
-10.48
-13.44
-16.94
-20.40
-23.15
-24.65
-24.60
-22.97
-19.95
-15.76
-10.71
-5.16
0.40
5.37
9.23
11.64
12.62
12.50
11.78
10.95
10.29
9.91
9.82
9.98
10.41
11.15
12.16
13.30
14.34
15.00
15.14
14.67
13.66
12.24
10.55
8.71
6.79
4.90
3.08
1.42
-0.10
-1.53
-2.98
-4.56
-6.40
-8.64
-11.34
-14.50
-17.94
-21.23
-23.77
-24.88
-24.09
-21.32
-16.93
-11.62
-6.16
-1.14
3.10
6.44
8.86
10.34
10.85
10.45
9.32
7.86
6.49
5.61
5.41
5.80
6.56
7.38
8.04
8.48
8.74
8.92
9.05
9.07
8.84
8.19
7.01
5.30
3.14
0.66
-1.92
-4.39
-6.52
-8.18
-9.32
-10.09
-10.74
-11.58
-12.90
-14.85
-17.45
-20.49
-23.53
-25.92
-26.97
-26.14
-23.34
-18.96
-13.75
-8.60
-4.08
-0.42
2.48
4.84
6.71
7.98
8.51
8.33
7.76
7.27
7.27
7.87
8.93
10.07
11.02
11.66
12.06
12.27
12.27
11.94
11.14
9.87
8.31
6.69
5.22
3.92
2.64
1.26
-0.26
-1.82
-3.20
-4.34
-5.34
-6.61
-8.59
-11.49
-15.09
-18.71
-21.39
-22.32
-21.10
-18.03
-13.81
-9.28
-5.03
-1.24
2.21
5.44
8.33
10.44
11.29
10.68
8.88
6.62
4.81
4.06
4.58
6.01
7.76
9.35
10.53
11.35
11.97
12.48
12.86
12.92
12.53
11.60
10.20
8.43
6.41
4.25
2.06
-0.03
-1.90
-3.47
-4.79
-6.02
-7.40
-9.12
-11.27
-13.76
-16.45
-19.14
-21.66
-23.85
-25.46
-26.14
-25.45
-23.07
-18.99
-13.58
-7.57
-1.85
2.83
6.09
7.93
8.62
8.56
8.08
7.41
6.69
6.06
5.61
5.46
5.65
6.14
6.84
7.56
8.14
8.46
8.47
8.24
7.94
7.74
7.72
7.77
7.65
7.10
5.97
4.37
2.57
0.88
-0.47
-1.48
-2.29
-3.11
-4.13
-5.36
-6.81
-8.43
-10.22
-12.22
-14.39
-16.55
-18.33
-19.26
-18.90
-17.06
-13.83
-9.66
-5.23
-1.23
1.83
3.73
4.64
4.90
4.88
4.77
4.60
4.28
3.75
3.12
2.62
2.52
2.93
3.74
4.60
5.17
5.16
4.56
3.50
2.19
0.72
-0.94
-2.88
-5.20
-7.82
-10.45
-12.72
-14.26
-14.91
-14.78
-14.21
-13.66
-13.43
-13.68
-14.30
-15.12
-15.98
-16.82
-17.58
-18.19
-18.36
-17.64
-15.62
-12.16
-7.52
-2.36
2.45
6.29
8.87
10.34
11.04
11.26
11.11
10.50
9.37
7.82
6.22
5.04
4.65
5.18
6.40
7.88
9.16
9.97
10.22
10.05
9.56
8.87
8.02
6.98
5.80
4.63
3.64
2.98
2.58
2.23
1.63
0.58
-0.94
-2.73
-4.53
-6.22
-7.97
-10.08
-12.66
-15.49
-17.88
-18.90
-17.89
-14.74
-10.10
-5.07
-0.67
2.58
4.81
6.54
8.24
10.00
11.38
11.84
11.11
9.49
7.81
7.00
7.56
9.37
11.64
13.38
13.87
12.97
11.11
9.01
7.30
6.32
5.96
5.88
5.68
5.08
4.00
2.49
0.73
-1.10
-2.90
-4.66
-6.44
-8.31
-10.31
-12.49
-14.84
-17.31
-19.78
-22.02
-23.73
-24.51
-24.06
-22.19
-18.93
-14.53
-9.44
-4.20
0.67
4.67
7.52
9.16
9.78
9.75
9.46
9.19
8.99
8.79
8.46
8.02
7.67
7.71
8.32
9.48
10.90
12.20
13.07
13.41
13.28
12.86
12.26
11.47
10.42
9.06
7.40
5.54
3.61
1.75
0.02
-1.57
-3.04
-4.43
-5.78
-7.17
-8.64
-10.25
-12.04
-13.99
-16.00
-17.79
-18.96
-19.05
-17.72
-14.93
-11.02
-6.62
-2.38
1.21
3.96
5.95
7.33
8.20
8.51
8.20
7.28
5.92
4.43
3.10
2.19
1.80
1.95
2.57
3.54
4.66
5.70
6.37
6.53
6.15
5.33
4.21
2.93
1.54
0.02
-1.63
-3.32
-4.93
-6.34
-7.55
-8.69
-9.98
-11.67
-13.88
-16.57
-19.49
-22.26
-24.43
-25.65
-25.77
-24.79
-22.82
-20.03
-16.55
-12.54
-8.24
-3.99
-0.19
2.79
4.71
5.55
5.48
4.82
3.88
2.97
2.33
2.09
2.32
2.98
4.03
5.31
6.65
7.86
8.72
9.08
8.84
8.04
6.85
5.46
3.98
2.47
0.86
-0.91
-2.86
-4.93
-6.99
-9.03
-11.07
-13.19
-15.42
-17.59
-19.36
-20.27
-19.92
-18.12
-14.96
-10.76
-6.05
-1.34
2.93
6.43
8.96
10.44
10.86
10.30
8.93
7.06
5.01
3.15
1.77
1.05
0.98
1.39
2.07
2.78
3.37
3.77
4.00
4.06
3.96
3.62
2.94
1.80
0.13
-2.01
-4.38
-6.68
-8.61
-10.02
-11.08
-12.20
-13.80
-16.09
-18.83
-21.34
-22.80
-22.56
-20.46
-16.82
-12.26
-7.38
-2.58
2.01
6.29
10.04
12.92
14.57
14.85
14.01
12.58
11.21
10.34
10.08
10.30
10.76
11.31
11.93
12.73
13.72
14.77
15.62
15.96
15.57
14.39
12.59
10.44
8.25
6.20
4.35
2.61
0.87
-0.89
-2.67
-4.44
-6.24
-8.23
-10.59
-13.38
-16.31
-18.82
-20.18
-19.86
-17.69
-13.95
-9.18
-4.01
1.08
5.73
9.71
12.74
14.57
15.10
14.49
13.19
11.84
11.00
10.98
11.66
12.65
13.53
13.97
13.96
13.67
13.33
13.11
12.90
12.48
11.62
10.22
8.35
6.24
4.06
1.93
-0.26
-2.64
-5.26
-8.00
-10.64
-13.00
-15.07
-17.06
-19.28
-21.86
-24.61
-26.93
-28.05
-27.32
-24.53
-19.99
-14.42
-8.68
-3.49
0.74
3.88
6.02
7.27
7.74
7.52
6.74
5.58
4.36
3.39
2.90
2.98
3.59
4.50
5.44
6.13
6.38
6.08
5.22
3.90
2.26
0.48
-1.34
-3.12
-4.88
-6.66
-8.44
-10.20
-11.89
-13.53
-15.24
-17.11
-19.13
-21.10
-22.53
-22.85
-21.59
-18.57
-13.99
-8.43
-2.60
2.85
7.45
10.99
13.45
14.87
15.41
15.21
14.50
13.54
12.55
11.68
11.02
10.66
10.63
11.02
11.81
12.86
13.84
14.33
13.95
12.62
10.46
7.85
5.18
2.74
0.63
-1.14
-2.65
-3.95
-5.17
-6.48
-8.15
-10.42
-13.33
-16.63
-19.64
-21.50
-21.39
-18.88
-14.11
-7.73
-0.67
6.17
12.18
17.02
20.55
22.72
23.46
22.88
21.29
19.23
17.40
16.33
16.29
17.10
18.43
19.85
21.10
22.11
22.97
23.75
24.44
24.96
25.13
24.75
23.69
21.90
19.42
16.42
13.11
9.73
6.46
3.37
0.41
-2.56
-5.69
-9.20
-13.14
-17.45
-21.83
-25.75
-28.48
-29.34
-27.88
-24.18
-18.77
-12.49
-6.16
-0.38
4.63
8.85
12.21
14.51
15.44
14.80
12.78
9.95
7.20
5.33
4.87
5.80
7.72
10.03
12.16
13.81
14.90
15.53
15.87
15.89
15.51
14.56
12.96
10.79
8.29
5.75
3.46
1.43
-0.55
-2.75
-5.35
-8.26
-11.18
-13.76
-15.91
-17.98
-20.58
-24.15
-28.58
-32.99
-36.04
-36.45
-33.64
-28.10
-21.02
-13.79
-7.38
-2.05
2.47
6.52
10.18
13.06
14.58
14.38
12.64
10.09
7.74
6.47
6.70
8.19
10.30
12.26
13.52
13.95
13.68
12.98
12.09
11.07
9.90
8.52
6.95
5.23
3.46
1.70
0.01
-1.58
-3.03
-4.36
-5.65
-7.02
-8.63
-10.63
-13.05
-15.88
-19.00
-22.19
-25.15
-27.42
-28.51
-27.89
-25.26
-20.58
-14.25
-6.95
0.44
7.12
12.51
16.39
18.78
19.93
20.14
19.66
18.73
17.52
16.25
15.16
14.51
14.50
15.19
16.44
17.98
19.44
20.49
20.92
20.69
19.92
18.78
17.39
15.82
14.02
11.97
9.67
7.24
4.85
2.59
0.45
-1.68
-3.92
-6.36
-8.92
-11.50
-14.03
-16.58
-19.38
-22.65
-26.38
-30.16
-33.21
-34.62
-33.64
-30.07
-24.31
-17.25
-9.96
-3.30
2.25
6.57
9.75
11.91
13.09
13.32
12.74
11.64
10.44
9.56
9.25
9.52
10.23
11.16
12.12
13.02
13.80
14.37
14.58
14.27
13.32
11.80
9.93
8.07
6.49
5.37
4.69
4.22
3.70
2.88
1.65
-0.02
-2.06
-4.34
-6.66
-8.83
-10.70
-12.26
-13.71
-15.39
-17.69
-20.74
-24.31
-27.78
-30.28
-31.01
-29.51
-25.80
-20.30
-13.69
-6.67
0.18
6.38
11.55
15.36
17.62
18.34
17.80
16.52
15.06
13.94
13.37
13.34
13.68
14.21
14.84
15.54
16.28
16.97
17.41
17.39
16.76
15.46
13.57
11.24
8.59
5.75
2.81
-0.15
-2.97
-5.49
-7.60
-9.30
-10.78
-12.35
-14.38
-17.08
-20.43
-24.08
-27.44
-29.84
-30.72
-29.74
-26.91
-22.49
-16.98
-11.00
-5.16
0.04
4.27
7.36
9.33
10.23
10.21
9.51
8.40
7.22
6.26
5.76
5.77
6.25
7.04
7.95
8.85
9.60
10.10
10.31
10.18
9.70
8.93
8.01
7.06
6.18
5.40
4.59
3.55
2.02
-0.08
-2.61
-5.25
-7.54
-9.24
-10.41
-11.44
-12.81
-14.95
-17.90
-21.30
-24.50
-26.67
-27.07
-25.21
-20.99
-14.76
-7.29
0.43
7.46
13.15
17.27
19.96
21.53
22.26
22.38
22.05
21.43
20.72
20.16
19.91
20.03
20.51
21.32
22.38
23.53
24.53
25.10
25.00
24.21
22.90
21.35
19.70
17.93
15.89
13.49
10.83
8.24
6.09
4.51
3.27
1.92
0.07
-2.35
-4.99
-7.35
-9.11
-10.40
-11.83
-14.05
-17.40
-21.54
-25.58
-28.41
-29.21
-27.72
-24.36
-19.87
-14.90
-9.78
-4.53
0.86
6.06
10.24
12.21
10.89
5.88
-2.19
-11.77
-20.89
-27.85
-31.71
-32.52
-30.94
-27.85
-23.89
-19.41
-14.63
-9.90
-5.83
-3.17
-2.41
-3.50
-5.64
-7.50
-7.70
-5.27
-0.04
7.26
15.14
21.83
25.69
25.72
21.79
14.72
5.98
-2.81
-10.34
-16.03
-20.02
-22.93
-25.39
-27.70
-29.64
-30.57
-29.87
-27.21
-22.82
-17.36
-11.69
-6.44
-1.77
2.65
7.36
12.69
18.53
24.25
28.95
31.90
32.82
32.04
30.37
28.70
27.76
27.83
28.72
29.92
30.82
31.02
30.43
29.27
27.85
26.39
24.85
23.02
20.68
17.83
14.74
11.81
9.39
7.57
6.18
4.96
3.68
2.30
0.91
-0.42
-1.73
-3.22
-5.10
-7.44
-10.05
-12.51
-14.31
-15.07
-14.64
-13.22
-11.06
-8.41
-5.36
-1.92
1.80
5.46
8.54
10.49
10.98
10.09
8.27
6.18
4.37
3.15
2.51
2.21
1.98
1.55
0.77
-0.49
-2.38
-5.04
-8.44
-12.30
-16.05
-18.92
-20.23
-19.69
-17.45
-14.09
-10.38
-7.09
-4.86
-4.17
-5.23
-7.91
-11.65
-15.48
-18.32
-19.25
-17.88
-14.40
-9.28
-3.16
3.53
10.45
17.26
23.51
28.63
32.12
33.74
33.58
32.08
29.94
28.01
27.16
28.11
31.17
36.05
41.71
46.65
49.33
48.67
44.41
37.14
27.97
18.23
8.87
0.42
-7.09
-13.92
-20.48
-27.03
-33.56
-39.58
-44.48
-47.59
-48.58
-47.64
-45.46
-43.17
-41.99
-42.88
-46.33
-51.95
-58.43
-63.82
-66.16
-64.36
-58.77
-51.09
-43.79
-38.75
-36.30
-35.12
-33.01
-28.27
-20.88
-12.70
-6.71
-5.42
-9.52
-17.30
-25.38
-30.25
-29.87
-24.46
-16.39
-8.87
-4.59
-4.71
-8.77
-15.24
-22.35
-28.43
-32.06
-31.87
-26.69
-16.15
-1.43
14.52
27.59
33.93
31.41
20.40
3.42
-16.04
-34.87
-50.99
-63.19
-70.44
-71.51
-65.37
-52.09
-33.49
-13.00
5.57
19.60
28.70
34.55
39.60
45.43
51.84
57.10
59.23
57.42
52.70
47.57
44.70
45.66
50.25
56.77
62.92
66.79
67.41
64.83
59.74
53.05
45.60
38.10
31.13
25.15
20.38
16.65
13.28
9.24
3.47
-4.70
-15.13
-26.75
-37.77
-46.25
-50.86
-51.45
-49.13
-45.80
-43.27
-42.49
-43.13
-43.93
-43.28
-39.98
-33.62
-24.58
-13.64
-1.66
10.67
22.71
33.72
42.84
49.24
52.46
52.63
50.45
47.04
43.47
40.39
37.88
35.47
32.54
28.64
23.76
18.33
12.98
8.22
4.28
0.96
-2.10
-5.33
-9.06
-13.49
-18.74
-24.85
-31.67
-38.78
-45.44
-50.83
-54.36
-55.96
-56.18
-55.88
-55.88
-56.56
-57.54
-57.81
-56.07
-51.27
-43.10
-32.22
-20.22
-9.09
-0.76
3.60
3.87
1.17
-2.64
-5.59
-6.30
-4.53
-1.14
2.45
4.94
5.72
4.95
3.21
1.00
-1.55
-4.45
-7.38
-9.43
-9.26
-6.06
-0.34
5.87
9.59
8.38
1.56
-9.21
-20.49
-28.49
-30.57
-26.09
-16.32
-3.54
10.02
22.85
34.39
44.66
53.85
62.00
68.98
74.41
77.82
78.72
76.75
71.96
64.95
56.88
49.25
43.40
39.97
38.68
38.40
37.62
35.04
30.07
22.86
14.19
5.11
-3.43
-10.67
-16.21
-20.05
-22.64
-24.84
-27.66
-31.76
-37.03
-42.33
-45.85
-45.80
-41.29
-32.78
-21.91
-10.88
-1.63
4.78
8.16
8.93
7.70
5.01
1.32
-2.84
-6.82
-9.92
-11.65
-12.03
-11.65
-11.56
-12.88
-16.32
-21.90
-28.98
-36.46
-43.21
-48.33
-51.34
-52.05
-50.66
-47.65
-43.87
-40.40
-38.18
-37.62
-38.27
-38.87
-37.88
-34.19
-27.67
-19.14
-9.93
-1.17
6.76
14.14
21.51
29.01
36.09
41.73
45.00
45.61
44.16
41.87
39.90
38.74
38.03
36.82
34.21
29.97
24.72
19.78
16.59
16.18
18.73
23.72
30.15
36.92
43.07
47.94
51.10
52.40
51.90
50.03
47.56
45.44
44.61
45.66
48.55
52.47
55.85
56.67
53.04
43.85
29.35
11.36
-7.29
-23.62
-35.52
-42.36
-44.82
-44.35
-42.28
-39.39
-35.90
-31.81
-27.30
-22.81
-18.83
-15.64
-13.06
-10.61
-7.74
-4.06
0.51
5.67
10.87
15.41
18.64
20.08
19.68
17.79
15.02
11.91
8.63
4.85
-0.13
-6.81
-15.18
-24.42
-33.30
-40.63
-45.89
-49.45
-52.31
-55.39
-59.02
-62.59
-64.96
-64.91
-61.80
-55.77
-47.50
-37.87
-27.50
-16.72
-5.69
5.28
15.64
24.60
31.37
35.42
36.65
35.41
32.37
28.36
24.15
20.38
17.45
15.57
14.84
15.27
16.86
19.40
22.46
25.41
27.47
28.00
26.73
23.85
19.96
15.75
11.78
8.20
4.81
1.18
-2.98
-7.64
-12.36
-16.44
-19.19
-20.15
-19.24
-16.71
-12.98
-8.47
-3.54
1.44
6.08
9.89
12.43
13.37
12.75
10.90
8.36
5.66
3.17
1.04
-0.62
-1.74
-2.18
-1.86
-0.85
0.53
1.80
2.45
2.19
1.04
-0.75
-2.80
-4.80
-6.62
-8.33
-10.09
-12.10
-14.48
-17.28
-20.47
-23.93
-27.46
-30.77
-33.41
-34.82
-34.34
-31.48
-26.01
-18.30
-9.14
0.31
8.86
15.68
20.44
23.32
24.73
25.01
24.30
22.59
19.95
16.71
13.53
11.15
10.18
10.81
12.80
15.59
18.53
21.04
22.68
23.25
22.80
21.50
19.69
17.70
15.70
13.68
11.56
9.27
6.93
4.52
2.01
-0.82
-4.20
-8.16
-12.31
-15.94
-18.32
-19.12
-18.54
-17.12
-15.49
-13.89
-12.17
-10.04
-7.38
-4.66
-2.67
-2.32
-4.09
-7.80
-12.61
-17.46
-21.49
-24.44
-26.65
-28.70
-31.08
-33.85
-36.67
-39.09
-40.75
-41.80
-42.74
-44.18
-46.64
-50.31
-55.06
-60.61
-66.62
-72.80
-78.67
-83.49
-86.21
-85.85
-81.95
-74.96
-66.24
-57.70
-51.00
-46.79
-44.33
-41.66
-36.19
-25.67
-8.93
13.55
39.60
65.96
89.08
106.07
115.51
117.55
113.69
105.93
96.12
85.44
74.43
63.22
51.85
40.45
29.21
18.29
7.81
-2.07
-11.05
-18.67
-24.43
-27.95
-29.09
-27.99
-25.00
-20.46
-14.68
-7.89
-0.17
8.50
18.22
29.07
40.73
52.28
62.13
68.40
69.65
65.61
57.49
47.59
38.42
31.75
28.07
26.69
26.42
26.17
25.34
23.71
21.04
16.90
10.84
2.78
-6.66
-16.25
-24.55
-30.64
-34.50
-36.95
-39.31
-42.57
-46.81
-50.94
-53.02
-51.12
-44.26
-33.01
-19.51
-6.70
2.71
7.13
6.54
2.10
-4.54
-11.96
-19.29
-26.13
-32.30
-37.61
-41.92
-45.29
-48.13
-50.99
-54.34
-58.32
-62.61
-66.61
-69.53
-70.72
-69.68
-66.21
-60.46
-52.83
-43.99
-34.61
-25.20
-16.01
-7.10
1.48
9.51
16.62
22.50
27.05
30.63
33.82
37.14
40.73
44.17
46.70
47.63
46.64
43.96
40.11
35.64
30.79
25.48
19.58
13.13
6.46
0.07
-5.68
-10.85
-15.88
-21.32
-27.39
-33.75
-39.51
-43.57
-45.04
-43.53
-39.13
-32.26
-23.42
-13.12
-1.87
9.78
21.17
31.68
40.86
48.50
54.61
59.32
62.71
64.86
65.90
66.05
65.59
64.71
63.39
61.37
58.31
54.01
48.57
42.47
36.36
30.82
26.17
22.23
18.39
13.86
7.98
0.56
-8.00
-16.85
-25.00
-31.75
-36.94
-40.95
-44.48
-48.23
-52.59
-57.60
-62.97
-68.29
-73.06
-76.72
-78.68
-78.37
-75.50
-70.12
-62.69
-53.93
-44.59
-35.24
-26.21
-17.59
-9.43
-1.80
5.22
11.57
17.33
22.68
27.76
32.64
37.27
41.62
45.72
49.74
53.84
58.05
62.20
65.99
69.19
71.75
73.86
75.59
76.69
76.50
74.19
69.38
62.47
54.70
47.64
42.48
39.32
37.22
34.59
30.06
23.08
14.12
4.39
-4.73
-12.05
-16.79
-18.55
-17.32
-13.60
-8.33
-2.60
2.67
7.18
11.22
15.52
20.69
26.87
33.64
40.20
45.63
49.15
50.17
48.44
44.12
37.89
30.87
24.35
19.32
16.18
14.61
13.95
13.47
12.65
11.16
8.78
5.36
0.94
-4.17
-9.39
-14.02
-17.55
-19.90
-21.37
-22.54
-23.98
-26.18
-29.38
-33.61
-38.50
-43.42
-47.29
-49.09
-48.04
-44.09
-37.87
-30.47
-23.01
-16.29
-10.66
-6.08
-2.31
0.76
3.15
4.80
5.70
5.94
5.80
5.74
6.32
7.98
10.95
15.04
19.66
23.91
26.97
28.29
27.76
25.67
22.50
18.81
15.12
11.96
9.87
9.28
10.33
12.63
15.17
16.68
16.08
13.04
8.14
2.58
-2.30
-5.75
-7.86
-9.50
-11.85
-15.84
-21.67
-28.72
-35.63
-40.76
-42.66
-40.59
-34.72
-26.08
-16.16
-6.35
2.49
10.27
17.49
24.82
32.59
40.53
47.82
53.34
56.05
55.30
51.02
43.71
34.29
23.91
13.75
4.84
-1.99
-6.18
-7.52
-6.18
-2.63
2.46
8.44
14.80
21.15
27.16
32.40
36.38
38.61
38.75
36.66
32.36
25.92
17.45
7.20
-4.24
-15.89
-26.52
-34.99
-40.69
-43.77
-45.03
-45.60
-46.40
-47.73
-49.19
-49.84
-48.71
-45.29
-39.75
-32.90
-25.77
-19.15
-13.40
-8.38
-3.78
0.61
4.77
8.45
11.45
13.70
15.30
16.37
16.97
17.13
16.86
16.27
15.54
14.84
14.26
13.82
13.50
13.42
13.63
14.19
14.95
15.51
15.40
14.29
12.15
9.24
5.79
1.95
-2.32
-7.02
-11.96
-16.59
-20.25
-22.43
-23.17
-23.00
-22.67
-22.71
-23.13
-23.48
-23.17
-21.81
-19.50
-16.63
-13.56
-10.43
-7.01
-3.04
1.43
5.94
9.41
10.84
9.65
6.13
1.37
-3.15
-6.17
-7.14
-6.56
-5.43
-4.75
-4.95
-5.66
-6.07
-5.47
-3.87
-2.15
-1.55
-2.97
-6.31
-10.46
-13.80
-15.19
-14.48
-12.75
-11.58
-12.13
-14.56
-17.96
-21.02
-22.76
-23.05
-22.70
-22.77
-23.91
-26.06
-28.53
-30.51
-31.58
-31.82
-31.80
-32.12
-32.97
-33.99
-34.37
-33.23
-30.00
-24.55
-17.46
-9.58
-1.86
4.98
10.65
15.25
19.08
22.50
25.63
28.35
30.37
31.36
31.12
29.73
27.52
25.05
22.87
21.39
20.73
20.77
21.18
21.64
21.92
21.91
21.53
20.68
19.23
17.11
14.39
11.38
8.47
6.01
4.06
2.39
0.55
-1.83
-4.82
-8.12
-11.14
-13.30
-14.23
-13.97
-12.89
-11.59
-10.66
-10.53
-11.32
-12.79
-14.41
-15.52
-15.48
-13.88
-10.65
-6.10
-0.83
4.37
8.78
11.80
13.14
12.82
11.15
8.64
5.84
3.27
1.21
-0.27
-1.32
-2.24
-3.37
-4.90
-6.81
-8.88
-10.64
-11.64
-11.46
-9.93
-7.09
-3.22
1.28
5.96
10.41
14.23
17.07
18.63
18.76
17.51
15.10
11.91
8.36
4.70
1.00
-2.81
-6.78
-10.78
-14.50
-17.51
-19.54
-20.55
-20.79
-20.56
-19.97
-18.87
-16.87
-13.69
-9.37
-4.44
0.27
3.92
6.08
6.83
6.74
6.55
6.87
7.92
9.56
11.34
12.76
13.42
13.19
12.12
10.42
8.36
6.18
4.02
1.98
0.18
-1.17
-1.77
-1.31
0.40
3.24
6.71
10.07
12.53
13.60
13.24
11.92
10.36
9.23
8.91
9.41
10.41
11.49
12.34
12.69
12.40
11.38
9.60
7.25
4.77
2.83
2.06
2.80
4.82
7.40
9.63
10.74
10.46
9.07
7.09
4.94
2.68
0.03
-3.30
-7.29
-11.47
-15.03
-17.23
-17.79
-16.99
-15.47
-13.87
-12.51
-11.25
-9.82
-8.06
-6.24
-4.95
-4.88
-6.45
-9.59
-13.74
-18.08
-21.79
-24.34
-25.59
-25.78
-25.37
-24.94
-24.96
-25.80
-27.59
-30.29
-33.66
-37.31
-40.73
-43.29
-44.37
-43.46
-40.25
-34.80
-27.58
-19.37
-11.13
-3.79
1.98
5.86
7.99
8.75
8.68
8.24
7.74
7.30
6.94
6.66
6.41
6.15
5.80
5.31
4.69
4.00
3.38
2.98
2.87
3.05
3.45
4.00
4.60
5.15
5.53
5.63
5.37
4.73
3.79
2.57
1.09
-0.70
-2.77
-4.96
-6.99
-8.44
-8.96
-8.31
-6.44
-3.35
0.81
5.83
11.32
16.77
21.56
25.18
27.39
28.24
28.10
27.38
26.26
24.71
22.60
19.90
16.88
14.06
11.98
11.05
11.23
12.08
12.96
13.39
13.20
12.68
12.16
11.86
11.76
11.51
10.68
8.96
6.41
3.48
0.74
-1.45
-3.14
-4.32
-5.21
-6.22
-7.85
-10.33
-13.54
-16.83
-19.56
-21.17
-20.51
-16.94
-10.79
-3.31
4.16
10.63
16.15
20.96
25.25
30.31
36.69
43.69
49.66
53.27
54.19
53.87
53.98
55.91
62.36
75.05
93.89
116.88
141.07
163.09
180.49
190.84
182.15
148.93
96.20
37.31
-15.73
-56.32
-89.33
-118.61
-145.44
-169.35
-185.25
-189.60
-182.35
-166.87
-147.65
-128.19
-109.11
-89.85
-69.93
-48.42
-26.25
-5.99
9.14
17.21
18.30
14.84
9.38
3.65
-0.84
-3.86
-6.08
-8.56
-11.95
-16.23
-20.53
-24.09
-26.65
-27.82
-27.74
-26.82
-25.69
-24.84
-24.44
-24.23
-23.96
-23.57
-23.02
-22.50
-22.21
-22.36
-22.92
-23.72
-24.45
-24.98
-25.43
-26.07
-27.23
-28.98
-31.02
-32.63
-32.91
-31.04
-26.69
-20.14
-12.25
-4.11
3.35
9.63
14.73
18.93
22.45
25.27
27.17
27.94
27.62
26.57
25.40
24.61
24.45
24.80
25.33
25.73
25.88
25.84
25.78
25.73
25.54
24.94
23.69
21.75
19.29
16.72
14.38
12.44
10.78
9.13
7.21
4.93
2.44
0.09
-1.86
-3.37
-4.75
-6.52
-9.09
-12.51
-16.28
-19.57
-21.62
-21.95
-20.51
-17.56
-13.45
-8.47
-2.85
3.10
8.78
13.49
16.63
18.02
18.03
17.38
16.81
16.70
16.95
17.19
17.09
16.59
15.94
15.41
14.98
14.22
12.17
7.99
1.25
-7.56
-17.14
-25.72
-31.84
-34.78
-35.06
-33.85
-32.51
-31.81
-31.62
-31.08
-29.25
-25.73
-21.10
-16.65
-13.72
-13.06
-14.44
-16.92
-19.42
-21.25
-22.48
-23.55
-24.83
-26.02
-26.17
-24.13
-19.16
-11.40
-1.98
7.51
15.64
21.65
25.49
27.63
28.68
29.09
29.07
28.66
27.90
26.82
25.42
23.67
21.56
19.11
16.43
13.73
11.21
8.94
6.91
5.05
3.33
1.81
0.60
-0.21
-0.64
-0.71
-0.37
0.50
2.08
4.37
6.98
9.12
9.88
8.53
4.94
-0.19
-5.56
-9.61
-11.14
-9.65
-5.49
0.27
6.35
11.65
15.62
18.32
20.32
22.27
24.61
27.35
30.06
32.15
33.10
32.83
31.67
30.19
29.00
28.43
28.46
28.75
28.94
28.74
28.17
27.38
26.53
25.58
24.25
22.20
19.17
15.18
10.47
5.25
-0.47
-7.00
-14.62
-23.13
-31.56
-38.21
-41.38
-40.22
-35.35
-28.81
-23.27
-20.91
-22.49
-27.17
-33.00
-37.79
-39.98
-38.86
-34.49
-27.40
-18.35
-8.33
1.42
9.52
14.84
16.97
16.48
14.73
13.28
13.13
14.33
16.07
17.24
17.15
15.98
14.62
14.21
15.43
18.08
21.07
22.90
22.13
17.96
10.46
0.76
-9.11
-16.57
-19.01
-14.65
-3.45
12.40
28.66
40.38
43.72
37.70
24.70
9.47
-2.94
-9.32
-9.29
-4.78
1.43
7.27
12.00
15.86
19.13
21.41
21.63
18.65
12.03
2.45
-8.34
-17.97
-24.08
-25.03
-20.37
-11.13
0.54
12.11
21.64
28.43
33.10
36.78
40.30
43.60
45.81
46.04
44.05
40.69
37.48
35.94
36.77
39.57
42.93
45.01
44.15
39.51
31.30
20.71
9.47
-0.80
-9.01
-14.83
-18.45
-20.30
-20.75
-20.17
-19.13
-18.64
-19.79
-23.37
-29.24
-36.20
-42.50
-46.69
-48.38
-48.39
-48.21
-49.08
-51.36
-54.31
-56.73
-57.71
-57.19
-56.02
-55.30
-55.72
-57.07
-58.29
-58.15
-55.82
-51.38
-45.61
-39.69
-34.55
-30.62
-27.84
-25.96
-24.85
-24.56
-25.22
-26.65
-28.27
-29.14
-28.36
-25.48
-20.68
-14.73
-8.53
-2.88
1.84
5.48
8.10
9.77
10.62
10.91
11.03
11.36
12.11
13.11
13.96
14.23
13.80
12.91
12.13
12.07
13.07
15.13
17.79
20.39
22.28
23.04
22.74
21.79
20.82
20.40
20.76
21.71
22.72
23.08
22.29
20.17
17.04
13.56
10.55
8.72
8.58
10.23
13.45
17.64
21.90
25.14
26.36
25.10
21.83
18.10
16.03
17.55
23.54
33.23
44.46
54.40
60.70
62.21
59.23
53.14
45.57
37.90
30.95
25.13
20.56
17.19
14.68
12.39
9.63
6.05
2.02
-1.42
-2.99
-1.92
1.48
5.76
8.88
9.17
5.87
-0.69
-9.62
-19.89
-30.51
-40.39
-48.20
-52.63
-52.93
-49.48
-43.81
-37.97
-33.55
-30.92
-29.19
-26.81
-22.50
-15.83
-7.28
2.28
12.10
21.78
31.14
39.81
47.00
51.45
51.93
47.80
39.61
29.39
20.16
14.98
15.60
21.58
30.41
38.46
42.65
41.56
35.67
26.58
15.96
4.80
-6.45
-17.40
-27.11
-34.16
-37.26
-35.99
-31.09
-24.29
-17.63
-12.86
-10.95
-12.27
-16.68
-23.72
-32.67
-42.60
-52.41
-61.05
-67.76
-72.13
-74.07
-73.55
-70.54
-65.03
-57.06
-47.06
-36.02
-25.62
-17.71
-13.62
-13.48
-15.98
-18.93
-20.16
-18.64
-14.87
-10.82
-8.46
-8.92
-11.61
-14.70
-16.23
-14.99
-11.06
-5.53
0.00
4.53
7.58
9.57
11.10
12.41
13.29
13.20
13.37
14.59
16.87
18.87
19.52
18.66
16.82
14.64
12.40
9.69
4.42
-4.32
-17.13
-33.05
-49.79
-64.37
-73.99
-76.64
-71.42
-58.72
-36.72
-6.91
27.46
61.80
90.91
110.20
117.14
112.02
97.73
78.90
59.71
43.38
31.41
23.62
18.74
15.40
12.62
9.93
7.23
4.10
0.33
-4.19
-9.53
-15.58
-21.93
-27.84
-32.81
-36.52
-39.29
-41.19
-42.02
-41.54
-39.66
-36.54
-32.84
-29.54
-27.61
-27.62
-28.80
-29.57
-28.68
-25.91
-22.13
-18.51
-15.96
-14.38
-12.80
-9.05
-0.79
13.21
32.28
54.23
76.05
94.38
106.38
107.14
94.32
70.82
43.39
18.50
0.02
-9.83
-10.92
-2.76
14.12
37.61
63.48
86.45
102.12
106.87
100.46
85.38
65.36
43.54
22.29
3.00
-13.71
-27.75
-39.39
-48.84
-56.58
-63.02
-68.44
-72.31
-73.65
-71.79
-66.97
-60.40
-53.59
-47.94
-44.25
-42.63
-42.46
-42.77
-42.83
-42.32
-41.32
-39.92
-38.26
-36.51
-35.20
-35.24
-37.79
-43.59
-52.17
-61.44
-68.10
-69.15
-63.44
-52.40
-39.28
-27.36
-18.17
-10.80
-2.98
7.05
18.97
30.11
36.96
37.11
30.74
20.44
9.85
1.96
-2.08
-2.88
-2.05
-0.98
-0.23
0.46
1.63
3.40
5.28
6.27
5.53
2.78
-1.40
-5.85
-9.31
-10.91
-10.49
-8.56
-6.05
-3.95
-2.96
-3.37
-4.99
-7.37
-9.98
-12.45
-14.67
-16.82
-19.21
-22.11
-25.58
-29.42
-33.14
-36.07
-37.59
-37.25
-34.88
-30.71
-25.26
-19.20
-13.13
-7.45
-2.32
2.21
6.11
9.23
11.37
12.36
12.26
11.29
9.87
8.45
7.43
7.01
7.27
8.12
9.37
10.80
12.23
13.55
14.71
15.65
16.20
16.10
15.06
12.92
9.90
6.48
3.28
0.81
-0.74
-1.51
-1.80
-1.90
-2.01
-2.20
-2.51
-2.88
-3.13
-2.94
-1.92
-0.05
2.01
2.95
1.28
-3.85
-11.93
-20.94
-27.98
-30.31
-26.51
-16.90
-3.36
11.55
25.43
36.65
44.43
48.58
49.32
47.14
42.77
37.24
31.69
27.11
24.17
23.03
23.45
24.85
26.57
28.05
28.90
28.99
28.44
27.48
26.39
25.33
24.22
22.88
21.11
18.92
16.55
14.45
13.07
12.56
12.69
12.85
12.29
10.40
6.91
2.00
-3.79
-9.80
-15.39
-20.07
-23.51
-25.45
-25.66
-24.02
-20.63
-15.86
-10.35
-4.86
-0.08
3.54
5.79
6.65
6.21
4.62
2.21
-0.47
-2.67
-3.66
-3.03
-0.88
2.15
5.19
7.53
8.87
9.32
9.27
9.07
8.89
8.67
8.32
7.76
6.99
6.07
4.97
3.59
1.78
-0.56
-3.36
-6.44
-9.54
-12.57
-15.56
-18.63
-21.81
-24.84
-27.18
-28.16
-27.29
-24.44
-19.95
-14.50
-8.85
-3.58
0.97
4.66
7.40
9.11
9.71
9.18
7.70
5.68
3.59
1.90
0.74
0.05
-0.50
-1.20
-2.18
-3.36
-4.50
-5.44
-6.26
-7.25
-8.80
-11.14
-14.27
-17.91
-21.77
-25.62
-29.47
-33.37
-37.29
-40.95
-43.88
-45.62
-45.90
-44.76
-42.59
-39.80
-36.50
-32.39
-26.79
-19.00
-8.66
3.94
17.83
31.64
44.06
54.28
62.02
67.53
71.21
73.36
74.04
73.22
70.99
67.72
63.95
60.31
57.23
54.87
53.12
51.73
50.45
49.11
47.64
46.01
44.22
42.29
40.20
37.88
35.24
32.23
28.80
24.97
20.87
16.70
12.69
9.01
5.73
2.81
0.10
-2.59
-5.38
-8.33
-11.46
-14.76
-18.26
-21.96
-25.74
-29.22
-31.70
-32.43
-30.78
-26.60
-20.30
-12.75
-4.99
2.11
8.07
12.78
16.44
19.28
21.42
22.82
23.36
23.03
22.00
20.69
19.61
19.13
19.37
20.14
21.03
21.68
21.90
21.77
21.50
21.20
20.86
20.27
19.19
17.48
15.22
12.63
9.99
7.50
5.20
3.03
0.81
-1.59
-4.21
-6.91
-9.50
-11.76
-13.62
-15.20
-16.78
-18.71
-21.26
-24.42
-27.88
-31.06
-33.27
-33.86
-32.42
-28.90
-23.58
-17.03
-9.95
-3.00
3.25
8.37
12.08
14.24
14.93
14.43
13.28
12.01
11.08
10.71
10.85
11.33
11.94
12.62
13.38
14.30
15.32
16.30
17.03
17.36
17.29
16.92
16.36
15.64
14.59
13.03
10.83
8.10
5.18
2.50
0.39
-1.11
-2.24
-3.45
-5.12
-7.43
-10.29
-13.40
-16.42
-19.03
-20.93
-21.78
-21.29
-19.19
-15.37
-10.02
-3.66
2.95
9.05
13.99
17.47
19.47
20.19
19.93
18.95
17.46
15.68
13.81
12.10
10.80
10.11
10.06
10.42
10.80
10.81
10.25
9.18
7.92
6.71
5.61
4.33
2.44
-0.30
-3.73
-7.29
-10.25
-12.11
-12.90
-13.15
-13.67
-15.09
-17.59
-20.87
-24.36
-27.46
-29.81
-31.36
-32.14
-32.08
-30.91
-28.22
-23.77
-17.71
-10.71
-3.81
2.00
6.10
8.47
9.50
9.74
9.60
9.30
8.87
8.34
7.81
7.43
7.33
7.52
7.91
8.36
8.72
8.87
8.71
8.15
7.13
5.71
4.05
2.38
0.89
-0.39
-1.58
-2.87
-4.42
-6.28
-8.29
-10.19
-11.78
-13.03
-14.09
-15.25
-16.84
-19.04
-21.82
-24.95
-28.05
-30.72
-32.54
-33.12
-32.17
-29.49
-25.14
-19.47
-13.09
-6.69
-0.93
3.78
7.34
9.83
11.49
12.55
13.26
13.77
14.21
14.64
15.06
15.42
15.66
15.80
15.91
16.08
16.32
16.56
16.57
16.09
14.94
13.14
10.92
8.62
6.55
4.84
3.41
1.99
0.30
-1.78
-4.15
-6.53
-8.61
-10.25
-11.48
-12.56
-13.81
-15.48
-17.64
-20.21
-22.99
-25.68
-27.88
-29.14
-29.00
-27.10
-23.30
-17.84
-11.29
-4.46
1.84
7.02
10.86
13.44
15.04
15.89
16.10
15.68
14.68
13.31
12.05
11.43
11.85
13.35
15.53
17.75
19.40
20.21
20.28
19.90
19.29
18.39
16.83
14.18
10.28
5.37
0.05
-4.96
-9.16
-12.47
-15.18
-17.76
-20.57
-23.76
-27.20
-30.61
-33.66
-35.99
-37.32
-37.41
-36.14
-33.53
-29.77
-25.19
-20.19
-15.13
-10.30
-5.90
-2.07
1.07
3.43
5.02
5.93
6.38
6.66
7.04
7.71
8.75
10.10
11.62
13.18
14.63
15.85
16.71
17.09
16.90
16.13
14.87
13.26
11.47
9.52
7.35
4.88
2.10
-0.85
-3.65
-6.00
-7.75
-8.96
-9.95
-11.12
-12.82
-15.21
-18.12
-21.15
-23.80
-25.51
-25.86
-24.66
-21.94
-17.98
-13.19
-8.06
-3.08
1.35
4.97
7.66
9.50
10.65
11.36
11.86
12.27
12.65
12.96
13.18
13.32
13.41
13.53
13.71
13.89
13.91
13.57
12.76
11.45
9.81
8.06
6.43
5.01
3.77
2.59
1.39
0.12
-1.16
-2.41
-3.59
-4.75
-5.91
-7.09
-8.23
-9.31
-10.36
-11.52
-13.00
-14.98
-17.48
-20.24
-22.81
-24.56
-24.94
-23.55
-20.35
-15.67
-10.13
-4.54
0.42
4.28
6.96
8.62
9.63
10.28
10.77
11.14
11.38
11.49
11.53
11.57
11.67
11.83
11.98
12.08
12.14
12.24
12.42
12.62
12.62
12.17
11.14
9.59
7.83
6.20
4.92
3.88
2.79
1.32
-0.62
-2.87
-4.98
-6.55
-7.41
-7.80
-8.20
-9.09
-10.69
-12.92
-15.40
-17.76
-19.75
-21.35
-22.60
-23.41
-23.49
-22.42
-19.87
-15.88
-10.88
-5.67
-1.08
2.31
4.36
5.34
5.73
5.96
6.25
6.56
6.75
6.68
6.43
6.23
6.36
7.03
8.20
9.56
10.76
11.46
11.61
11.33
10.86
10.29
9.63
8.71
7.36
5.60
3.57
1.55
-0.28
-1.85
-3.24
-4.55
-5.85
-7.11
-8.31
-9.49
-10.82
-12.48
-14.58
-17.02
-19.44
-21.35
-22.29
-21.95
-20.34
-17.65
-14.25
-10.46
-6.57
-2.76
0.79
3.91
6.39
8.04
8.79
8.74
8.14
7.31
6.51
5.92
5.62
5.61
5.92
6.58
7.58
8.78
9.91
10.64
10.70
10.00
8.66
6.99
5.31
3.84
2.63
1.54
0.41
-0.90
-2.38
-3.91
-5.35
-6.67
-7.99
-9.53
-11.47
-13.89
-16.72
-19.70
-22.47
-24.63
-25.82
-25.75
-24.26
-21.40
-17.41
-12.72
-7.84
-3.25
0.65
3.64
5.63
6.68
6.98
6.80
6.41
6.06
5.84
5.74
5.70
5.65
5.67
5.88
6.37
7.14
8.01
8.71
8.99
8.76
8.15
7.44
6.87
6.57
6.43
6.20
5.65
4.71
3.51
2.30
1.31
0.60
0.02
-0.64
-1.58
-2.75
-3.97
-5.04
-5.98
-7.00
-8.46
-10.59
-13.20
-15.75
-17.43
-17.62
-16.14
-13.26
-9.56
-5.56
-1.51
2.55
6.58
10.33
13.31
15.01
15.25
14.35
12.98
11.89
11.58
11.99
12.69
13.17
13.13
12.62
12.01
11.65
11.73
12.07
12.21
11.77
10.59
8.89
7.11
5.75
5.00
4.62
4.08
2.85
0.73
-1.99
-4.72
-6.86
-8.11
-8.71
-9.21
-10.18
-11.92
-14.31
-16.96
-19.44
-21.46
-23.03
-24.23
-25.09
-25.43
-24.94
-23.28
-20.37
-16.39
-11.80
-7.11
-2.83
0.68
3.28
4.93
5.73
5.90
5.69
5.32
4.92
4.55
4.22
4.00
4.00
4.34
5.07
6.10
7.20
8.12
8.69
8.86
8.72
8.36
7.84
7.19
6.37
5.39
4.30
3.14
2.00
0.91
-0.07
-0.95
-1.79
-2.73
-4.00
-5.82
-8.28
-11.24
-14.31
-16.97
-18.69
-19.12
-18.18
-15.99
-12.84
-9.02
-4.82
-0.50
3.69
7.47
10.53
12.61
13.56
13.42
12.48
11.15
9.87
8.93
8.43
8.27
8.31
8.51
8.95
9.74
10.89
12.17
13.15
13.39
12.65
11.05
9.01
7.02
5.43
4.23
3.15
1.79
-0.06
-2.34
-4.74
-6.87
-8.51
-9.67
-10.61
-11.59
-12.82
-14.35
-16.14
-18.10
-20.21
-22.36
-24.36
-25.88
-26.47
-25.76
-23.59
-20.14
-15.84
-11.28
-7.00
-3.34
-0.40
1.88
3.62
4.90
5.77
6.27
6.48
6.54
6.62
6.85
7.27
7.89
8.66
9.55
10.55
11.58
12.54
13.23
13.47
13.14
12.18
10.63
8.62
6.31
3.92
1.69
-0.16
-1.51
-2.34
-2.84
-3.24
-3.80
-4.66
-5.77
-6.95
-7.96
-8.62
-8.96
-9.23
-9.82
-11.08
-13.08
-15.54
-17.83
-19.25
-19.21
-17.45
-14.16
-9.77
-4.82
0.21
4.92
9.00
12.17
14.14
14.83
14.35
13.14
11.72
10.58
9.93
9.68
9.61
9.49
9.30
9.16
9.23
9.54
9.94
10.17
10.01
9.39
8.45
7.40
6.39
5.44
4.43
3.22
1.76
0.11
-1.57
-3.14
-4.55
-5.90
-7.33
-8.96
-10.91
-13.18
-15.75
-18.53
-21.34
-23.94
-25.95
-27.02
-26.85
-25.31
-22.45
-18.51
-13.80
-8.71
-3.61
1.10
5.03
7.91
9.61
10.21
9.99
9.28
8.40
7.54
6.80
6.20
5.82
5.71
5.97
6.59
7.47
8.42
9.28
9.90
10.25
10.27
9.95
9.21
8.03
6.49
4.74
3.01
1.48
0.21
-0.86
-1.94
-3.27
-5.11
-7.57
-10.59
-13.92
-17.12
-19.63
-20.90
-20.57
-18.55
-15.06
-10.53
-5.50
-0.48
4.09
7.88
10.70
12.44
13.19
13.12
12.47
11.43
10.11
8.61
7.10
5.87
5.30
5.64
6.87
8.52
9.99
10.72
10.55
9.74
8.79
8.11
7.77
7.45
6.70
5.24
3.16
0.88
-1.09
-2.48
-3.30
-3.90
-4.67
-5.87
-7.50
-9.41
-11.39
-13.31
-15.08
-16.56
-17.49
-17.48
-16.17
-13.37
-9.27
-4.34
0.78
5.46
9.30
12.15
14.02
15.07
15.43
15.23
14.64
13.88
13.18
12.70
12.51
12.55
12.69
12.86
13.05
13.34
13.74
14.18
14.42
14.25
13.54
12.37
10.96
9.58
8.34
7.19
5.91
4.27
2.20
-0.22
-2.79
-5.25
-7.44
-9.29
-10.79
-11.99
-13.01
-13.98
-15.05
-16.33
-17.75
-19.11
-20.01
-20.05
-18.92
-16.58
-13.20
-9.19
-4.97
-0.93
2.63
5.53
7.64
8.90
9.32
9.00
8.20
7.24
6.44
6.04
6.06
6.40
6.89
7.38
7.82
8.22
8.56
8.77
8.72
8.29
7.47
6.36
5.10
3.79
2.41
0.88
-0.91
-2.93
-5.04
-7.07
-8.86
-10.34
-11.59
-12.72
-13.93
-15.34
-17.00
-18.84
-20.62
-22.02
-22.67
-22.26
-20.66
-17.90
-14.13
-9.63
-4.80
-0.04
4.19
7.49
9.59
10.48
10.31
9.36
7.97
6.40
4.88
3.61
2.78
2.50
2.82
3.55
4.41
5.07
5.31
5.06
4.37
3.44
2.41
1.44
0.53
-0.35
-1.31
-2.43
-3.78
-5.32
-6.93
-8.46
-9.80
-10.94
-11.98
-13.04
-14.12
-14.99
-15.29
-14.64
-12.91
-10.23
-6.96
-3.54
-0.20
2.97
6.01
8.83
11.18
12.69
13.10
12.49
11.29
10.12
9.47
9.48
9.92
10.37
10.49
10.23
9.79
9.45
9.40
9.41
9.14
8.21
6.56
4.43
2.31
0.63
-0.45
-1.22
-2.16
-3.69
-5.86
-8.41
-10.83
-12.76
-14.10
-15.18
-16.38
-17.86
-19.30
-20.01
-19.20
-16.47
-11.97
-6.47
-0.96
3.70
7.14
9.43
10.91
11.90
12.60
13.00
13.08
12.92
12.71
12.68
12.97
13.60
14.49
15.46
16.31
16.89
17.06
16.79
16.12
15.19
14.15
13.12
12.07
10.92
9.57
7.95
6.12
4.20
2.37
0.79
-0.44
-1.30
-1.88
-2.42
-3.21
-4.58
-6.74
-9.67
-13.10
-16.53
-19.38
-21.07
-21.22
-19.68
-16.57
-12.27
-7.35
-2.44
1.88
5.28
7.65
9.11
9.93
10.37
10.62
10.74
10.76
10.71
10.65
10.71
10.96
11.39
11.85
12.14
12.08
11.61
10.81
9.85
8.86
7.90
6.92
5.84
4.66
3.45
2.28
1.17
0.04
-1.22
-2.66
-4.20
-5.67
-6.87
-7.74
-8.40
-9.07
-9.98
-11.29
-12.98
-14.94
-16.95
-18.74
-20.01
-20.40
-19.65
-17.62
-14.41
-10.36
-5.96
-1.72
1.93
4.79
6.78
7.97
8.51
8.52
8.10
7.35
6.35
5.25
4.26
3.59
3.35
3.56
4.05
4.55
4.83
4.76
4.38
3.80
3.23
2.76
2.42
2.15
1.84
1.44
0.89
0.23
-0.48
-1.18
-1.83
-2.44
-3.08
-3.78
-4.56
-5.43
-6.40
-7.58
-9.10
-11.05
-13.39
-15.75
-17.60
-18.35
-17.58
-15.28
-11.81
-7.79
-3.87
-0.50
2.15
4.12
5.57
6.59
7.19
7.32
6.99
6.35
5.66
5.21
5.16
5.46
5.86
6.09
5.99
5.65
5.28
5.09
5.17
5.41
5.60
5.53
5.09
4.28
3.20
1.95
0.65
-0.70
-2.08
-3.53
-5.10
-6.79
-8.61
-10.52
-12.49
-14.42
-16.16
-17.44
-17.92
-17.28
-15.33
-12.19
-8.22
-3.95
0.13
3.69
6.67
9.12
11.14
12.68
13.59
13.67
12.88
11.43
9.71
8.25
7.40
7.25
7.58
8.08
8.43
8.52
8.36
8.07
7.70
7.23
6.53
5.50
4.11
2.41
0.54
-1.32
-2.99
-4.34
-5.30
-5.95
-6.46
-7.07
-7.99
-9.35
-11.10
-13.08
-15.03
-16.64
-17.59
-17.59
-16.49
-14.31
-11.29
-7.79
-4.21
-0.90
1.96
4.35
6.29
7.80
8.86
9.43
9.50
9.12
8.47
7.79
7.31
7.21
7.52
8.13
8.83
9.46
9.91
10.22
10.48
10.67
10.71
10.36
9.40
7.76
5.62
3.30
1.21
-0.41
-1.56
-2.38
-3.10
-3.86
-4.66
-5.51
-6.41
-7.59
-9.31
-11.76
-14.83
-18.00
-20.51
-21.65
-21.04
-18.89
-15.76
-12.35
-9.15
-6.27
-3.57
-0.89
1.74
3.99
5.50
6.03
5.69
4.86
4.03
3.60
3.69
4.25
5.10
6.06
7.01
7.84
8.49
8.88
9.01
8.93
8.68
8.30
7.70
6.75
5.33
3.46
1.32
-0.78
-2.55
-3.88
-4.84
-5.73
-6.85
-8.43
-10.49
-12.87
-15.27
-17.42
-19.06
-19.99
-20.05
-19.13
-17.17
-14.27
-10.68
-6.84
-3.21
-0.17
2.08
3.55
4.40
4.85
5.07
5.15
5.10
4.89
4.57
4.20
3.91
3.82
3.97
4.36
4.89
5.47
5.99
6.36
6.54
6.50
6.20
5.65
4.83
3.75
2.41
0.83
-0.92
-2.75
-4.54
-6.25
-7.93
-9.68
-11.59
-13.58
-15.39
-16.56
-16.69
-15.51
-13.07
-9.71
-5.91
-2.18
1.13
3.88
6.01
7.54
8.41
8.52
7.80
6.32
4.41
2.54
1.26
0.89
1.45
2.60
3.86
4.81
5.27
5.34
5.21
5.04
4.78
4.29
3.39
2.06
0.43
-1.26
-2.77
-3.96
-4.87
-5.64
-6.47
-7.54
-8.94
-10.69
-12.72
-14.83
-16.70
-17.93
-18.10
-16.92
-14.38
-10.78
-6.65
-2.61
0.87
3.59
5.64
7.24
8.58
9.73
10.60
11.09
11.14
10.79
10.23
9.69
9.39
9.43
9.78
10.26
10.63
10.73
10.50
10.09
9.67
9.22
8.62
7.58
5.96
3.86
1.71
-0.03
-1.09
-1.62
-2.12
-3.10
-4.82
-7.11
-9.54
-11.70
-13.49
-15.14
-16.90
-18.81
-20.51
-21.32
-20.63
-18.17
-14.19
-9.47
-4.89
-1.12
1.61
3.52
5.00
6.39
7.74
8.76
9.07
8.45
7.06
5.42
4.27
4.15
5.21
7.11
9.14
10.61
11.13
10.75
9.85
8.94
8.38
8.22
8.19
7.94
7.19
5.88
4.19
2.40
0.75
-0.71
-2.09
-3.59
-5.39
-7.56
-10.05
-12.74
-15.43
-17.89
-19.83
-20.94
-20.93
-19.56
-16.77
-12.72
-7.72
-2.25
3.15
7.96
11.74
14.23
15.42
15.47
14.76
13.70
12.60
11.65
10.89
10.29
9.82
9.49
9.29
9.17
9.01
8.68
8.12
7.36
6.56
5.80
5.13
4.45
3.64
2.63
1.46
0.26
-0.84
-1.73
-2.42
-2.97
-3.54
-4.28
-5.38
-6.99
-9.12
-11.59
-13.98
-15.68
-16.13
-14.98
-12.24
-8.30
-3.78
0.66
4.56
7.72
10.13
11.93
13.16
13.77
13.63
12.72
11.22
9.55
8.17
7.44
7.45
8.01
8.75
9.32
9.59
9.60
9.50
9.36
9.11
8.59
7.60
6.09
4.19
2.17
0.30
-1.24
-2.40
-3.36
-4.35
-5.64
-7.35
-9.47
-11.84
-14.17
-16.19
-17.66
-18.38
-18.13
-16.75
-14.15
-10.42
-5.95
-1.34
2.74
5.80
7.64
8.46
8.64
8.52
8.32
7.99
7.50
6.82
6.15
5.81
6.07
7.01
8.39
9.78
10.67
10.80
10.23
9.25
8.22
7.27
6.28
4.99
3.19
0.90
-1.64
-4.03
-6.00
-7.47
-8.63
-9.77
-11.16
-12.97
-15.20
-17.75
-20.38
-22.80
-24.62
-25.48
-25.04
-23.10
-19.69
-15.06
-9.69
-4.15
0.96
5.20
8.31
10.29
11.26
11.47
11.15
10.50
9.70
8.90
8.24
7.86
7.82
8.11
8.62
9.20
9.73
10.09
10.27
10.26
10.04
9.54
8.74
7.60
6.19
4.55
2.76
0.86
-1.09
-3.01
-4.76
-6.26
-7.57
-8.91
-10.60
-12.88
-15.81
-19.13
-22.34
-24.92
-26.46
-26.73
-25.71
-23.44
-20.00
-15.55
-10.36
-4.85
0.42
4.90
8.25
10.36
11.39
11.62
11.32
10.71
9.96
9.23
8.76
8.79
9.46
10.71
12.25
13.68
14.57
14.69
14.02
12.77
11.30
9.93
8.88
8.16
7.60
6.97
6.14
5.11
4.04
3.04
2.15
1.24
0.13
-1.33
-3.15
-5.24
-7.45
-9.66
-11.69
-13.35
-14.32
-14.25
-12.84
-10.01
-5.95
-1.16
3.72
8.10
11.56
13.96
15.35
15.90
15.77
15.01
13.71
12.03
10.32
9.06
8.69
9.37
10.95
12.87
14.46
15.19
14.91
13.85
12.48
11.23
10.31
9.59
8.76
7.52
5.79
3.76
1.81
0.26
-0.80
-1.65
-2.77
-4.64
-7.45
-11.06
-15.04
-18.79
-21.81
-23.69
-24.23
-23.34
-21.08
-17.63
-13.26
-8.38
-3.43
1.13
4.90
7.64
9.27
9.91
9.81
9.31
8.74
8.32
8.15
8.28
8.68
9.33
10.23
11.34
12.58
13.80
14.81
15.45
15.59
15.17
14.20
12.72
10.83
8.68
6.48
4.42
2.61
1.04
-0.43
-1.95
-3.63
-5.41
-7.16
-8.76
-10.25
-11.81
-13.70
-16.16
-19.17
-22.47
-25.60
-28.03
-29.29
-29.05
-27.11
-23.48
-18.37
-12.23
-5.72
0.43
5.58
9.33
11.66
12.83
13.21
13.16
12.89
12.53
12.18
11.94
11.96
12.30
12.94
13.71
14.44
14.94
15.17
15.22
15.15
15.00
14.67
14.04
12.96
11.44
9.58
7.60
5.73
4.06
2.56
1.09
-0.53
-2.43
-4.59
-6.89
-9.16
-11.25
-13.08
-14.73
-16.32
-18.08
-20.17
-22.66
-25.45
-28.21
-30.41
-31.42
-30.78
-28.27
-24.12
-18.88
-13.27
-7.96
-3.34
0.45
3.50
5.88
7.57
8.44
8.43
7.68
6.55
5.52
4.96
5.01
5.56
6.39
7.33
8.36
9.48
10.59
11.43
11.68
11.13
9.85
8.22
6.68
5.58
4.93
4.48
3.89
2.96
1.72
0.39
-0.79
-1.71
-2.56
-3.69
-5.43
-7.94
-10.97
-14.02
-16.39
-17.48
-17.08
-15.27
-12.40
-8.84
-4.84
-0.51
4.07
8.70
12.92
16.18
18.04
18.38
17.50
15.94
14.33
13.08
12.27
11.76
11.34
10.97
10.77
11.03
11.92
13.41
15.14
16.55
17.18
16.82
15.62
14.04
12.55
11.41
10.54
9.54
7.95
5.53
2.42
-0.96
-4.04
-6.45
-8.16
-9.48
-10.86
-12.73
-15.27
-18.36
-21.63
-24.56
-26.66
-27.53
-26.93
-24.79
-21.26
-16.64
-11.37
-6.00
-1.03
3.09
6.11
7.99
8.90
9.16
9.10
8.94
8.74
8.49
8.16
7.86
7.75
8.03
8.78
9.93
11.23
12.43
13.33
13.84
13.94
13.64
12.90
11.68
10.01
8.02
5.93
3.98
2.30
0.84
-0.58
-2.17
-4.07
-6.24
-8.52
-10.67
-12.56
-14.18
-15.66
-17.20
-18.98
-21.09
-23.41
-25.72
-27.61
-28.63
-28.35
-26.47
-22.95
-18.06
-12.35
-6.54
-1.37
2.67
5.38
6.91
7.59
7.78
7.74
7.57
7.32
7.03
6.87
7.06
7.72
8.84
10.21
11.51
12.45
12.87
12.78
12.29
11.54
10.58
9.43
8.08
6.57
4.97
3.41
2.03
0.91
0.02
-0.78
-1.67
-2.78
-4.17
-5.81
-7.54
-9.24
-10.83
-12.30
-13.74
-15.28
-16.99
-18.91
-20.88
-22.60
-23.65
-23.61
-22.25
-19.65
-16.16
-12.33
-8.65
-5.44
-2.76
-0.52
1.36
2.84
3.74
3.92
3.39
2.45
1.53
1.09
1.39
2.39
3.85
5.42
6.85
8.02
8.90
9.48
9.72
9.59
9.11
8.37
7.55
6.79
6.11
5.49
4.78
3.90
2.81
1.57
0.27
-1.01
-2.29
-3.67
-5.29
-7.29
-9.66
-12.24
-14.65
-16.44
-17.16
-16.54
-14.57
-11.51
-7.70
-3.52
0.77
4.96
8.83
12.10
14.41
15.50
15.33
14.11
12.26
10.33
8.74
7.79
7.58
8.08
9.11
10.44
11.73
12.68
13.05
12.81
12.08
11.13
10.18
9.34
8.59
7.81
6.86
5.62
4.04
2.12
-0.11
-2.54
-4.96
-7.17
-9.01
-10.52
-11.97
-13.72
-16.07
-18.94
-21.86
-24.02
-24.66
-23.34
-20.13
-15.60
-10.50
-5.51
-1.02
2.81
5.91
8.22
9.61
10.02
9.55
8.52
7.44
6.73
6.60
6.96
7.47
7.81
7.78
7.47
7.13
7.00
7.12
7.26
7.01
6.06
4.39
2.36
0.49
-0.77
-1.32
-1.44
-1.64
-2.29
-3.50
-5.07
-6.73
-8.27
-9.72
-11.23
-12.89
-14.66
-16.44
-18.16
-19.87
-21.66
-23.46
-24.92
-25.45
-24.50
-21.78
-17.52
-12.39
-7.22
-2.69
0.89
3.58
5.63
7.30
8.67
9.57
9.81
9.31
8.24
7.08
6.41
6.61
7.75
9.48
11.23
12.48
13.03
13.06
12.99
13.19
13.77
14.49
14.95
14.75
13.70
11.96
9.83
7.68
5.76
4.12
2.67
1.30
-0.06
-1.38
-2.57
-3.56
-4.31
-4.93
-5.58
-6.50
-7.99
-10.19
-13.03
-16.15
-18.94
-20.69
-20.86
-19.29
-16.22
-12.19
-7.78
-3.44
0.64
4.41
7.80
10.67
12.76
13.87
14.02
13.47
12.68
12.10
12.07
12.61
13.56
14.65
15.65
16.42
16.93
17.21
17.27
17.11
16.64
15.85
14.67
13.13
11.30
9.33
7.37
5.59
4.07
2.82
1.72
0.60
-0.70
-2.28
-4.08
-5.97
-7.78
-9.40
-10.85
-12.25
-13.76
-15.47
-17.42
-19.52
-21.62
-23.56
-25.09
-25.92
-25.72
-24.22
-21.34
-17.28
-12.54
-7.74
-3.47
-0.03
2.53
4.37
5.67
6.49
6.81
6.61
5.98
5.22
4.73
4.85
5.69
7.11
8.79
10.38
11.64
12.47
12.91
13.00
12.72
12.01
10.79
9.10
7.08
4.97
2.93
1.10
-0.58
-2.28
-4.15
-6.25
-8.46
-10.47
-11.96
-12.72
-12.80
-12.53
-12.42
-12.96
-14.41
-16.70
-19.37
-21.80
-23.31
-23.37
-21.77
-18.58
-14.16
-8.97
-3.52
1.75
6.51
10.55
13.74
16.05
17.51
18.23
18.37
18.02
17.30
16.28
15.07
13.85
12.88
12.35
12.32
12.64
12.98
13.05
12.73
12.15
11.59
11.29
11.32
11.47
11.39
10.71
9.28
7.20
4.80
2.46
0.47
-1.22
-2.88
-4.87
-7.38
-10.26
-13.10
-15.41
-16.93
-17.87
-18.77
-20.18
-22.41
-25.26
-28.19
-30.59
-32.04
-32.44
-31.86
-30.41
-28.01
-24.54
-19.95
-14.41
-8.39
-2.59
2.33
5.92
8.12
9.17
9.48
9.45
9.35
9.29
9.23
9.13
9.00
8.91
8.95
9.17
9.60
10.18
10.78
11.30
11.60
11.61
11.24
10.47
9.32
7.86
6.24
4.62
3.15
1.88
0.80
-0.16
-1.09
-2.04
-3.08
-4.30
-5.78
-7.51
-9.39
-11.20
-12.68
-13.69
-14.29
-14.82
-15.72
-17.36
-19.79
-22.74
-25.59
-27.60
-28.19
-27.04
-24.17
-19.91
-14.72
-9.06
-3.29
2.28
7.40
11.82
15.29
17.68
18.99
19.41
19.27
18.87
18.43
18.04
17.64
17.21
16.78
16.49
16.51
16.94
17.71
18.62
19.43
19.90
19.92
19.49
18.67
17.49
16.03
14.37
12.62
10.95
9.43
8.02
6.61
5.07
3.31
1.37
-0.65
-2.63
-4.48
-6.15
-7.62
-8.91
-10.08
-11.28
-12.76
-14.78
-17.46
-20.68
-24.02
-26.82
-28.42
-28.33
-26.40
-22.83
-18.08
-12.69
-7.17
-1.89
2.84
6.76
9.63
11.26
11.66
11.06
9.87
8.60
7.64
7.17
7.13
7.36
7.69
8.08
8.53
9.08
9.70
10.23
10.41
10.11
9.28
8.08
6.73
5.41
4.10
2.67
0.98
-1.00
-3.08
-4.92
-6.24
-6.95
-7.25
-7.48
-8.04
-9.18
-10.96
-13.23
-15.73
-18.13
-20.07
-21.19
-21.14
-19.66
-16.74
-12.55
-7.53
-2.16
3.05
7.70
11.52
14.30
15.90
16.33
15.69
14.28
12.54
10.90
9.70
9.09
9.02
9.37
10.00
10.81
11.73
12.65
13.39
13.75
13.54
12.70
11.36
9.73
8.07
6.49
4.98
3.41
1.64
-0.34
-2.41
-4.41
-6.26
-8.04
-9.99
-12.37
-15.32
-18.77
-22.38
-25.66
-28.07
-29.16
-28.58
-26.18
-22.06
-16.50
-10.08
-3.48
2.59
7.59
11.19
13.35
14.29
14.27
13.65
12.68
11.56
10.46
9.55
9.00
8.95
9.55
10.76
12.49
14.52
16.52
18.20
19.31
19.68
19.26
18.08
16.22
13.84
11.09
8.18
5.28
2.55
0.10
-2.01
-3.82
-5.44
-6.99
-8.67
-10.65
-13.07
-15.99
-19.28
-22.71
-25.88
-28.39
-29.89
-30.11
-28.91
-26.24
-22.25
-17.32
-11.97
-6.79
-2.26
1.42
4.24
6.39
7.93
8.80
8.85
8.05
6.64
5.12
4.08
3.90
4.52
5.51
6.32
6.61
6.42
6.10
6.02
6.30
6.69
6.69
5.88
4.14
1.82
-0.50
-2.27
-3.21
-3.55
-3.78
-4.49
-6.04
-8.51
-11.66
-15.15
-18.63
-21.78
-24.32
-25.83
-25.87
-24.09
-20.40
-15.12
-8.94
-2.73
2.73
6.97
9.85
11.43
11.88
11.39
10.24
8.78
7.45
6.64
6.53
7.10
8.08
9.16
10.17
11.08
11.97
12.85
13.62
13.98
13.66
12.48
10.52
8.05
5.42
2.90
0.60
-1.55
-3.65
-5.81
-8.08
-10.46
-12.99
-15.79
-18.91
-22.25
-25.40
-27.68
-28.30
-26.65
-22.60
-16.62
-9.59
-2.50
3.86
9.06
13.03
15.88
17.72
18.57
18.46
17.51
16.05
14.54
13.45
13.07
13.48
14.44
15.59
16.57
17.14
17.24
17.01
16.59
16.07
15.40
14.40
12.86
10.65
7.82
4.61
1.41
-1.47
-3.84
-5.72
-7.39
-9.19
-11.45
-14.24
-17.43
-20.60
-23.24
-24.82
-24.94
-23.41
-20.25
-15.66
-10.02
-3.78
2.52
8.36
13.24
16.80
18.85
19.43
18.80
17.38
15.64
13.97
12.62
11.74
11.39
11.59
12.27
13.27
14.27
14.92
14.91
14.19
12.91
11.38
9.83
8.29
6.64
4.65
2.21
-0.57
-3.38
-5.87
-7.83
-9.30
-10.55
-12.00
-14.04
-16.83
-20.27
-23.95
-27.31
-29.75
-30.75
-30.00
-27.45
-23.21
-17.67
-11.32
-4.82
1.18
6.16
9.79
12.08
13.23
13.59
13.51
13.15
12.65
12.07
11.55
11.29
11.48
12.20
13.31
14.46
15.20
15.19
14.33
12.77
10.84
8.85
7.00
5.17
3.17
0.83
-1.78
-4.37
-6.57
-8.10
-9.08
-10.01
-11.52
-14.01
-17.34
-20.76
-23.16
-23.51
-21.26
-16.67
-10.60
-4.17
1.71
6.62
10.59
13.90
16.69
18.86
20.03
19.87
18.29
15.65
12.61
9.86
7.90
6.87
6.60
6.77
7.06
7.24
7.13
6.65
5.81
4.68
3.46
2.32
1.34
0.44
-0.57
-1.91
-3.72
-6.01
-8.65
-11.50
-14.40
-17.12
-19.36
-20.69
-20.62
-18.80
-15.19
-10.09
-4.13
1.93
7.42
11.86
15.10
17.20
18.34
18.71
18.37
17.33
15.64
13.53
11.38
9.66
8.69
8.50
8.78
9.10
9.06
8.47
7.41
6.06
4.54
2.80
0.67
-2.01
-5.28
-9.01
-12.93
-16.79
-20.48
-23.97
-27.30
-30.32
-32.67
-33.72
-32.86
-29.74
-24.47
-17.67
-10.26
-3.18
2.88
7.61
11.00
13.19
14.32
14.46
13.71
12.25
10.45
8.75
7.54
7.09
7.41
8.31
9.44
10.38
10.74
10.21
8.71
6.37
3.50
0.55
-2.19
-4.58
-6.72
-8.82
-11.09
-13.62
-16.41
-19.40
-22.53
-25.66
-28.42
-30.17
-30.11
-27.59
-22.42
-15.10
-6.71
1.51
8.53
13.93
17.81
20.56
22.55
23.88
24.48
24.28
23.44
22.37
21.62
21.53
22.09
22.94
23.56
23.52
22.75
21.42
19.91
18.47
17.15
15.77
14.07
11.93
9.45
6.92
4.70
2.96
1.65
0.48
-0.91
-2.78
-5.23
-8.19
-11.43
-14.64
-17.43
-19.34
-19.95
-18.89
-16.07
-11.64
-6.00
0.31
6.75
12.83
18.14
22.32
25.11
26.38
26.25
25.06
23.28
21.42
19.84
18.71
17.98
17.56
17.35
17.30
17.43
17.68
17.90
17.78
17.08
15.66
13.68
11.46
9.38
7.61
6.07
4.46
2.49
0.10
-2.49
-4.93
-6.95
-8.56
-10.02
-11.69
-13.83
-16.44
-19.35
-22.34
-25.29
-28.19
-30.94
-33.23
-34.50
-34.14
-31.69
-27.18
-21.12
-14.33
-7.66
-1.72
3.22
7.13
10.12
12.23
13.49
13.93
13.70
13.06
12.36
11.92
11.94
12.47
13.41
14.53
15.55
16.26
16.49
16.31
15.84
15.29
14.78
14.23
13.47
12.33
10.80
9.06
7.36
5.92
4.72
3.57
2.21
0.54
-1.37
-3.26
-4.92
-6.33
-7.65
-9.17
-11.07
-13.39
-16.02
-18.81
-21.62
-24.35
-26.81
-28.69
-29.49
-28.72
-26.05
-21.55
-15.74
-9.43
-3.45
1.57
5.35
7.93
9.55
10.40
10.59
10.13
9.10
7.74
6.44
5.64
5.67
6.58
8.04
9.52
10.51
10.71
10.19
9.32
8.48
7.91
7.49
6.88
5.72
3.87
1.53
-0.84
-2.84
-4.21
-5.05
-5.67
-6.39
-7.37
-8.61
-9.90
-11.07
-12.05
-12.93
-13.90
-15.14
-16.71
-18.57
-20.52
-22.26
-23.42
-23.63
-22.58
-20.14
-16.40
-11.70
-6.59
-1.66
2.62
5.99
8.41
9.98
10.75
10.75
10.01
8.65
7.00
5.48
4.51
4.30
4.81
5.73
6.73
7.55
8.12
8.52
8.86
9.16
9.33
9.18
8.58
7.52
6.11
4.59
3.16
1.90
0.78
-0.36
-1.68
-3.28
-5.11
-7.03
-8.89
-10.65
-12.43
-14.42
-16.77
-19.37
-21.79
-23.37
-23.46
-21.74
-18.34
-13.83
-8.96
-4.36
-0.38
2.90
5.52
7.46
8.57
8.69
7.78
6.06
4.01
2.21
1.11
0.90
1.49
2.57
3.79
4.92
5.85
6.60
7.22
7.70
7.98
7.95
7.55
6.83
5.95
5.06
4.30
3.64
2.91
1.88
0.43
-1.40
-3.39
-5.24
-6.75
-7.97
-9.17
-10.68
-12.70
-15.15
-17.67
-19.74
-20.88
-20.76
-19.29
-16.57
-12.84
-8.43
-3.69
0.96
5.13
8.44
10.62
11.60
11.54
10.83
9.91
9.13
8.57
8.09
7.47
6.59
5.61
4.86
4.73
5.34
6.53
7.87
8.85
9.13
8.63
7.55
6.22
4.91
3.75
2.70
1.60
0.35
-1.03
-2.42
-3.66
-4.80
-6.00
-7.45
-9.23
-11.17
-12.90
-14.08
-14.62
-14.90
-15.51
-16.91
-19.11
-21.56
-23.28
-23.34
-21.23
-17.17
-11.92
-6.45
-1.55
2.39
5.41
7.65
9.26
10.12
10.09
9.14
7.52
5.69
4.24
3.53
3.67
4.42
5.41
6.35
7.06
7.57
7.93
8.17
8.27
8.08
7.46
6.30
4.63
2.58
0.44
-1.50
-2.96
-3.93
-4.58
-5.21
-6.11
-7.37
-8.91
-10.50
-11.96
-13.25
-14.51
-15.99
-17.86
-20.10
-22.44
-24.44
-25.51
-25.25
-23.45
-20.25
-16.04
-11.38
-6.80
-2.67
0.81
3.57
5.57
6.79
7.24
6.96
6.12
4.99
3.83
2.88
2.29
2.12
2.35
2.88
3.54
4.14
4.47
4.39
3.89
3.04
1.95
0.72
-0.68
-2.30
-4.20
-6.37
-8.73
-11.13
-13.46
-15.67
-17.81
-19.96
-22.20
-24.53
-26.91
-29.30
-31.75
-34.35
-37.26
-40.46
-43.63
-46.31
-47.89
-47.96
-46.45
-43.66
-40.06
-36.12
-32.07
-27.97
-23.73
-19.23
-14.42
-9.33
-3.95
1.74
7.81
14.28
21.09
28.04
34.76
40.86
45.91
49.73
52.29
53.74
54.27
53.99
52.90
50.95
48.20
44.85
41.24
37.66
34.23
30.87
27.39
23.71
19.92
16.29
13.12
10.53
8.42
6.44
4.22
1.50
-1.78
-5.39
-8.89
-11.79
-13.59
-13.98
-12.85
-10.37
-6.93
-3.04
0.80
4.18
6.88
8.77
9.81
10.01
9.44
8.24
6.69
5.20
4.12
3.73
4.04
4.84
5.81
6.65
7.28
7.75
8.22
8.75
9.31
9.71
9.72
9.23
8.27
6.96
5.49
3.97
2.43
0.83
-0.81
-2.42
-3.89
-5.16
-6.28
-7.48
-9.03
-11.10
-13.65
-16.30
-18.41
-19.36
-18.70
-16.40
-12.83
-8.61
-4.37
-0.62
2.42
4.69
6.18
6.86
6.67
5.70
4.16
2.47
1.12
0.50
0.73
1.68
3.03
4.38
5.42
5.97
6.08
5.85
5.41
4.82
4.01
2.86
1.29
-0.68
-2.90
-5.16
-7.28
-9.20
-10.95
-12.69
-14.60
-16.82
-19.45
-22.43
-25.54
-28.35
-30.36
-31.13
-30.38
-28.09
-24.45
-19.84
-14.66
-9.30
-4.19
0.30
3.80
6.13
7.29
7.45
6.90
5.93
4.79
3.67
2.81
2.38
2.53
3.28
4.50
5.94
7.24
8.08
8.28
7.84
6.94
5.81
4.62
3.42
2.09
0.52
-1.33
-3.35
-5.43
-7.49
-9.59
-11.91
-14.59
-17.61
-20.85
-24.06
-27.06
-29.69
-31.73
-32.73
-32.14
-29.43
-24.44
-17.56
-9.70
-1.99
4.61
9.63
13.05
15.17
16.35
16.80
16.53
15.52
13.93
12.17
10.79
10.32
10.98
12.58
14.53
16.15
16.99
17.00
16.51
15.96
15.57
15.23
14.51
13.00
10.58
7.52
4.34
1.56
-0.61
-2.28
-3.81
-5.64
-8.04
-11.06
-14.58
-18.38
-22.16
-25.51
-28.02
-29.14
-28.46
-25.73
-21.03
-14.82
-7.76
-0.56
6.19
12.09
16.93
20.57
22.86
23.74
23.26
21.73
19.64
17.60
16.08
15.35
15.40
16.09
17.17
18.44
19.71
20.78
21.45
21.51
20.80
19.24
16.85
13.79
10.33
6.79
3.44
0.50
-2.00
-4.15
-6.16
-8.33
-10.94
-14.18
-18.02
-22.18
-26.01
-28.69
-29.39
-27.59
-23.22
-16.73
-8.96
-0.84
6.82
13.40
18.52
22.06
24.02
24.54
23.91
22.49
20.71
18.94
17.50
16.58
16.28
16.56
17.30
18.23
19.11
19.65
19.72
19.27
18.36
17.08
15.46
13.45
10.93
7.85
4.28
0.47
-3.21
-6.41
-8.98
-11.08
-13.10
-15.52
-18.72
-22.75
-27.26
-31.64
-35.14
-37.10
-37.01
-34.65
-30.06
-23.49
-15.50
-6.81
1.76
9.44
15.64
20.05
22.64
23.61
23.29
22.07
20.37
18.62
17.19
16.39
16.37
17.15
18.50
20.11
21.58
22.58
22.91
22.57
21.63
20.23
18.43
16.26
13.71
10.81
7.69
4.56
1.60
-1.05
-3.44
-5.71
-8.04
-10.57
-13.38
-16.50
-19.87
-23.35
-26.70
-29.52
-31.30
-31.50
-29.71
-25.77
-19.83
-12.33
-4.00
4.38
12.00
18.22
22.70
25.41
26.60
26.68
25.95
24.64
22.89
20.92
19.12
17.97
17.82
18.72
20.21
21.62
22.29
21.94
20.78
19.28
17.88
16.70
15.42
13.56
10.76
7.09
2.98
-0.98
-4.32
-6.85
-8.79
-10.48
-12.22
-14.16
-16.29
-18.59
-21.16
-24.12
-27.62
-31.54
-35.40
-38.38
-39.54
-38.11
-33.80
-26.90
-18.26
-9.00
-0.25
7.15
12.72
16.33
18.15
18.47
17.67
16.10
14.18
12.33
10.94
10.34
10.68
11.90
13.73
15.75
17.58
18.88
19.50
19.44
18.85
17.88
16.67
15.25
13.51
11.31
8.56
5.32
1.86
-1.44
-4.27
-6.54
-8.46
-10.42
-12.84
-15.94
-19.70
-23.83
-27.89
-31.34
-33.61
-34.16
-32.53
-28.52
-22.29
-14.37
-5.63
2.91
10.33
16.00
19.63
21.30
21.32
20.08
18.00
15.48
12.87
10.55
8.82
7.92
7.88
8.55
9.62
10.71
11.48
11.78
11.61
11.08
10.33
9.43
8.37
7.08
5.52
3.64
1.48
-0.87
-3.32
-5.76
-8.10
-10.23
-12.12
-13.79
-15.44
-17.37
-19.88
-23.15
-27.05
-31.20
-35.01
-37.85
-39.13
-38.45
-35.58
-30.50
-23.52
-15.26
-6.61
1.43
8.01
12.67
15.43
16.69
17.04
16.95
16.69
16.29
15.71
14.98
14.30
13.98
14.29
15.32
16.90
18.61
20.03
20.85
20.97
20.50
19.60
18.36
16.74
14.62
11.96
8.84
5.53
2.35
-0.46
-2.79
-4.71
-6.39
-8.05
-9.84
-11.87
-14.22
-16.95
-20.05
-23.44
-26.88
-29.98
-32.23
-33.08
-32.09
-29.04
-24.05
-17.53
-10.17
-2.75
3.98
9.45
13.40
15.83
16.97
17.15
16.71
15.94
15.04
14.20
13.59
13.33
13.50
14.05
14.76
15.37
15.65
15.48
14.96
14.23
13.44
12.56
11.39
9.67
7.24
4.15
0.72
-2.60
-5.41
-7.53
-9.03
-10.17
-11.30
-12.68
-14.49
-16.76
-19.46
-22.45
-25.50
-28.16
-29.92
-30.20
-28.57
-24.93
-19.57
-13.12
-6.40
-0.15
5.12
9.18
12.05
13.84
14.64
14.54
13.68
12.34
10.91
9.83
9.44
9.86
10.90
12.21
13.40
14.22
14.56
14.51
14.18
13.66
12.90
11.78
10.19
8.10
5.64
3.03
0.52
-1.69
-3.51
-4.99
-6.32
-7.76
-9.58
-11.98
-14.96
-18.27
-21.45
-23.92
-25.13
-24.74
-22.63
-18.96
-14.06
-8.40
-2.52
3.02
7.74
11.36
13.79
15.14
15.55
15.18
14.20
12.80
11.32
10.18
9.73
10.13
11.18
12.49
13.56
14.09
14.03
13.57
12.90
12.10
11.01
9.39
7.06
4.07
0.79
-2.29
-4.75
-6.44
-7.59
-8.67
-10.17
-12.31
-15.02
-18.02
-20.96
-23.64
-25.98
-27.90
-29.11
-29.15
-27.49
-23.85
-18.37
-11.73
-4.93
1.07
5.67
8.71
10.45
11.30
11.60
11.53
11.16
10.54
9.84
9.29
9.15
9.49
10.26
11.23
12.16
12.83
13.16
13.11
12.70
11.88
10.63
8.93
6.79
4.33
1.72
-0.87
-3.33
-5.64
-7.82
-9.93
-11.97
-13.95
-15.85
-17.77
-19.90
-22.42
-25.32
-28.23
-30.45
-31.13
-29.66
-25.90
-20.31
-13.76
-7.16
-1.17
3.94
8.17
11.53
13.95
15.26
15.38
14.44
12.83
11.08
9.68
8.94
8.95
9.60
10.67
11.91
13.06
13.92
14.32
14.21
13.60
12.55
11.11
9.29
7.10
4.55
1.76
-1.10
-3.79
-6.09
-7.92
-9.38
-10.67
-12.05
-13.73
-15.81
-18.27
-20.97
-23.73
-26.26
-28.14
-28.85
-27.89
-25.02
-20.38
-14.59
-8.55
-3.14
1.09
4.02
5.86
6.96
7.52
7.63
7.24
6.40
5.31
4.30
3.70
3.68
4.19
5.02
5.90
6.64
7.21
7.69
8.19
8.69
9.01
8.84
7.88
6.06
3.56
0.82
-1.68
-3.63
-5.03
-6.10
-7.20
-8.64
-10.49
-12.74
-15.22
-17.80
-20.29
-22.40
-23.68
-23.58
-21.66
-17.90
-12.76
-7.06
-1.71
2.74
6.16
8.78
10.90
12.55
13.51
13.48
12.36
10.49
8.53
7.24
7.10
8.05
9.67
11.37
12.72
13.63
14.25
14.80
15.35
15.60
15.07
13.40
10.53
6.90
3.22
0.21
-1.78
-2.93
-3.81
-5.03
-6.92
-9.39
-12.09
-14.67
-17.05
-19.40
-21.91
-24.46
-26.46
-27.04
-25.40
-21.29
-15.13
-7.99
-1.05
4.70
8.87
11.54
13.08
13.87
14.15
13.99
13.41
12.55
11.62
10.89
10.53
10.63
11.19
12.10
13.17
14.21
14.98
15.25
14.91
13.99
12.65
11.11
9.52
7.95
6.30
4.49
2.52
0.49
-1.43
-3.09
-4.50
-5.83
-7.33
-9.25
-11.67
-14.53
-17.56
-20.40
-22.65
-23.95
-23.99
-22.58
-19.67
-15.41
-10.18
-4.50
1.03
5.87
9.62
12.10
13.31
13.44
12.76
11.60
10.27
9.05
8.18
7.80
7.97
8.63
9.62
10.69
11.60
12.15
12.25
11.94
11.31
10.46
9.44
8.23
6.81
5.19
3.42
1.57
-0.30
-2.17
-4.03
-5.92
-7.86
-9.93
-12.20
-14.75
-17.62
-20.70
-23.67
-26.04
-27.20
-26.74
-24.48
-20.68
-15.85
-10.63
-5.53
-0.87
3.18
6.51
8.93
10.23
10.30
9.24
7.49
5.65
4.28
3.71
3.89
4.55
5.30
5.90
6.29
6.54
6.74
6.89
6.84
6.40
5.42
3.90
2.00
-0.07
-2.08
-3.89
-5.51
-7.03
-8.59
-10.33
-12.28
-14.43
-16.68
-18.87
-20.82
-22.30
-23.00
-22.64
-20.94
-17.84
-13.52
-8.43
-3.12
1.86
6.11
9.43
11.74
13.04
13.35
12.77
11.45
9.67
7.82
6.25
5.28
5.03
5.44
6.29
7.24
8.00
8.39
8.35
8.02
7.56
7.06
6.50
5.68
4.40
2.56
0.24
-2.24
-4.46
-6.12
-7.14
-7.79
-8.54
-9.84
-11.99
-14.88
-18.14
-21.18
-23.39
-24.33
-23.70
-21.42
-17.56
-12.42
-6.46
-0.31
5.39
10.06
13.41
15.40
16.27
16.38
16.02
15.38
14.51
13.46
12.35
11.42
10.98
11.26
12.28
13.86
15.66
17.27
18.37
18.76
18.41
17.38
15.81
13.88
11.73
9.51
7.30
5.16
3.13
1.20
-0.60
-2.31
-3.96
-5.63
-7.42
-9.42
-11.67
-14.15
-16.78
-19.35
-21.62
-23.23
-23.82
-23.07
-20.80
-16.99
-11.90
-5.97
0.22
6.05
11.01
14.71
16.99
17.81
17.34
15.88
13.85
11.71
9.92
8.77
8.37
8.60
9.18
9.79
10.21
10.34
10.20
9.84
9.27
8.45
7.30
5.78
3.94
1.87
-0.25
-2.32
-4.20
-5.91
-7.47
-8.96
-10.50
-12.20
-14.10
-16.23
-18.49
-20.78
-22.88
-24.48
-25.20
-24.60
-22.36
-18.46
-13.24
-7.37
-1.66
3.22
6.92
9.43
10.95
11.67
11.67
10.90
9.37
7.22
4.91
3.02
2.10
2.38
3.72
5.58
7.34
8.49
8.85
8.55
7.85
6.94
5.83
4.39
2.45
0.05
-2.62
-5.24
-7.53
-9.41
-10.96
-12.44
-14.13
-16.22
-18.78
-21.73
-24.77
-27.44
-29.19
-29.47
-27.95
-24.57
-19.66
-13.85
-7.84
-2.29
2.45
6.23
9.14
11.25
12.59
13.06
12.62
11.40
9.78
8.33
7.56
7.75
8.78
10.24
11.65
12.70
13.32
13.70
14.03
14.40
14.65
14.47
13.58
11.84
9.37
6.48
3.53
0.84
-1.45
-3.36
-5.03
-6.69
-8.49
-10.57
-12.95
-15.59
-18.35
-20.96
-23.02
-24.05
-23.60
-21.39
-17.48
-12.24
-6.32
-0.42
4.90
9.31
12.68
15.08
16.58
17.29
17.35
16.93
16.31
15.73
15.41
15.45
15.82
16.39
17.06
17.70
18.22
18.50
18.43
17.96
17.07
15.83
14.27
12.46
10.43
8.23
5.96
3.77
1.81
0.15
-1.30
-2.74
-4.43
-6.59
-9.29
-12.45
-15.81
-19.08
-21.94
-24.08
-25.20
-25.05
-23.39
-20.10
-15.32
-9.46
-3.21
2.60
7.33
10.64
12.56
13.34
13.25
12.48
11.08
9.17
7.02
5.10
3.92
3.76
4.60
6.06
7.56
8.60
8.94
8.60
7.86
6.97
6.09
5.19
4.14
2.79
1.17
-0.59
-2.26
-3.73
-5.04
-6.35
-7.83
-9.51
-11.32
-13.14
-14.98
-17.06
-19.58
-22.51
-25.40
-27.44
-27.73
-25.77
-21.62
-16.03
-9.99
-4.36
0.44
4.36
7.57
10.15
11.99
12.76
12.25
10.53
8.09
5.69
4.09
3.71
4.53
6.02
7.48
8.33
8.39
7.88
7.22
6.80
6.66
6.53
5.99
4.77
2.94
0.87
-0.95
-2.26
-3.07
-3.82
-5.04
-7.11
-10.05
-13.43
-16.54
-18.58
-18.95
-17.40
-14.15
-9.71
-4.73
0.21
4.70
8.55
11.71
14.17
15.81
16.52
16.19
14.93
13.06
11.09
9.56
8.84
9.00
9.81
10.88
11.86
12.51
12.83
12.84
12.63
12.12
11.21
9.81
7.87
5.52
2.96
0.46
-1.79
-3.72
-5.41
-7.08
-9.04
-11.55
-14.73
-18.46
-22.32
-25.71
-27.98
-28.62
-27.40
-24.38
-19.87
-14.32
-8.24
-2.13
3.57
8.48
12.30
14.82
15.99
15.92
14.91
13.35
11.69
10.29
9.40
9.15
9.50
10.35
11.48
12.62
13.47
13.80
13.54
12.77
11.64
10.30
8.79
7.09
5.09
2.79
0.28
-2.26
-4.62
-6.66
-8.36
-9.80
-11.17
-12.71
-14.66
-17.10
-19.90
-22.66
-24.73
-25.42
-24.24
-21.08
-16.23
-10.37
-4.25
1.49
6.45
10.45
13.43
15.37
16.22
16.02
14.96
13.40
11.81
10.60
10.04
10.13
10.69
11.43
12.08
12.50
12.65
12.53
12.16
11.55
10.66
9.48
8.02
6.35
4.53
2.67
0.81
-1.02
-2.85
-4.71
-6.58
-8.40
-10.06
-11.54
-13.00
-14.68
-16.89
-19.74
-23.00
-26.08
-28.17
-28.57
-26.91
-23.25
-18.07
-12.04
-5.87
-0.11
4.84
8.74
11.49
13.06
13.48
12.89
11.56
9.90
8.40
7.50
7.47
8.23
9.44
10.58
11.21
11.15
10.52
9.60
8.67
7.85
7.09
6.23
5.07
3.57
1.80
-0.06
-1.84
-3.38
-4.70
-5.83
-6.90
-8.03
-9.27
-10.68
-12.29
-14.16
-16.29
-18.53
-20.55
-21.82
-21.76
-19.97
-16.40
-11.39
-5.63
0.16
5.35
9.55
12.63
14.56
15.37
15.09
13.88
12.00
9.96
8.30
7.48
7.68
8.77
10.32
11.87
13.06
13.75
14.07
14.24
14.36
14.41
14.14
13.27
11.64
9.32
6.64
4.02
1.86
0.28
-0.84
-1.86
-3.12
-4.85
-7.06
-9.59
-12.17
-14.54
-16.45
-17.61
-17.71
-16.44
-13.67
-9.57
-4.62
0.43
4.90
8.29
10.49
11.66
12.01
11.73
10.91
9.67
8.20
6.88
6.07
5.95
6.47
7.30
8.09
8.62
8.87
8.99
9.14
9.41
9.68
9.70
9.23
8.09
6.28
3.97
1.42
-1.05
-3.25
-5.15
-6.86
-8.52
-10.26
-12.11
-14.08
-16.17
-18.48
-21.05
-23.70
-25.99
-27.24
-26.80
-24.29
-19.80
-13.96
-7.61
-1.57
3.62
7.76
10.90
13.21
14.75
15.54
15.51
14.73
13.43
11.99
10.84
10.34
10.59
11.42
12.50
13.44
13.96
14.00
13.65
13.01
12.18
11.12
9.73
7.91
5.69
3.15
0.50
-2.08
-4.43
-6.43
-8.09
-9.45
-10.63
-11.77
-13.04
-14.55
-16.42
-18.68
-21.33
-24.24
-27.14
-29.55
-30.90
-30.62
-28.43
-24.42
-19.10
-13.22
-7.53
-2.58
1.38
4.33
6.34
7.48
7.83
7.48
6.66
5.71
4.96
4.68
5.02
5.95
7.34
8.95
10.52
11.80
12.57
12.77
12.46
11.80
10.97
10.08
9.12
8.01
6.66
5.08
3.36
1.64
0.05
-1.35
-2.66
-3.98
-5.43
-7.09
-8.93
-10.94
-13.10
-15.49
-18.15
-21.04
-23.90
-26.24
-27.48
-27.07
-24.79
-20.78
-15.55
-9.79
-4.15
0.91
5.14
8.50
10.95
12.50
13.15
12.96
12.08
10.79
9.43
8.40
7.96
8.20
9.00
10.09
11.07
11.65
11.72
11.34
10.72
10.05
9.41
8.69
7.65
6.12
4.10
1.73
-0.67
-2.83
-4.56
-5.86
-6.81
-7.62
-8.48
-9.55
-10.94
-12.63
-14.50
-16.27
-17.54
-17.86
-16.82
-14.25
-10.28
-5.31
0.02
5.12
9.50
12.97
15.51
17.11
17.73
17.28
15.73
13.35
10.70
8.48
7.27
7.18
7.92
8.92
9.66
9.94
9.89
9.80
9.83
9.78
9.25
7.83
5.39
2.20
-1.16
-4.08
-6.22
-7.71
-8.94
-10.41
-12.36
-14.74
-17.25
-19.58
-21.62
-23.51
-25.45
-27.37
-28.81
-28.95
-27.04
-22.75
-16.44
-9.12
-2.04
3.78
7.85
10.26
11.45
11.86
11.76
11.19
10.21
8.94
7.72
6.91
6.79
7.38
8.49
9.77
10.91
11.68
11.99
11.84
11.24
10.21
8.82
7.12
5.18
3.08
0.86
-1.41
-3.68
-5.81
-7.61
-8.98
-9.96
-10.82
-11.99
-13.87
-16.64
-20.11
-23.71
-26.64
-28.17
-27.86
-25.63
-21.78
-16.84
-11.30
-5.63
-0.20
4.71
8.83
11.89
13.69
14.19
13.52
12.06
10.33
8.84
7.97
7.86
8.41
9.36
10.42
11.36
12.03
12.36
12.31
11.81
10.86
9.49
7.77
5.84
3.82
1.84
-0.00
-1.67
-3.16
-4.51
-5.83
-7.24
-8.82
-10.61
-12.62
-14.82
-17.13
-19.41
-21.37
-22.62
-22.71
-21.32
-18.36
-14.05
-8.86
-3.40
1.83
6.41
10.15
12.92
14.66
15.34
15.03
13.95
12.46
11.02
9.99
9.54
9.63
10.03
10.50
10.93
11.30
11.65
12.01
12.20
12.00
11.19
9.67
7.59
5.23
2.92
0.87
-0.87
-2.42
-3.95
-5.66
-7.63
-9.93
-12.53
-15.37
-18.24
-20.83
-22.64
-23.14
-21.92
-18.86
-14.22
-8.53
-2.51
3.22
8.17
12.02
14.57
15.75
15.61
14.42
12.60
10.67
9.07
8.06
7.67
7.78
8.22
8.87
9.65
10.43
11.05
11.25
10.78
9.53
7.55
5.07
2.40
-0.14
-2.42
-4.43
-6.30
-8.24
-10.42
-12.95
-15.84
-19.04
-22.33
-25.37
-27.63
-28.52
-27.54
-24.44
-19.39
-12.97
-6.02
0.66
6.44
11.04
14.42
16.63
17.72
17.71
16.68
14.90
12.88
11.17
10.25
10.26
10.99
11.96
12.70
12.91
12.60
11.97
11.22
10.40
9.37
7.87
5.75
3.01
-0.06
-3.07
-5.65
-7.65
-9.18
-10.56
-12.23
-14.55
-17.68
-21.46
-25.45
-28.99
-31.38
-32.02
-30.61
-27.18
-22.12
-16.02
-9.56
-3.36
2.08
6.46
9.65
11.66
12.63
12.77
12.35
11.64
10.87
10.25
9.89
9.88
10.23
10.90
11.84
12.89
13.88
14.58
14.78
14.35
13.27
11.67
9.72
7.63
5.55
3.58
1.77
0.17
-1.22
-2.43
-3.70
-5.33
-7.65
-10.82
-14.58
-18.31
-21.14
-22.21
-21.06
-17.71
-12.60
-6.40
0.26
6.87
13.04
18.35
22.38
24.72
25.22
24.10
21.95
19.54
17.53
16.29
15.74
15.62
15.63
15.63
15.72
16.06
16.76
17.64
18.30
18.24
17.14
15.01
12.22
9.31
6.75
4.71
3.02
1.32
-0.73
-3.22
-6.08
-9.13
-12.26
-15.39
-18.43
-21.15
-23.05
-23.51
-22.04
-18.52
-13.25
-6.93
-0.38
5.64
10.66
14.46
16.99
18.34
18.57
17.86
16.42
14.60
12.79
11.40
10.67
10.67
11.27
12.14
12.94
13.37
13.28
12.67
11.65
10.35
8.86
7.19
5.29
3.08
0.53
-2.31
-5.30
-8.30
-11.13
-13.75
-16.15
-18.47
-20.87
-23.51
-26.46
-29.59
-32.57
-34.85
-35.81
-34.88
-31.75
-26.49
-19.64
-12.01
-4.54
1.97
7.07
10.61
12.74
13.68
13.70
13.03
11.91
10.64
9.58
9.04
9.19
9.95
11.05
12.10
12.77
12.93
12.64
12.06
11.30
10.36
9.10
7.37
5.14
2.57
-0.04
-2.35
-4.15
-5.51
-6.72
-8.15
-10.08
-12.63
-15.64
-18.84
-21.87
-24.36
-25.91
-26.12
-24.63
-21.28
-16.23
-9.99
-3.37
2.76
7.69
11.09
12.94
13.48
13.09
12.12
10.90
9.69
8.70
8.08
7.91
8.24
9.01
10.11
11.32
12.39
13.08
13.21
12.75
11.81
10.46
8.80
6.78
4.39
1.67
-1.17
-3.88
-6.26
-8.38
-10.56
-13.21
-16.58
-20.50
-24.32
-27.21
-28.37
-27.40
-24.34
-19.61
-13.81
-7.56
-1.37
4.35
9.26
13.08
15.59
16.70
16.47
15.18
13.24
11.21
9.68
8.98
9.20
10.13
11.33
12.41
13.14
13.49
13.57
13.36
12.72
11.38
9.15
6.13
2.74
-0.45
-2.94
-4.66
-5.92
-7.27
-9.23
-11.95
-15.23
-18.70
-22.00
-25.00
-27.60
-29.63
-30.56
-29.69
-26.44
-20.72
-13.13
-4.87
2.76
8.80
12.97
15.57
17.18
18.29
19.08
19.40
19.09
18.16
16.93
15.86
15.31
15.37
15.81
16.19
16.17
15.67
14.88
14.04
13.33
12.71
11.92
10.69
8.88
6.51
3.76
0.85
-2.02
-4.66
-6.93
-8.78
-10.22
-11.46
-12.82
-14.70
-17.33
-20.68
-24.30
-27.49
-29.46
-29.52
-27.41
-23.23
-17.47
-10.83
-4.06
2.18
7.44
11.45
14.15
15.65
16.19
16.05
15.51
14.75
13.87
12.94
12.07
11.44
11.23
11.47
12.02
12.58
12.82
12.55
11.81
10.82
9.75
8.68
7.47
5.92
3.93
1.56
-0.93
-3.24
-5.14
-6.57
-7.65
-8.60
-9.67
-11.08
-13.01
-15.53
-18.60
-21.92
-24.97
-27.08
-27.57
-26.02
-22.37
-17.00
-10.58
-3.92
2.31
7.66
11.89
14.92
16.66
17.09
16.19
14.11
11.27
8.33
5.97
4.74
4.79
5.87
7.44
8.93
9.99
10.55
10.74
10.70
10.41
9.72
8.46
6.58
4.32
2.01
-0.02
-1.67
-3.06
-4.46
-6.09
-8.02
-10.21
-12.54
-14.97
-17.47
-19.96
-22.18
-23.64
-23.79
-22.17
-18.68
-13.66
-7.79
-1.88
3.39
7.66
10.82
12.90
13.98
14.07
13.24
11.63
9.61
7.68
6.30
5.81
6.23
7.32
8.68
9.90
10.70
10.95
10.67
9.97
8.95
7.72
6.33
4.83
3.20
1.43
-0.50
-2.53
-4.57
-6.48
-8.23
-9.86
-11.61
-13.75
-16.46
-19.74
-23.30
-26.64
-29.14
-30.31
-29.79
-27.50
-23.54
-18.23
-12.01
-5.42
0.95
6.55
10.94
13.89
15.37
15.61
14.89
13.60
12.07
10.60
9.39
8.61
8.36
8.68
9.49
10.59
11.69
12.49
12.75
12.42
11.55
10.33
8.89
7.30
5.51
3.44
1.10
-1.38
-3.76
-5.82
-7.46
-8.78
-10.04
-11.51
-13.43
-15.85
-18.66
-21.67
-24.61
-27.20
-29.07
-29.85
-29.16
-26.77
-22.66
-17.13
-10.72
-4.09
2.14
7.44
11.53
14.28
15.67
15.82
14.91
13.25
11.23
9.31
7.93
7.39
7.85
9.22
11.22
13.44
15.43
16.78
17.31
17.04
16.18
15.04
13.87
12.78
11.68
10.34
8.63
6.54
4.23
1.89
-0.37
-2.54
-4.72
-6.94
-9.15
-11.19
-12.98
-14.65
-16.52
-19.00
-22.29
-26.10
-29.69
-32.05
-32.27
-29.95
-25.30
-19.03
-12.09
-5.30
0.83
6.06
10.29
13.39
15.18
15.55
14.62
12.83
10.83
9.24
8.51
8.70
9.58
10.79
12.09
13.31
14.43
15.41
16.13
16.40
15.99
14.84
13.05
10.85
8.53
6.30
4.27
2.42
0.66
-1.09
-2.89
-4.73
-6.61
-8.49
-10.33
-12.12
-13.88
-15.66
-17.61
-19.86
-22.41
-25.02
-27.20
-28.27
-27.60
-24.87
-20.15
-13.99
-7.20
-0.63
5.07
9.56
12.75
14.74
15.67
15.68
14.92
13.62
12.07
10.63
9.64
9.29
9.60
10.35
11.23
11.92
12.28
12.30
12.12
11.88
11.66
11.39
10.86
9.88
8.32
6.25
3.85
1.38
-0.94
-3.03
-4.92
-6.75
-8.63
-10.70
-13.04
-15.71
-18.66
-21.81
-24.82
-27.18
-28.29
-27.57
-24.69
-19.77
-13.36
-6.34
0.36
6.00
10.24
13.08
14.71
15.33
15.05
13.91
12.05
9.84
7.86
6.68
6.63
7.68
9.41
11.28
12.81
13.77
14.19
14.22
13.96
13.39
12.41
10.85
8.69
6.02
3.06
0.06
-2.76
-5.33
-7.68
-9.89
-12.10
-14.37
-16.73
-19.27
-22.06
-25.20
-28.63
-31.97
-34.55
-35.52
-34.18
-30.27
-24.15
-16.65
-8.83
-1.61
4.40
8.99
12.22
14.27
15.30
15.40
14.65
13.18
11.24
9.22
7.55
6.52
6.23
6.57
7.22
7.88
8.35
8.61
8.70
8.59
8.07
6.87
4.79
1.92
-1.40
-4.61
-7.26
-9.25
-10.80
-12.26
-13.93
-15.86
-17.87
