1545412437.00
64.000000
-0.00
-0.00
-0.00
-0.00
-0.00
-0.00
-0.00
-0.00
-0.00
-0.00
0.00
0.01
0.01
-0.00
-0.03
-0.05
-0.05
0.00
0.13
0.36
0.66
1.01
1.37
1.72
2.06
2.40
2.79
3.24
3.80
4.42
5.06
5.66
6.20
6.68
7.15
7.68
8.31
9.14
10.09
11.04
11.88
12.56
13.14
13.76
14.65
15.96
17.91
20.32
22.90
25.38
27.58
29.57
31.68
34.32
37.81
42.54
48.15
54.10
59.83
64.97
69.58
74.14
79.34
85.71
93.76
103.00
112.62
121.73
129.77
136.75
143.30
150.75
157.77
166.64
177.95
191.79
206.97
220.57
228.25
225.36
208.53
176.87
132.76
80.05
23.07
-34.94
-92.44
-149.16
-205.23
-260.37
-313.74
-363.87
-409.83
-450.91
-486.50
-515.74
-537.23
-549.22
-549.96
-538.37
-514.21
-478.67
-433.88
-382.45
-327.02
-269.84
-212.63
-156.66
-102.95
-52.37
-5.90
35.58
71.43
101.35
125.50
144.38
158.69
169.15
176.37
180.75
182.57
182.07
179.51
175.23
169.65
163.18
156.15
148.81
141.30
133.69
126.02
118.33
110.69
103.16
95.80
88.68
81.83
75.25
68.95
62.95
57.25
51.86
46.78
42.03
37.59
33.45
29.61
26.07
22.81
19.83
17.11
14.67
12.48
10.54
8.83
7.35
6.07
4.97
4.05
3.27
2.62
2.09
1.65
1.30
1.01
0.79
0.61
0.48
0.37
0.29
0.24
0.20
0.18
0.17
0.18
0.19
0.21
0.24
0.27
0.31
0.35
0.40
0.44
0.48
0.53
0.58
0.63
0.69
0.75
0.81
0.88
0.95
1.04
1.13
1.23
1.35
1.47
1.62
1.78
1.96
2.16
2.38
2.63
2.90
3.20
3.53
3.90
4.29
4.72
5.19
5.69
6.23
6.81
7.44
8.11
8.82
9.57
10.37
11.22
12.11
13.05
14.04
15.09
16.21
17.39
18.62
19.90
21.16
22.38
23.47
24.33
24.87
24.93
24.40
23.16
21.13
18.30
14.74
10.55
5.94
1.13
-3.64
-8.18
-12.33
-15.95
-18.94
-21.25
-22.81
-23.64
-23.78
-23.35
-22.51
-21.45
-20.36
-19.34
-18.41
-17.51
-16.54
-15.43
-14.20
-12.97
-11.94
-11.31
-11.14
-11.36
-11.68
-11.81
-11.57
-10.94
-10.19
-9.76
-10.04
-11.24
-13.17
-15.34
-17.19
-18.40
-18.94
-19.22
-19.95
-21.81
-25.09
-29.48
-34.27
-38.69
-42.30
-44.96
-46.99
-48.93
-51.46
-55.28
-61.13
-69.47
-80.01
-91.25
-99.91
-102.08
-94.67
-77.04
-51.30
-21.56
7.94
35.19
58.13
76.29
90.03
99.61
104.79
105.39
102.08
96.76
92.08
90.03
91.45
95.41
99.75
101.96
100.24
93.86
83.13
68.97
52.49
35.11
18.16
2.71
-10.67
-21.96
-31.62
-40.45
-49.26
-58.59
-68.33
-77.87
-86.33
-92.88
-96.98
-98.41
-97.10
-93.00
-85.87
-75.22
-60.64
-42.00
-19.77
4.85
30.14
54.27
75.63
93.29
107.09
117.40
124.78
129.49
131.35
129.82
124.06
113.21
96.37
72.77
42.12
4.97
-36.79
-80.01
-121.04
-156.82
-185.95
-208.94
-227.64
-244.17
-259.76
-274.35
-286.78
-295.56
-299.58
-298.60
-293.20
-284.46
-273.46
-260.83
-246.65
-230.56
-212.13
-191.31
-168.67
-145.40
-122.99
-102.65
-84.98
-69.89
-56.81
-45.12
-34.40
-24.57
-15.75
-8.04
-1.18
5.46
12.70
21.24
31.21
42.07
52.68
61.74
68.21
71.78
72.91
72.63
72.03
71.77
71.81
71.56
70.31
67.59
63.47
58.34
52.56
46.19
38.99
30.83
22.16
14.21
8.79
7.62
11.57
20.27
32.23
45.36
57.73
68.01
75.62
80.55
83.07
83.53
82.37
80.10
77.29
74.54
72.27
70.71
69.88
69.70
70.02
70.67
71.40
71.84
71.61
70.38
68.03
64.70
60.67
56.30
51.86
47.44
42.98
38.27
33.04
27.03
20.10
12.33
4.16
-3.62
-9.96
-13.76
-14.18
-10.92
-4.29
4.77
15.05
25.33
34.71
42.66
48.92
53.39
56.03
56.91
56.28
54.66
52.75
51.25
50.62
50.90
51.75
52.61
52.84
51.97
49.75
46.23
41.73
36.78
32.01
27.91
24.68
22.18
20.04
17.96
15.82
13.81
12.14
10.85
9.50
7.26
3.22
-2.96
-10.61
-17.94
-22.47
-21.97
-15.39
-3.43
11.52
26.34
38.29
45.96
49.52
50.31
49.91
49.40
49.07
48.74
48.18
47.37
46.37
45.06
43.04
39.78
35.10
29.48
24.01
19.84
17.66
17.37
18.23
19.26
19.71
19.30
18.00
15.86
12.83
8.81
3.83
-1.77
-7.36
-12.18
-15.49
-16.91
-16.51
-14.80
-12.48
-10.13
-7.93
-5.55
-2.37
2.13
8.01
14.82
21.77
28.05
33.20
37.18
40.20
42.56
44.49
45.98
46.86
46.87
45.69
43.06
38.86
33.20
26.47
19.31
12.53
6.93
3.10
1.19
0.88
1.36
1.64
0.78
-1.80
-6.21
-12.13
-19.01
-26.22
-33.11
-38.89
-42.75
-44.07
-42.90
-40.14
-37.38
-36.10
-36.89
-38.93
-40.46
-39.71
-35.89
-29.63
-22.53
-16.14
-11.06
-6.85
-2.56
2.33
7.56
12.31
15.90
18.37
20.52
23.24
26.97
31.43
35.90
39.80
43.07
45.94
48.62
50.94
52.38
52.43
50.75
47.19
41.28
32.10
18.64
0.76
-20.01
-40.40
-56.27
-64.25
-62.99
-53.64
-38.87
-21.59
-3.70
14.16
32.00
49.49
65.30
77.20
83.22
82.70
76.92
68.60
60.69
54.87
50.99
47.31
42.12
34.95
27.13
21.03
18.52
19.70
22.55
23.84
20.81
12.52
0.20
-13.56
-26.04
-35.55
-41.77
-45.68
-48.76
-52.45
-57.76
-65.16
-74.50
-85.01
-95.27
-103.63
-108.57
-109.22
-105.63
-98.69
-89.68
-79.80
-69.72
-59.89
-50.65
-42.37
-35.26
-28.91
-22.04
-12.72
0.87
19.54
42.69
68.71
95.94
123.40
150.94
178.40
204.68
227.41
243.62
251.09
249.61
241.13
228.87
215.85
203.85
193.15
183.16
173.24
163.02
152.41
141.14
128.68
114.53
98.62
81.63
64.79
49.43
36.40
25.84
17.22
9.77
2.84
-3.82
-10.01
-15.31
-19.31
-21.82
-22.99
-23.22
-23.00
-22.73
-22.62
-22.71
-22.93
-23.08
-22.99
-22.44
-21.37
-19.95
-18.58
-17.75
-17.82
-18.82
-20.44
-22.23
-23.80
-25.01
-25.97
-26.85
-27.76
-28.68
-29.53
-30.31
-31.13
-32.13
-33.40
-34.78
-35.93
-36.51
-36.29
-35.23
-33.52
-31.44
-29.29
-27.28
-25.45
-23.71
-21.91
-19.85
-17.52
-15.06
-12.78
-11.07
-10.24
-10.35
-11.16
-12.23
-13.05
-13.26
-12.71
-11.52
-9.92
-8.15
-6.40
-4.73
-3.27
-2.15
-1.56
-1.67
-2.47
-3.77
-5.23
-6.52
-7.45
-8.13
-8.82
-9.85
-11.46
-13.69
-16.39
-19.26
-21.99
-24.33
-26.11
-27.29
-27.90
-27.97
-27.52
-26.49
-24.85
-22.59
-19.85
-16.91
-14.13
-11.80
-10.08
-8.86
-8.01
-7.36
-6.85
-6.48
-6.32
-6.39
-6.68
-7.19
-7.94
-9.00
-10.36
-11.90
-13.32
-14.26
-14.49
-13.98
-13.05
-12.15
-11.72
-11.91
-12.58
-13.42
-14.11
-14.53
-14.83
-15.36
-16.38
-17.98
-20.02
-22.10
-23.80
-24.77
-24.82
-23.99
-22.44
-20.42
-18.16
-15.85
-13.63
-11.48
-9.36
-7.24
-5.17
-3.29
-1.81
-0.84
-0.36
-0.21
-0.12
0.09
0.47
0.87
1.11
1.00
0.58
-0.03
-0.63
-1.13
-1.62
-2.34
-3.57
-5.49
-7.99
-10.65
-12.91
-14.32
-14.73
-14.50
-14.27
-14.73
-16.34
-19.08
-22.50
-26.02
-29.12
-31.52
-33.13
-33.92
-33.81
-32.60
-30.17
-26.57
-22.17
-17.57
-13.39
-10.12
-7.95
-6.79
-6.36
-6.32
-6.42
-6.58
-6.77
-6.99
-7.17
-7.15
-6.79
-6.06
-5.12
-4.36
-4.11
-4.57
-5.59
-6.84
-7.88
-8.48
-8.71
-8.91
-9.46
-10.60
-12.27
-14.16
-15.88
-17.15
-17.98
-18.65
-19.56
-21.03
-23.12
-25.53
-27.79
-29.35
-29.86
-29.26
-27.78
-25.72
-23.35
-20.78
-18.04
-15.18
-12.38
-9.94
-8.17
-7.23
-6.99
-7.10
-7.10
-6.69
-5.83
-4.79
-3.95
-3.55
-3.57
-3.69
-3.53
-2.86
-1.81
-0.80
-0.37
-0.86
-2.31
-4.43
-6.77
-8.98
-10.88
-12.54
-14.11
-15.70
-17.38
-19.02
-20.56
-22.00
-23.51
-25.34
-27.67
-30.45
-33.27
-35.44
-36.25
-35.25
-32.52
-28.59
-24.25
-20.21
-16.83
-14.10
-11.78
-9.72
-7.96
-6.74
-6.26
-6.50
-7.10
-7.52
-7.40
-6.73
-5.89
-5.44
-5.72
-6.70
-7.89
-8.67
-8.67
-7.98
-7.21
-7.17
-8.47
-11.27
-15.20
-19.57
-23.68
-27.01
-29.20
-30.05
-29.39
-27.14
-23.44
-18.77
-13.93
-9.85
-7.26
-6.39
-6.91
-8.09
-9.05
-9.13
-8.03
-5.83
-2.89
0.28
3.27
5.78
7.77
9.28
10.49
11.50
12.39
13.17
13.86
14.50
15.18
15.98
16.87
17.65
18.00
17.54
16.11
13.84
11.21
8.79
6.95
5.64
4.42
2.66
-0.08
-3.66
-7.46
-10.69
-12.77
-13.73
-14.19
-14.98
-16.69
-19.38
-22.58
-25.75
-28.46
-30.55
-31.96
-32.49
-31.71
-29.18
-24.81
-19.25
-13.67
-9.24
-6.66
-5.72
-5.50
-4.87
-3.14
-0.48
2.34
4.44
5.37
5.42
5.34
5.99
7.85
10.58
13.47
15.67
16.66
16.46
15.55
14.46
13.47
12.10
9.65
5.60
0.13
-5.68
-10.20
-12.15
-11.21
-8.65
-6.57
-6.89
-10.28
-15.73
-21.05
-24.11
-23.90
-21.26
-18.05
-16.03
-15.75
-16.19
-15.50
-12.22
-6.23
0.87
6.75
9.62
9.27
7.05
5.14
5.17
7.56
11.12
14.11
15.22
14.30
12.35
10.84
10.81
12.44
14.89
16.98
17.79
17.06
15.13
12.68
10.26
8.25
6.63
5.22
3.82
2.23
0.32
-1.99
-4.68
-7.58
-10.44
-13.06
-15.37
-17.44
-19.42
-21.22
-22.55
-22.89
-21.75
-18.92
-14.66
-9.65
-4.67
-0.36
3.04
5.69
7.97
10.17
12.32
14.21
15.50
15.97
15.71
15.12
14.71
14.81
15.42
16.19
16.62
16.35
15.36
14.00
12.75
12.00
11.74
11.69
11.39
10.46
8.86
6.82
4.78
3.07
1.82
0.87
-0.17
-1.66
-3.82
-6.57
-9.65
-12.70
-15.46
-17.84
-19.88
-21.56
-22.69
-22.85
-21.58
-18.65
-14.23
-8.99
-3.79
0.58
3.76
5.84
7.28
8.53
9.82
11.05
11.98
12.42
12.45
12.35
12.41
12.73
13.14
13.33
12.99
12.03
10.70
9.40
8.54
8.26
8.42
8.57
8.23
7.09
5.10
2.59
-0.02
-2.34
-4.30
-6.07
-7.97
-10.26
-12.94
-15.81
-18.59
-21.14
-23.49
-25.77
-27.99
-29.86
-30.85
-30.34
-27.91
-23.61
-17.91
-11.60
-5.51
-0.18
4.20
7.82
10.95
13.77
16.19
17.93
18.65
18.23
16.86
15.07
13.33
11.92
10.78
9.64
8.33
7.01
6.04
5.88
6.62
7.90
9.06
9.46
8.80
7.26
5.32
3.46
1.90
0.52
-0.92
-2.61
-4.54
-6.53
-8.44
-10.19
-12.02
-14.16
-16.70
-19.44
-21.81
-23.11
-22.80
-20.71
-17.27
-13.21
-9.33
-6.15
-3.82
-2.11
-0.70
0.68
2.09
3.44
4.57
5.42
6.09
6.73
7.55
8.64
9.93
11.19
12.13
12.54
12.38
11.84
11.18
10.67
10.29
9.85
9.04
7.58
5.42
2.76
-0.01
-2.50
-4.47
-5.95
-7.16
-8.50
-10.30
-12.70
-15.47
-18.07
-19.80
-20.10
-18.81
-16.20
-12.87
-9.40
-6.13
-3.08
-0.05
3.04
6.03
8.48
9.92
10.10
9.23
7.92
6.90
6.68
7.31
8.37
9.24
9.42
8.80
7.75
6.78
6.28
6.29
6.43
6.23
5.36
3.83
2.00
0.32
-0.91
-1.76
-2.57
-3.79
-5.68
-8.27
-11.30
-14.44
-17.39
-20.02
-22.32
-24.20
-25.40
-25.49
-23.97
-20.57
-15.44
-9.20
-2.77
2.97
7.46
10.60
12.72
14.23
15.40
16.26
16.58
16.19
15.17
13.87
12.87
12.64
13.35
14.78
16.40
17.65
18.23
18.10
17.52
16.73
15.76
14.40
12.29
9.23
5.37
1.19
-2.63
-5.56
-7.48
-8.77
-10.12
-12.26
-15.50
-19.59
-23.66
-26.62
-27.58
-26.19
-22.81
-18.28
-13.51
-9.09
-5.12
-1.34
2.54
6.52
10.25
13.22
15.05
15.80
15.94
16.04
16.52
17.36
18.17
18.48
17.99
16.80
15.36
14.12
13.33
12.90
12.42
11.45
9.72
7.28
4.56
2.07
0.14
-1.20
-2.29
-3.64
-5.67
-8.47
-11.81
-15.21
-18.23
-20.65
-22.44
-23.74
-24.53
-24.61
-23.56
-21.02
-16.94
-11.64
-5.88
-0.51
3.76
6.66
8.39
9.45
10.32
11.24
12.16
12.82
13.02
12.77
12.39
12.25
12.60
13.32
14.02
14.19
13.50
12.05
10.21
8.49
7.17
6.22
5.30
3.99
2.09
-0.23
-2.54
-4.39
-5.57
-6.32
-7.21
-8.88
-11.72
-15.58
-19.78
-23.38
-25.51
-25.70
-24.02
-20.94
-17.07
-12.91
-8.71
-4.50
-0.33
3.65
7.12
9.81
11.57
12.53
13.01
13.32
13.62
13.85
13.85
13.55
13.10
12.86
13.21
14.25
15.66
16.73
16.65
14.98
11.86
8.18
4.95
3.04
2.59
2.98
3.22
2.52
0.64
-2.08
-5.36
-9.11
-13.52
-18.76
-24.36
-29.13
-31.67
-30.99
-27.42
-22.33
-17.47
-13.98
-11.74
-9.51
-5.97
-0.63
5.40
10.23
12.18
10.95
7.87
5.28
5.12
7.96
12.28
15.74
16.37
13.78
9.40
5.64
4.42
6.14
9.18
11.08
9.95
5.61
-0.33
-5.40
-7.72
-6.99
-4.73
-3.23
-4.22
-7.94
-13.20
-18.20
-21.52
-22.70
-22.36
-21.46
-20.59
-19.68
-18.11
-15.25
-10.87
-5.19
0.97
6.64
11.09
13.94
15.31
15.66
15.64
15.86
16.63
17.87
19.27
20.39
20.92
20.83
20.31
19.69
19.26
19.15
19.20
19.11
18.49
17.06
14.77
11.85
8.72
5.77
3.25
1.10
-0.93
-3.17
-5.80
-8.79
-11.98
-15.21
-18.44
-21.66
-24.75
-27.39
-28.99
-28.93
-26.84
-22.76
-17.22
-11.02
-4.97
0.37
4.74
8.20
10.93
13.08
14.76
15.93
16.54
16.58
16.14
15.45
14.86
14.64
14.93
15.66
16.52
17.16
17.29
16.82
15.91
14.75
13.48
12.07
10.34
8.10
5.30
2.20
-0.83
-3.44
-5.56
-7.46
-9.65
-12.62
-16.50
-20.95
-25.29
-28.77
-30.79
-31.15
-29.98
-27.52
-24.06
-19.75
-14.67
-9.02
-3.12
2.47
7.17
10.54
12.43
13.05
12.90
12.55
12.39
12.61
13.13
13.75
14.28
14.67
14.95
15.20
15.45
15.55
15.31
14.55
13.19
11.44
9.57
7.87
6.41
5.00
3.27
0.98
-1.82
-4.69
-7.17
-9.00
-10.40
-12.01
-14.51
-18.27
-23.07
-28.12
-32.49
-35.40
-36.47
-35.65
-33.03
-28.72
-22.77
-15.26
-6.51
2.91
12.30
20.93
28.26
33.97
37.90
40.07
40.52
39.41
36.98
33.67
30.04
26.76
24.46
23.59
24.18
25.87
27.98
29.73
30.44
29.78
27.67
24.33
19.98
14.79
8.86
2.34
-4.43
-10.85
-16.16
-19.68
-21.13
-20.85
-19.62
-18.49
-18.22
-19.03
-20.52
-21.91
-22.52
-22.02
-20.51
-18.32
-15.76
-12.89
-9.60
-5.76
-1.47
2.83
6.57
9.21
10.50
10.58
9.84
8.84
8.01
7.64
7.75
8.24
8.90
9.56
10.20
10.96
11.93
13.07
14.12
14.53
13.83
11.74
8.38
4.27
0.07
-3.69
-6.89
-9.75
-12.68
-15.95
-19.46
-22.76
-25.24
-26.47
-26.29
-24.91
-22.67
-19.90
-16.72
-13.12
-9.09
-4.81
-0.70
2.75
5.17
6.50
7.07
7.39
7.95
9.00
10.45
11.91
13.01
13.51
13.41
13.08
12.87
13.04
13.54
14.06
14.19
13.61
12.30
10.50
8.58
6.77
5.16
3.54
1.68
-0.58
-3.19
-5.90
-8.47
-10.77
-12.88
-15.08
-17.62
-20.50
-23.32
-25.34
-25.77
-24.14
-20.49
-15.48
-10.10
-5.23
-1.44
1.24
3.06
4.39
5.46
6.27
6.72
6.73
6.40
6.00
5.85
6.18
7.05
8.17
9.10
9.43
8.91
7.68
6.12
4.73
3.89
3.68
3.87
4.07
3.93
3.31
2.26
0.89
-0.81
-3.04
-6.12
-10.22
-15.16
-20.28
-24.58
-27.04
-26.95
-24.16
-18.97
-12.03
-3.95
4.74
13.55
21.93
29.13
34.32
36.81
36.39
33.45
28.97
24.20
20.26
17.80
16.93
17.28
18.23
19.26
20.05
20.50
20.52
19.92
18.40
15.58
11.33
5.92
0.07
-5.28
-9.40
-12.00
-13.39
-14.28
-15.36
-17.01
-19.16
-21.47
-23.54
-25.14
-26.25
-26.93
-27.13
-26.69
-25.29
-22.78
-19.28
-15.27
-11.37
-8.18
-6.00
-4.71
-3.87
-2.93
-1.52
0.45
2.75
5.00
6.88
8.27
9.35
10.44
11.73
13.15
14.30
14.66
13.86
11.92
9.29
6.57
4.21
2.18
0.05
-2.83
-6.86
-11.97
-17.60
-23.02
-27.69
-31.39
-34.19
-36.17
-37.18
-36.77
-34.43
-29.99
-23.77
-16.69
-9.91
-4.45
-0.76
1.38
2.54
3.47
4.58
5.88
7.11
7.99
8.47
8.74
8.97
9.22
9.32
9.08
8.52
7.94
7.74
8.14
8.84
9.20
8.50
6.47
3.41
0.10
-2.65
-4.48
-5.69
-6.98
-9.06
-12.23
-16.18
-20.16
-23.27
-24.76
-24.44
-22.42
-19.07
-14.72
-9.65
-4.09
1.61
6.93
11.18
13.83
14.73
14.29
13.27
12.53
12.60
13.51
14.72
15.54
15.47
14.52
13.17
12.11
11.82
12.32
13.05
13.23
12.23
9.94
6.82
3.63
0.96
-0.99
-2.64
-4.72
-7.90
-12.38
-17.83
-23.48
-28.46
-32.01
-33.75
-33.60
-31.64
-28.10
-23.25
-17.52
-11.44
-5.52
-0.20
4.31
7.99
10.93
13.21
14.84
15.83
16.24
16.26
16.11
15.97
15.83
15.54
14.84
13.57
11.77
9.66
7.58
5.82
4.49
3.52
2.66
1.67
0.38
-1.26
-3.17
-5.26
-7.43
-9.65
-11.93
-14.25
-16.48
-18.41
-19.72
-20.09
-19.33
-17.45
-14.66
-11.33
-7.82
-4.35
-1.01
2.16
5.04
7.39
8.96
9.62
9.60
9.38
9.52
10.39
11.94
13.74
15.20
15.89
15.79
15.16
14.39
13.72
13.13
12.31
11.03
9.18
6.94
4.66
2.66
1.00
-0.54
-2.39
-4.95
-8.35
-12.32
-16.27
-19.45
-21.28
-21.47
-20.02
-17.20
-13.29
-8.53
-3.16
2.48
7.85
12.30
15.25
16.50
16.31
15.40
14.61
14.55
15.34
16.67
17.91
18.56
18.43
17.78
17.09
16.85
17.22
17.98
18.66
18.74
17.94
16.34
14.16
11.75
9.24
6.60
3.76
0.71
-2.39
-5.32
-7.95
-10.44
-13.05
-15.98
-19.12
-21.92
-23.63
-23.51
-21.27
-17.08
-11.63
-5.75
-0.19
4.55
8.29
11.06
12.98
14.17
14.77
14.90
14.75
14.58
14.61
15.04
15.76
16.51
16.86
16.50
15.36
13.69
11.92
10.46
9.43
8.62
7.61
6.06
3.90
1.39
-1.06
-3.16
-5.00
-6.93
-9.42
-12.68
-16.54
-20.34
-23.25
-24.52
-23.84
-21.42
-17.78
-13.52
-9.07
-4.60
-0.13
4.40
8.94
13.37
17.55
21.40
24.94
28.20
31.20
34.00
36.71
39.59
42.91
46.82
51.22
55.68
59.57
62.34
63.57
63.01
60.57
56.41
51.09
45.73
41.99
41.47
45.04
52.19
60.96
68.67
72.95
72.73
68.48
61.65
53.66
45.25
36.47
27.08
17.42
8.43
1.37
-3.04
-5.14
-6.37
-8.55
-12.96
-19.73
-27.84
-35.74
-42.15
-46.61
-49.62
-52.26
-55.58
-59.98
-65.12
-69.84
-72.69
-72.44
-68.60
-61.58
-52.71
-43.88
-37.05
-33.88
-35.21
-41.07
-50.62
-62.35
-74.58
-85.68
-94.46
-100.16
-102.47
-101.40
-97.27
-90.72
-82.75
-74.44
-66.62
-59.56
-52.82
-45.57
-37.06
-27.21
-16.76
-6.98
0.78
5.76
7.92
7.96
6.86
5.63
4.87
4.83
5.50
6.66
8.16
9.85
11.64
13.47
15.17
16.53
17.35
17.57
17.24
16.58
15.77
14.84
13.56
11.61
8.70
4.86
0.50
-3.77
-7.36
-9.99
-11.85
-13.40
-15.00
-16.70
-18.08
-18.45
-17.25
-14.32
-10.06
-5.31
-0.90
2.65
5.34
7.57
9.78
12.11
14.26
15.67
15.82
14.64
12.66
10.74
9.66
9.72
10.59
11.50
11.75
11.03
9.60
8.04
6.89
6.36
6.17
5.81
4.81
3.04
0.73
-1.65
-3.78
-5.61
-7.41
-9.60
-12.41
-15.69
-18.82
-21.00
-21.55
-20.20
-17.20
-13.21
-8.96
-4.94
-1.26
2.28
5.88
9.57
13.03
15.80
17.50
18.15
18.15
18.12
18.50
19.34
20.29
20.82
20.62
19.77
18.71
17.95
17.72
17.77
17.55
16.44
14.17
10.91
7.25
3.86
1.15
-0.89
-2.65
-4.66
-7.30
-10.58
-14.18
-17.53
-20.14
-21.71
-22.12
-21.37
-19.46
-16.34
-12.03
-6.74
-0.98
4.52
8.97
11.83
12.96
12.78
11.93
11.10
10.77
10.98
11.52
12.13
12.65
13.11
13.50
13.74
13.61
12.89
11.58
10.00
8.65
7.94
7.84
7.91
7.50
6.16
3.88
1.13
-1.48
-3.64
-5.56
-7.84
-11.00
-15.10
-19.56
-23.32
-25.28
-24.58
-21.35
-16.27
-10.45
-4.95
-0.40
3.22
6.25
9.05
11.34
12.56
12.11
9.96
7.01
4.82
4.77
7.34
11.35
14.86
16.04
14.37
10.91
7.81
6.88
8.57
11.53
13.55
12.87
9.27
4.21
-0.05
-1.83
-0.92
1.02
1.72
-0.48
-5.56
-11.84
-16.94
-19.13
-18.14
-15.41
-12.90
-11.92
-12.39
-12.95
-11.93
-8.39
-2.56
4.09
9.84
13.46
14.74
14.29
13.12
12.06
11.56
11.56
11.80
12.00
11.98
11.74
11.31
10.78
10.29
9.88
9.55
9.19
8.65
7.75
6.46
4.87
3.24
1.93
1.13
0.79
0.53
-0.19
-1.86
-4.62
-8.20
-11.94
-15.06
-16.92
-17.17
-15.80
-13.02
-9.22
-4.83
-0.33
3.80
7.18
9.58
11.00
11.58
11.60
11.33
11.00
10.74
10.63
10.67
10.77
10.80
10.60
10.14
9.45
8.72
8.12
7.68
7.27
6.61
5.46
3.69
1.37
-1.27
-3.99
-6.60
-9.07
-11.49
-13.96
-16.52
-19.05
-21.29
-22.90
-23.62
-23.30
-21.95
-19.67
-16.58
-12.82
-8.61
-4.25
-0.14
3.27
5.66
6.95
7.39
7.36
7.32
7.57
8.19
9.07
10.00
10.76
11.22
11.28
10.95
10.29
9.39
8.34
7.26
6.23
5.29
4.39
3.42
2.24
0.70
-1.24
-3.51
-6.01
-8.61
-11.24
-13.93
-16.62
-19.16
-21.24
-22.43
-22.34
-20.77
-17.77
-13.64
-8.88
-4.04
0.38
4.07
6.87
8.90
10.34
11.46
12.40
13.22
13.86
14.27
14.43
14.40
14.21
13.86
13.36
12.71
11.99
11.29
10.63
9.90
8.84
7.23
5.03
2.46
-0.14
-2.37
-4.11
-5.48
-6.88
-8.76
-11.37
-14.71
-18.42
-21.95
-24.72
-26.27
-26.51
-25.59
-23.83
-21.43
-18.40
-14.59
-9.89
-4.48
1.05
5.89
9.33
11.13
11.60
11.43
11.36
11.80
12.67
13.56
13.99
13.72
12.88
11.87
11.13
10.95
11.27
11.82
12.20
12.13
11.54
10.52
9.24
7.86
6.41
4.80
2.90
0.58
-2.24
-5.50
-9.12
-12.90
-16.70
-20.32
-23.60
-26.32
-28.18
-28.89
-28.18
-25.98
-22.38
-17.76
-12.59
-7.32
-2.30
2.28
6.35
9.86
12.78
15.03
16.53
17.23
17.25
16.78
16.13
15.58
15.32
15.36
15.55
15.67
15.56
15.19
14.61
13.93
13.13
12.10
10.72
8.87
6.62
4.13
1.65
-0.58
-2.51
-4.18
-5.77
-7.54
-9.65
-12.20
-15.12
-18.19
-21.08
-23.41
-24.76
-24.87
-23.62
-21.13
-17.69
-13.68
-9.52
-5.52
-1.88
1.29
3.99
6.16
7.78
8.87
9.53
9.94
10.28
10.70
11.21
11.72
12.07
12.16
12.00
11.65
11.25
10.84
10.43
9.93
9.24
8.35
7.25
6.01
4.64
3.09
1.35
-0.59
-2.64
-4.66
-6.46
-7.95
-9.17
-10.34
-11.76
-13.63
-15.93
-18.32
-20.25
-21.17
-20.72
-18.90
-16.04
-12.60
-9.01
-5.53
-2.28
0.67
3.22
5.22
6.55
7.17
7.23
7.02
6.90
7.11
7.75
8.66
9.59
10.24
10.48
10.33
9.99
9.68
9.49
9.36
9.08
8.47
7.53
6.43
5.42
4.65
4.09
3.53
2.73
1.50
-0.11
-1.93
-3.76
-5.54
-7.35
-9.32
-11.46
-13.53
-15.03
-15.30
-13.87
-10.64
-6.03
-0.84
4.02
7.90
10.59
12.30
13.44
14.39
15.23
15.86
16.06
15.77
15.12
14.41
13.95
13.87
14.11
14.51
14.91
15.23
15.44
15.44
14.97
13.72
11.50
8.53
5.44
3.02
1.83
1.83
2.38
2.48
1.35
-1.21
-4.81
-8.71
-12.23
-15.05
-17.18
-18.74
-19.80
-20.22
-19.79
-18.33
-15.78
-12.25
-7.94
-3.24
1.31
5.16
7.91
9.47
10.09
10.24
10.38
10.70
11.12
11.43
11.48
11.38
11.44
11.99
13.15
14.72
16.22
17.09
16.95
15.80
14.13
12.52
11.50
11.19
11.19
10.85
9.63
7.34
4.18
0.31
-4.18
-9.32
-14.98
-20.56
-25.03
-27.37
-27.13
-24.96
-22.14
-19.89
-18.55
-17.32
-14.77
-9.95
-3.18
3.81
8.76
10.10
7.76
3.20
-1.37
-4.17
-4.53
-3.36
-2.08
-1.76
-2.39
-2.84
-1.54
2.46
8.88
15.93
21.34
23.41
21.95
18.29
14.56
12.46
12.57
13.95
15.10
14.84
13.09
10.73
9.02
8.75
9.96
11.83
13.40
14.10
14.09
14.07
14.85
16.97
20.49
24.93
29.71
34.33
38.37
41.69
44.40
46.71
48.63
49.93
50.28
49.66
48.56
47.50
47.17
48.19
50.92
55.18
60.27
65.13
68.66
70.10
68.49
63.51
55.90
47.15
38.78
31.64
25.73
20.54
15.80
9.87
2.17
-6.26
-13.20
-16.97
-17.53
-16.22
-14.68
-13.15
-14.60
-20.14
-27.60
-31.98
-28.10
-13.12
12.85
46.87
85.05
115.51
127.56
116.53
85.47
41.83
-6.63
-54.06
-97.69
-135.48
-176.58
-229.82
-298.55
-379.48
-466.99
-557.27
-648.84
-742.08
-787.63
-753.47
-640.52
-483.87
-324.76
-187.95
-80.40
1.06
51.04
82.98
98.34
95.98
77.22
47.32
11.48
-29.33
-70.50
-113.06
-155.87
-203.18
-254.85
-304.02
-339.18
-350.54
-335.20
-297.51
-247.16
-192.07
-142.19
-102.93
-74.33
-52.83
-34.73
-18.14
-2.49
12.06
27.33
43.54
60.64
78.26
95.62
111.35
123.99
132.72
137.18
138.70
140.42
145.22
154.12
165.57
176.39
183.60
185.63
182.40
175.54
172.24
178.72
196.66
221.97
247.49
267.12
277.95
280.16
276.11
277.12
293.01
326.83
373.02
421.79
465.18
499.84
526.71
549.08
581.54
636.68
718.97
822.76
937.27
1052.89
1162.75
1261.06
1276.73
1162.18
916.96
595.54
271.48
-2.97
-208.55
-349.90
-442.63
-504.28
-537.52
-541.26
-517.84
-477.41
-434.46
-401.11
-383.56
-382.24
-394.88
-408.76
-412.29
-401.06
-379.90
-358.47
-345.13
-343.71
-349.39
-359.50
-365.53
-360.16
-341.04
-312.20
-281.21
-254.85
-236.76
-227.14
-224.67
-223.67
-218.66
-207.08
-190.25
-172.03
-156.56
-146.99
-144.75
-150.23
-159.60
-166.39
-163.24
-144.32
-107.24
-54.04
7.85
70.93
125.74
164.67
183.68
183.27
167.92
144.64
120.33
101.91
92.75
91.96
96.56
103.10
109.25
113.90
116.68
117.16
114.79
109.04
99.84
88.36
76.22
65.24
56.25
48.72
41.53
33.63
24.34
13.51
1.71
-10.54
-22.32
-33.43
-44.12
-54.78
-65.75
-77.26
-89.42
-100.48
-111.06
-120.92
-129.80
-137.02
-141.66
-142.84
-140.14
-133.92
-125.14
-116.88
-108.60
-100.03
-90.30
-78.08
-62.65
-44.52
-25.75
-9.37
1.40
4.94
0.57
-11.22
-28.38
-48.15
-67.04
-81.14
-86.98
-82.88
-69.45
-50.22
-30.23
-13.32
-1.71
4.27
5.24
1.99
-5.25
-15.71
-27.58
-37.71
-40.89
-32.68
-10.94
23.05
64.73
106.68
140.59
159.74
154.69
123.94
73.92
17.46
-31.03
-61.70
-73.70
-75.02
-78.09
-93.19
-122.39
-160.25
-197.63
-227.20
-246.77
-258.94
-267.68
-274.93
-279.17
-275.82
-261.25
-235.31
-201.45
-165.21
-131.29
-101.53
-74.64
-47.65
-17.07
18.90
59.63
102.14
141.71
173.24
192.91
199.51
194.86
183.35
169.80
157.68
148.36
141.80
138.09
138.48
145.07
158.99
178.58
198.60
211.75
211.78
196.62
169.66
138.65
112.74
99.51
102.95
122.70
154.43
190.61
221.53
237.20
230.00
197.73
145.57
85.41
32.38
-0.47
-6.74
11.40
45.15
83.40
116.89
140.32
151.80
151.07
138.20
113.83
80.63
43.99
11.28
-10.94
-19.73
-17.31
-10.04
-5.55
-9.24
-22.42
-42.54
-65.10
-85.92
-102.23
-112.85
-117.43
-116.17
-109.80
-100.04
-89.40
-80.32
-73.99
-69.51
-64.37
-55.82
-42.54
-25.71
-8.65
4.69
11.60
11.90
7.90
3.29
1.53
4.52
12.11
22.55
33.46
42.97
50.28
55.63
59.88
63.79
67.69
71.39
74.61
77.06
78.22
77.15
72.29
62.11
45.82
24.13
-0.53
-24.54
-44.15
-56.51
-60.19
-55.34
-43.12
-25.59
-5.32
14.95
33.19
48.90
63.41
79.57
99.95
125.45
153.56
179.18
196.97
204.25
202.26
194.75
185.60
175.54
162.58
142.50
112.21
72.35
28.01
-13.30
-45.63
-66.59
-78.24
-82.93
-82.13
-74.69
-57.17
-25.99
19.91
76.28
134.83
184.86
219.75
237.61
241.66
238.12
233.29
231.34
232.55
235.68
224.05
189.24
133.70
70.24
13.95
-26.61
-46.99
-56.47
-63.41
-72.53
-82.23
-89.08
-90.59
-86.87
-81.09
-78.33
-84.02
-101.03
-129.32
-164.28
-199.79
-230.49
-253.89
-270.65
-284.16
-299.48
-321.40
-353.57
-395.81
-444.18
-491.24
-527.39
-542.61
-529.54
-485.10
-412.24
-319.47
-218.41
-121.35
-38.35
24.57
66.54
89.58
105.23
123.74
150.85
185.20
220.91
252.93
277.82
297.58
310.47
313.42
303.53
280.51
247.83
210.47
173.29
139.48
109.95
79.82
44.59
2.62
-42.90
-86.04
-121.03
-144.37
-155.77
-157.88
-160.39
-173.11
-202.68
-250.41
-313.33
-385.77
-459.93
-526.86
-550.91
-510.76
-411.08
-281.72
-157.05
-57.89
11.49
57.31
88.82
113.21
129.27
133.86
126.59
111.82
96.25
85.21
80.88
82.53
87.78
90.27
85.20
71.90
53.94
36.53
23.53
16.40
14.51
16.29
17.58
15.26
8.83
0.57
-6.07
-8.22
-4.57
4.34
18.05
34.07
49.99
64.47
77.53
89.89
102.41
115.16
127.39
137.83
143.88
143.00
133.55
115.35
89.80
59.86
28.78
-1.68
-28.26
-49.42
-65.07
-75.63
-81.54
-82.84
-78.12
-66.01
-45.73
-17.09
18.99
60.86
105.76
149.23
182.02
197.14
190.66
163.83
123.53
79.74
41.97
15.86
1.77
-3.91
-5.34
-5.45
-4.94
-3.09
0.44
4.75
8.07
8.84
6.76
3.37
0.68
0.55
3.61
9.08
15.25
20.32
23.17
23.81
23.46
23.61
25.49
29.44
34.92
40.68
45.40
48.20
48.86
47.90
45.99
43.68
41.13
38.01
33.83
27.93
20.05
10.42
-0.34
-11.57
-22.65
-33.30
-43.50
-53.46
-63.42
-73.43
-83.32
-91.68
-98.57
-103.91
-107.62
-109.82
-110.72
-110.51
-109.18
-106.50
-103.13
-97.99
-90.75
-81.75
-71.88
-62.28
-54.05
-47.83
-43.52
-40.49
-37.91
-35.30
-32.81
-31.19
-31.60
-34.95
-41.42
-50.09
-59.34
-67.63
-73.98
-78.43
-81.98
-86.07
-92.18
-101.69
-115.29
-133.07
-153.68
-173.95
-188.68
-192.54
-182.40
-159.41
-129.16
-99.22
-76.83
-66.17
-67.11
-76.10
-88.71
-101.89
-114.77
-127.90
-141.04
-153.19
-162.63
-167.79
-167.21
-160.66
-148.65
-131.47
-113.19
-94.64
-75.31
-54.38
-31.10
-3.55
28.82
64.68
101.12
134.97
164.97
190.82
211.95
228.28
243.02
257.58
270.05
275.41
268.36
246.94
212.48
167.83
119.12
78.96
57.27
57.85
77.57
109.89
149.97
194.75
241.22
289.88
349.58
426.48
520.53
624.74
729.62
829.37
921.59
1004.84
1026.53
954.22
789.82
572.24
350.14
155.03
-1.95
-105.32
-173.66
-220.35
-244.77
-245.05
-223.03
-185.73
-151.34
-129.58
-135.02
-172.01
-231.35
-291.90
-335.95
-355.99
-355.75
-344.98
-331.37
-319.34
-310.11
-300.12
-281.71
-250.59
-207.72
-157.84
-106.62
-56.69
-9.09
35.18
71.35
94.59
99.82
84.69
51.98
9.08
-35.00
-75.18
-111.42
-146.40
-180.45
-209.45
-226.12
-224.72
-206.01
-178.80
-156.67
-150.61
-163.07
-186.49
-207.63
-214.63
-202.27
-172.93
-133.88
-92.74
-54.24
-19.63
11.79
40.72
68.14
93.37
118.92
147.30
179.41
212.63
240.73
256.02
252.69
229.32
190.29
144.09
98.94
59.82
26.95
-2.80
-33.73
-69.38
-112.05
-161.72
-215.59
-268.33
-312.61
-340.41
-345.29
-325.27
-284.25
-231.82
-179.16
-134.86
-102.13
-79.51
-62.96
-48.62
-34.92
-20.18
-7.25
-0.56
-2.42
-10.53
-20.94
-30.83
-39.66
-48.20
-56.91
-65.31
-71.27
-72.80
-66.62
-51.55
-28.75
-0.61
30.53
63.25
96.88
132.41
165.30
193.15
214.16
227.47
233.05
231.59
224.21
211.79
195.83
177.78
160.03
144.25
131.50
122.17
116.10
112.45
109.48
105.69
99.83
92.18
83.78
76.32
71.45
70.10
73.89
79.63
84.21
84.94
81.07
73.59
65.15
59.09
58.37
64.66
77.39
94.08
110.02
119.62
117.88
102.33
74.66
41.37
12.70
-0.30
10.29
45.25
97.51
154.46
202.66
232.69
241.62
230.64
205.65
174.34
142.74
113.83
88.20
65.74
46.87
32.39
22.57
16.40
11.40
4.48
-6.57
-21.89
-39.65
-56.97
-71.40
-82.04
-89.45
-95.40
-101.89
-109.99
-119.32
-128.17
-134.27
-135.79
-132.01
-123.32
-111.01
-96.69
-81.64
-66.39
-50.80
-34.47
-17.20
0.70
18.45
35.00
49.30
60.64
68.77
73.83
76.11
75.84
73.10
67.95
60.48
51.03
40.18
28.61
16.97
5.61
-5.43
-16.36
-27.36
-38.32
-48.71
-57.67
-64.23
-67.85
-68.65
-67.59
-66.21
-66.22
-68.99
-75.13
-84.61
-96.95
-111.72
-128.82
-148.69
-172.03
-199.75
-232.74
-271.42
-315.29
-362.22
-408.26
-448.06
-476.30
-489.44
-486.96
-471.44
-447.33
-419.09
-389.61
-359.70
-328.71
-295.48
-259.37
-220.51
-179.82
-138.73
-98.90
-62.05
-29.66
-2.67
18.87
35.59
48.66
59.13
67.74
74.73
80.20
84.37
87.60
90.27
92.50
93.99
94.22
92.93
90.50
87.99
86.79
87.80
90.63
93.56
94.20
90.78
83.18
73.27
64.17
58.93
59.16
64.44
72.70
81.17
87.45
90.42
90.17
87.69
84.18
80.40
76.44
71.99
66.57
60.07
52.80
45.33
38.14
31.37
24.71
17.65
9.81
1.21
-7.75
-16.30
-23.56
-28.81
-31.57
-31.82
-29.95
-26.64
-22.71
-18.76
-14.91
-10.87
-6.15
-0.53
5.74
11.97
17.27
21.05
23.20
24.17
24.95
26.75
30.85
38.24
49.17
62.94
77.95
92.28
104.45
114.01
121.38
127.31
131.80
133.78
131.39
123.12
108.51
88.47
64.98
40.42
16.77
-4.95
-24.73
-43.11
-60.57
-77.23
-92.91
-106.95
-118.54
-127.06
-132.68
-136.88
-142.71
-154.13
-175.67
-210.79
-259.67
-317.50
-374.99
-421.24
-447.81
-451.92
-435.79
-406.59
-373.40
-343.31
-318.86
-298.62
-279.81
-260.79
-241.74
-220.63
-196.06
-167.79
-136.19
-100.83
-60.61
-14.94
35.15
87.43
144.33
206.83
272.67
337.55
398.50
455.11
508.61
560.77
613.38
673.91
745.51
822.82
893.50
944.87
969.02
964.66
936.57
852.17
705.33
521.80
343.41
198.52
92.93
20.05
-28.62
-59.77
-77.89
-83.03
-77.02
-66.46
-60.25
-64.24
-78.94
-101.75
-130.08
-159.98
-185.08
-202.52
-214.94
-228.66
-249.60
-280.81
-322.27
-370.75
-419.71
-457.48
-473.22
-461.92
-425.90
-372.86
-312.30
-252.73
-199.21
-152.74
-110.21
-67.94
-24.01
22.09
71.01
123.86
180.81
239.01
291.92
331.27
350.03
345.25
319.82
281.60
240.21
203.36
174.60
153.40
136.65
120.77
102.59
79.70
50.46
14.48
-26.49
-68.25
-105.04
-131.53
-144.62
-144.89
-136.06
-123.48
-112.05
-104.72
-101.96
-102.32
-103.44
-102.96
-99.44
-92.55
-83.18
-73.03
-63.98
-57.21
-52.95
-50.67
-49.80
-50.30
-52.57
-56.83
-62.62
-68.61
-73.12
-74.92
-73.68
-69.88
-64.17
-56.68
-47.04
-34.98
-21.11
-7.18
4.56
12.50
16.74
19.24
22.83
29.64
39.69
50.69
58.89
60.99
55.69
44.50
31.02
19.38
12.50
10.97
13.38
17.33
20.94
23.65
26.16
29.47
33.91
38.65
42.16
42.97
40.29
34.02
24.16
10.36
-7.93
-30.49
-55.22
-77.92
-93.52
-98.28
-91.99
-78.44
-63.77
-53.64
-50.67
-53.75
-59.44
-64.31
-66.94
-68.20
-69.91
-73.05
-76.42
-77.03
-71.58
-58.44
-38.75
-16.26
4.08
17.97
23.43
21.43
15.51
10.28
9.40
14.04
22.45
31.02
36.46
37.80
37.07
38.05
43.81
54.29
65.91
73.05
71.13
59.11
40.36
21.18
8.24
6.04
15.54
34.23
57.11
78.01
91.01
91.80
79.17
55.96
28.84
6.35
-4.30
-0.44
14.43
31.43
39.69
30.98
4.00
-34.29
-70.66
-90.86
-85.78
-55.98
-11.75
30.81
56.80
58.95
40.51
13.26
-8.00
-12.62
1.89
29.37
58.47
77.69
79.65
62.99
31.71
-6.88
-44.70
-74.57
-91.54
-93.78
-83.24
-65.98
-50.93
-47.15
-60.17
-88.93
-124.98
-155.20
-167.01
-153.63
-117.57
-70.17
-26.90
-1.42
-0.32
-21.33
-55.32
-90.93
-119.01
-135.72
-142.52
-144.24
-145.91
-150.30
-157.02
-163.42
-166.28
-163.57
-155.02
-141.67
-125.11
-106.36
-85.48
-61.83
-35.03
-5.95
22.66
46.90
63.44
71.41
73.35
74.83
82.00
98.51
123.40
150.82
172.25
180.34
172.31
151.37
125.07
101.77
86.94
81.12
80.48
79.86
76.14
70.21
66.23
68.72
79.27
95.06
109.84
116.72
111.25
93.26
66.50
36.75
9.27
-12.88
-29.04
-39.92
-46.19
-47.51
-42.81
-31.57
-15.34
1.56
12.80
12.23
-3.38
-32.22
-67.41
-98.95
-117.15
-116.13
-96.06
-63.29
-28.12
-1.03
11.42
9.12
-1.66
-11.19
-10.69
3.88
30.24
61.13
87.72
103.31
105.57
96.70
81.82
66.56
55.19
49.59
49.07
51.08
52.44
50.72
45.44
38.68
34.54
37.45
50.04
70.99
94.54
111.94
114.44
97.02
60.90
13.85
-32.22
-65.55
-79.03
-73.02
-55.12
-36.82
-28.43
-34.48
-51.78
-71.00
-80.95
-73.57
-47.57
-9.17
30.16
58.14
66.44
54.12
28.07
0.44
-16.35
-14.94
3.83
31.19
54.29
61.45
46.62
11.21
-37.11
-87.30
-128.56
-153.03
-157.58
-144.61
-121.45
-98.34
-84.97
-86.57
-101.55
-121.90
-136.78
-138.00
-124.31
-102.35
-83.24
-76.45
-84.66
-102.32
-118.86
-124.72
-116.65
-99.19
-81.42
-71.21
-70.28
-73.35
-71.42
-57.22
-29.31
7.51
45.35
77.69
102.22
120.89
137.43
154.18
170.59
183.31
187.94
181.04
161.47
131.07
94.55
58.61
30.35
15.21
14.75
25.72
40.76
51.20
50.55
37.30
15.43
-7.36
-22.97
-26.26
-16.90
0.89
20.36
35.06
41.35
39.63
33.71
28.79
28.84
34.66
43.61
50.92
52.25
46.19
35.29
25.12
21.60
27.91
42.75
60.76
75.03
80.47
76.21
65.83
55.19
49.38
50.26
55.98
62.32
65.01
61.60
52.27
39.70
27.93
21.09
21.86
30.18
42.72
53.54
56.14
46.48
25.41
-1.03
-23.93
-35.65
-33.42
-20.35
-3.58
9.39
14.28
11.38
4.42
-1.86
-4.16
-1.92
3.04
7.59
8.77
4.89
-3.97
-15.89
-27.70
-36.15
-39.37
-37.90
-34.55
-33.07
-36.05
-43.16
-50.80
-53.75
-47.83
-32.48
-11.47
8.47
20.93
22.96
16.84
9.12
7.39
16.36
35.32
58.22
76.29
81.74
71.07
46.50
15.12
-13.87
-32.59
-37.43
-30.42
-18.17
-8.80
-7.98
-16.14
-28.35
-37.14
-36.67
-26.19
-10.44
3.09
8.38
4.17
-5.53
-13.80
-14.55
-5.69
9.96
26.44
37.60
40.20
35.09
26.42
19.48
18.27
24.07
35.40
49.22
62.44
72.82
79.07
80.34
75.87
64.91
47.34
24.13
-2.52
-29.66
-54.29
-74.00
-87.44
-94.35
-95.60
-92.93
-88.81
-85.75
-85.49
-88.09
-91.55
-92.43
-87.26
-74.44
-55.56
-35.38
-20.02
-14.35
-19.42
-31.80
-45.00
-52.44
-50.57
-40.28
-26.10
-13.65
-6.74
-5.46
-6.27
-3.88
5.79
23.08
43.86
61.16
68.41
62.84
47.28
29.41
18.57
21.69
39.99
68.19
96.39
114.01
113.91
95.19
63.44
28.10
-1.23
-18.70
-24.40
-23.99
-25.75
-36.39
-57.54
-84.69
-108.97
-120.87
-114.27
-88.98
-50.98
-10.11
23.67
44.18
51.21
50.16
49.16
54.89
69.26
88.70
106.27
115.78
115.37
108.73
103.26
105.99
119.70
141.36
163.62
178.37
180.54
170.26
152.58
135.27
125.72
128.40
143.47
167.09
192.80
213.69
224.50
222.96
210.18
189.62
165.51
141.17
118.04
95.65
72.50
46.85
17.39
-16.21
-52.61
-88.14
-116.63
-130.88
-125.55
-100.41
-62.10
-22.92
3.49
8.02
-9.49
-39.58
-67.28
-79.06
-69.03
-41.43
-8.23
17.11
25.55
15.57
-7.77
-36.56
-63.86
-85.93
-102.09
-113.82
-123.74
-135.07
-150.68
-171.12
-192.62
-206.54
-201.94
-171.02
-114.14
-41.77
28.73
79.88
101.10
92.20
62.20
24.44
-9.25
-32.38
-45.44
-53.59
-63.58
-81.04
-108.81
-145.76
-186.29
-221.46
-240.91
-236.47
-204.57
-148.18
-77.25
-6.90
47.47
76.35
80.60
71.66
64.98
74.02
103.95
149.08
195.39
227.74
237.30
224.55
197.17
160.16
117.24
71.75
27.31
-12.75
-45.69
-69.98
-86.80
-100.46
-124.76
-167.14
-221.20
-269.80
-296.19
-292.37
-261.67
-216.35
-171.99
-154.90
-178.54
-236.30
-308.67
-378.44
-437.87
-486.59
-526.83
-559.87
-603.42
-667.59
-747.84
-831.11
-909.29
-983.18
-1057.80
-1137.47
-1110.03
-925.16
-624.77
-302.41
-21.92
201.33
374.68
507.33
604.88
671.67
696.31
677.32
630.12
578.52
538.80
514.65
502.18
495.44
489.13
465.44
413.85
339.63
260.62
195.34
155.16
142.98
153.95
178.07
195.67
193.94
173.41
144.78
118.84
100.49
89.45
82.94
78.51
71.22
59.46
45.71
34.53
28.00
24.83
22.01
17.13
9.60
-0.74
-12.38
-22.78
-29.42
-32.15
-32.87
-34.35
-38.67
-46.40
-56.58
-67.49
-77.56
-85.43
-91.12
-95.59
-100.08
-105.38
-111.25
-116.21
-117.47
-115.91
-110.76
-101.89
-90.03
-76.63
-63.34
-51.29
-40.67
-30.59
-19.68
-6.09
10.76
29.86
48.85
64.88
75.79
81.16
82.62
83.15
86.23
93.75
105.18
117.82
128.40
134.70
137.08
138.62
143.82
157.02
180.47
214.00
255.33
300.77
345.42
383.01
406.53
410.08
391.91
356.24
312.53
271.44
239.44
215.34
191.66
160.51
120.23
78.61
49.63
45.77
70.20
113.80
158.83
187.02
187.25
158.92
110.55
54.83
3.73
-34.66
-57.40
-66.82
-69.64
-74.74
-89.61
-116.15
-148.34
-173.54
-177.87
-152.93
-100.73
-33.85
29.50
72.55
85.91
69.35
30.12
-20.97
-72.84
-116.66
-147.11
-162.80
-166.57
-164.99
-166.91
-180.48
-210.00
-253.49
-302.41
-344.36
-367.93
-367.92
-347.88
-318.61
-292.88
-279.17
-277.69
-281.08
-279.09
-264.51
-236.72
-200.72
-162.76
-126.04
-89.11
-47.77
1.11
56.98
115.77
171.51
218.89
254.20
275.45
282.62
277.96
265.95
251.96
239.64
228.19
211.76
181.98
132.78
65.32
-10.56
-79.29
-125.55
-140.22
-123.26
-82.13
-27.94
28.66
79.67
119.93
146.49
158.80
158.95
151.39
141.75
134.01
127.94
118.85
99.96
66.71
20.33
-31.86
-79.25
-111.94
-124.37
-116.74
-94.14
-64.36
-35.21
-12.59
0.47
4.07
1.12
-3.88
-6.39
-3.69
4.10
14.70
25.33
34.49
42.65
51.25
60.75
69.69
74.75
71.81
57.89
32.92
0.75
-31.17
-53.95
-60.93
-50.86
-29.45
-8.12
0.55
-11.38
-42.74
-82.78
-115.59
-127.41
-112.89
-77.03
-32.55
5.89
27.09
26.25
5.32
-28.42
-64.69
-92.78
-104.52
-96.81
-72.53
-39.40
-6.59
19.17
36.07
47.08
57.44
71.25
89.04
107.74
122.38
128.41
123.61
108.81
87.69
65.87
49.39
42.82
47.49
60.40
74.57
81.44
74.30
51.81
19.60
-11.58
-30.46
-31.00
-16.22
2.32
9.65
-5.14
-42.99
-93.68
-139.99
-165.44
-161.63
-131.28
-85.99
-40.40
-6.03
12.00
14.96
8.08
-2.07
-9.46
-9.36
1.02
21.65
48.63
74.25
88.90
84.72
59.58
19.19
-24.13
-56.04
-66.23
-53.13
-25.21
2.45
14.49
2.18
-32.48
-77.44
-116.03
-134.19
-125.96
-95.14
-52.47
-10.65
20.23
35.25
35.13
24.81
11.93
4.45
8.26
24.90
50.29
75.14
87.72
78.21
43.05
-12.92
-77.26
-133.72
-167.84
-172.17
-149.07
-109.76
-69.55
-41.18
-29.49
-29.67
-30.50
-20.46
6.20
46.90
91.94
128.97
147.89
144.35
120.76
85.24
49.18
23.56
15.49
25.59
47.19
68.31
76.36
63.43
29.80
-16.37
-62.75
-98.33
-117.95
-123.33
-120.50
-115.63
-111.73
-107.86
-101.09
-88.67
-70.12
-47.41
-23.88
-2.96
12.68
20.81
19.23
6.47
-16.09
-43.32
-67.32
-80.15
-77.07
-58.13
-29.46
-0.70
18.17
22.64
14.80
1.82
-8.12
-9.15
1.56
22.25
48.38
73.77
97.05
120.56
147.97
180.04
213.42
243.61
264.38
269.61
252.57
213.78
159.24
98.60
41.17
-4.49
-29.21
-28.07
-2.12
38.64
85.93
133.76
178.50
216.65
225.24
190.63
114.62
37.34
-26.66
-71.34
-100.73
-115.03
-116.72
-108.14
-89.99
-63.92
-32.41
-1.52
27.79
58.75
96.12
142.31
199.52
267.94
342.04
411.34
461.33
483.72
479.43
456.33
408.53
340.87
267.07
201.93
153.71
125.95
110.84
103.03
99.58
97.12
93.59
87.12
74.76
53.92
23.02
-16.76
-61.07
-105.48
-146.96
-182.02
-208.76
-227.39
-239.08
-245.05
-246.04
-241.39
-230.82
-215.13
-194.79
-171.25
-147.41
-126.02
-108.62
-95.56
-85.54
-76.99
-68.55
-59.22
-48.93
-40.41
-36.44
-38.62
-47.03
-60.19
-76.22
-92.95
-109.34
-125.06
-144.16
-169.76
-202.36
-239.31
-275.85
-307.13
-328.28
-338.10
-337.31
-334.43
-337.52
-352.07
-380.21
-422.10
-476.65
-539.17
-604.95
-666.00
-720.01
-762.75
-788.58
-792.44
-773.20
-735.43
-685.76
-635.81
-547.02
-402.67
-210.73
-1.79
190.75
347.37
451.53
519.95
564.44
591.12
594.45
569.17
515.48
437.83
343.06
237.94
137.58
54.79
1.99
-19.58
-14.92
7.19
36.98
65.40
86.06
98.20
101.61
98.97
89.89
74.01
51.81
25.32
-2.13
-27.03
-43.99
-51.96
-52.15
-49.09
-47.01
-48.17
-52.29
-57.41
-60.14
-57.25
-48.39
-34.55
-18.13
-1.12
16.03
34.94
52.10
66.60
78.05
85.17
86.65
81.43
69.23
50.76
27.62
1.92
-23.12
-44.63
-60.68
-70.08
-72.50
-68.29
-58.31
-43.99
-27.07
-8.61
10.55
30.02
50.10
71.64
95.73
123.21
154.17
187.90
223.33
258.99
293.39
325.56
355.23
383.01
410.24
438.34
467.96
498.35
526.85
549.41
561.79
560.94
545.90
517.79
478.99
432.17
379.66
323.34
265.02
206.80
150.99
99.53
53.41
12.11
-26.14
-63.90
-103.84
-148.45
-199.80
-258.88
-324.74
-393.56
-458.61
-511.48
-544.75
-554.63
-542.51
-514.41
-478.51
-442.10
-409.47
-381.66
-357.77
-336.71
-318.26
-302.88
-290.87
-281.60
-273.62
-265.35
-256.09
-246.42
-238.07
-233.19
-233.32
-238.78
-248.60
-260.86
-273.43
-284.51
-292.98
-298.27
-300.01
-297.57
-289.89
-275.52
-253.07
-221.70
-181.51
-133.58
-79.90
-22.97
34.62
90.48
142.58
189.22
228.94
260.53
283.04
295.89
298.99
292.83
278.41
257.63
232.51
204.86
176.15
147.36
119.33
92.79
68.30
46.42
27.95
13.33
2.56
-4.80
-9.40
-11.86
-12.59
-11.96
-10.17
-6.40
-0.21
8.10
17.47
26.54
34.22
40.02
43.67
45.55
48.99
56.50
68.76
84.44
101.14
116.98
131.44
144.15
156.42
175.28
205.58
248.24
299.64
353.71
405.33
452.14
492.51
528.58
571.99
631.22
708.41
798.40
891.79
980.20
1059.54
1127.28
1188.16
1260.27
1357.13
1481.81
1624.08
1764.41
1882.85
1966.13
2007.00
1931.27
1699.25
1313.52
827.00
318.89
-143.04
-522.55
-789.50
-971.83
-1095.88
-1168.58
-1194.33
-1180.82
-1141.96
-1095.67
-1055.27
-1027.25
-1015.60
-1014.77
-1008.38
-983.67
-935.54
-868.51
-793.81
-723.60
-666.85
-630.62
-613.52
-605.92
-599.61
-590.49
-579.11
-568.07
-558.03
-546.45
-530.85
-507.32
-472.78
-429.03
-381.41
-335.85
-295.96
-261.34
-228.54
-194.34
-155.90
-111.98
-63.99
-15.08
30.82
69.93
99.64
119.26
130.07
135.61
140.18
147.18
157.98
171.60
185.49
196.96
204.44
207.87
208.32
207.20
205.75
205.06
206.38
211.25
220.81
234.64
249.79
261.07
262.80
251.13
225.94
191.17
153.33
118.72
91.05
70.33
53.30
35.12
11.42
-19.85
-57.11
-94.72
-123.86
-135.01
-121.53
-83.00
-26.67
34.35
85.51
116.02
122.14
107.11
78.29
43.26
7.16
-27.55
-59.82
-88.76
-113.37
-133.49
-150.20
-165.53
-181.03
-196.49
-209.32
-215.71
-212.40
-198.37
-175.19
-146.62
-117.11
-90.45
-68.71
-51.86
-38.00
-24.16
-6.95
16.51
47.58
85.37
126.20
163.85
190.92
201.20
192.73
170.08
143.76
126.80
129.33
153.70
193.29
235.29
266.60
279.48
273.96
256.15
234.02
213.35
195.94
180.50
165.37
150.44
137.47
128.69
124.82
124.17
123.21
118.02
106.23
88.07
66.12
44.09
25.21
10.84
0.12
-9.40
-20.52
-35.01
-52.80
-72.08
-90.20
-104.90
-115.42
-122.86
-129.66
-138.61
-151.53
-168.46
-187.69
-206.47
-222.39
-234.59
-244.14
-253.62
-265.95
-283.06
-305.12
-330.87
-358.36
-385.73
-411.33
-433.58
-450.92
-462.13
-466.78
-465.32
-458.47
-445.97
-425.92
-395.02
-350.19
-290.70
-219.72
-144.26
-73.41
-15.50
24.59
46.43
53.50
50.94
42.95
31.09
13.88
-12.06
-49.97
-100.58
-160.66
-223.34
-280.30
-325.10
-355.80
-375.37
-389.41
-402.42
-414.72
-422.00
-417.87
-398.07
-363.63
-320.97
-278.91
-244.13
-218.09
-196.96
-174.59
-146.34
-111.67
-74.04
-38.70
-9.94
10.98
26.56
41.64
61.45
89.26
125.03
165.54
205.94
241.78
270.75
293.12
311.10
327.72
345.95
367.92
394.49
424.18
452.27
470.63
469.58
441.70
386.40
312.67
237.74
181.14
156.60
165.90
197.77
232.51
250.30
238.98
198.36
139.41
79.69
36.69
22.06
38.17
77.56
125.52
164.57
179.90
164.14
120.16
59.99
0.55
-42.78
-61.92
-58.85
-44.41
-33.45
-38.65
-65.10
-108.48
-156.77
-195.17
-211.44
-199.64
-161.58
-105.58
-44.09
9.51
44.22
54.87
44.31
22.84
4.53
0.99
15.78
42.09
65.79
72.82
57.09
24.56
-9.06
-25.77
-14.35
24.26
77.39
126.38
154.33
151.99
119.88
66.44
4.49
-52.82
-94.78
-114.98
-112.67
-92.99
-65.97
-43.42
-34.47
-41.02
-56.48
-68.31
-64.31
-39.50
0.30
39.79
60.87
51.05
9.65
-51.40
-112.06
-152.33
-159.64
-132.67
-81.07
-21.22
29.55
58.53
61.12
41.73
11.59
-15.63
-28.73
-23.07
-2.23
23.75
42.67
45.42
29.93
2.33
-25.61
-41.21
-36.20
-10.31
28.02
64.55
84.62
79.04
48.16
2.21
-42.58
-70.51
-72.84
-51.70
-18.99
8.94
18.91
6.93
-20.03
-47.27
-59.29
-46.48
-9.07
43.16
94.90
130.99
141.38
123.93
84.70
35.82
-8.48
-35.96
-39.83
-20.49
15.10
55.79
89.81
108.41
108.24
92.21
68.47
47.30
37.02
40.42
53.12
65.30
66.12
48.95
15.21
-25.59
-59.31
-72.96
-60.10
-23.73
24.73
69.62
97.02
99.86
80.28
48.46
18.22
1.65
4.78
25.89
56.97
86.85
105.12
105.42
87.29
56.41
22.38
-4.98
-19.69
-22.42
-20.68
-25.43
-46.13
-86.02
-140.23
-197.65
-245.15
-272.36
-274.35
-251.83
-209.51
-154.22
-93.76
-36.12
11.48
44.19
60.84
64.37
60.25
53.74
47.28
39.63
27.51
8.80
-14.76
-37.30
-51.36
-51.87
-39.09
-18.98
-0.74
7.36
1.13
-17.89
-43.48
-66.78
-79.26
-75.22
-53.79
-19.56
18.38
48.83
62.29
54.67
29.33
-3.72
-31.42
-42.89
-33.74
-7.57
25.67
53.79
67.01
61.15
38.79
8.11
-19.76
-34.22
-28.44
-1.78
39.74
85.15
121.98
140.45
136.84
114.56
82.38
50.70
27.63
16.58
15.82
20.06
22.93
19.70
8.84
-7.37
-23.69
-33.94
-33.48
-21.58
-2.22
17.22
29.31
29.58
18.54
1.46
-13.91
-20.44
-14.43
3.12
27.15
51.16
68.86
76.04
71.75
58.62
42.01
28.04
21.02
21.69
28.31
36.43
41.04
38.90
30.19
18.85
10.80
11.06
21.72
43.70
74.62
109.21
139.91
158.90
160.90
145.13
115.67
80.54
52.64
43.12
58.07
96.10
150.21
211.42
272.31
327.51
354.02
336.14
271.44
174.23
66.09
-35.00
-119.12
-182.21
-224.90
-250.89
-261.24
-260.56
-252.66
-241.09
-228.22
-214.51
-197.21
-173.75
-143.71
-106.65
-65.89
-24.50
14.80
50.49
82.82
115.76
153.46
198.39
251.96
312.68
376.75
437.60
486.85
504.29
478.07
409.81
315.89
220.33
142.21
89.65
60.33
47.23
41.61
40.91
44.94
51.80
57.27
55.50
41.59
15.17
-21.27
-63.31
-104.02
-137.95
-164.67
-186.77
-207.65
-228.85
-249.19
-265.91
-276.16
-276.92
-267.50
-253.34
-241.81
-239.23
-248.07
-266.66
-290.88
-316.21
-338.27
-354.50
-368.77
-386.14
-410.37
-442.31
-480.91
-525.17
-574.52
-627.19
-652.01
-624.80
-535.93
-397.31
-235.47
-78.28
54.18
152.55
217.45
256.63
276.20
281.48
276.40
264.54
249.34
233.85
220.55
211.34
207.67
207.56
208.92
210.90
215.04
224.51
241.89
267.34
295.91
320.22
330.30
319.43
287.47
241.27
192.04
149.82
119.71
101.10
89.05
77.04
60.98
40.35
17.69
-3.43
-21.06
-35.98
-51.44
-70.84
-96.61
-128.04
-161.31
-191.68
-215.81
-233.35
-246.88
-260.78
-274.84
-290.21
-307.53
-326.17
-343.74
-355.75
-356.87
-342.98
-313.31
-271.70
-225.81
-183.35
-149.17
-123.92
-105.12
-89.79
-76.27
-64.52
-54.87
-46.97
-38.75
-27.10
-9.51
14.92
44.84
77.02
107.79
134.23
154.85
170.04
181.35
190.61
200.48
213.60
232.29
257.45
287.58
318.08
342.06
352.37
344.17
318.33
279.42
233.15
183.84
133.84
85.15
41.59
9.03
-6.60
0.24
29.43
74.25
123.41
165.64
194.22
208.96
214.56
217.61
227.25
250.29
290.02
345.70
413.06
485.61
555.72
615.38
635.33
594.75
489.25
336.86
170.06
18.85
-100.62
-186.28
-244.17
-282.23
-302.94
-306.45
-295.67
-276.74
-258.55
-249.74
-255.91
-278.66
-315.81
-356.75
-388.24
-398.44
-381.37
-339.45
-282.32
-222.88
-172.69
-138.24
-117.92
-105.76
-95.45
-83.63
-70.98
-60.29
-53.94
-52.27
-53.70
-55.02
-53.73
-49.20
-42.52
-35.88
-31.19
-29.31
-29.96
-31.84
-33.13
-31.90
-26.79
-17.29
-3.44
14.68
37.36
64.91
96.57
128.19
153.52
165.38
158.58
132.78
93.42
49.92
11.96
-14.28
-27.88
-31.94
-31.14
-29.02
-26.79
-24.11
-20.50
-16.50
-13.53
-12.95
-14.90
-18.26
-21.26
-22.14
-20.30
-16.35
-11.84
-8.47
-7.31
-8.35
-10.61
-12.68
-13.35
-12.16
-9.51
-6.39
-3.90
-2.71
-2.86
-3.77
-4.66
-4.84
-4.04
-2.45
-0.59
1.00
1.99
2.34
2.33
2.28
2.53
3.18
4.15
5.26
6.31
7.18
7.84
8.35
8.80
9.29
9.80
10.34
10.92
11.58
12.34
13.28
14.51
16.12
18.15
20.52
23.07
25.58
27.67
28.86
28.57
26.35
21.83
14.87
5.70
-5.19
-16.86
-28.18
-37.94
-45.02
-48.50
-47.86
-43.02
-33.85
-21.58
-7.29
7.77
22.48
35.79
46.85
55.06
59.99
61.47
59.34
53.82
45.22
34.03
20.81
6.21
-8.70
-23.31
-37.02
-49.45
-60.17
-68.93
-75.58
-80.05
-82.93
-83.59
-81.72
-77.09
-69.57
-59.04
-45.61
-29.53
-11.29
8.93
29.67
49.66
67.78
83.01
94.56
101.81
104.59
102.92
97.04
87.42
74.64
59.40
42.52
25.21
8.26
-7.45
-21.14
-32.26
-40.64
-46.50
-50.34
-52.79
-54.46
-55.81
-56.91
-57.69
-57.93
-57.65
-57.20
-57.54
-58.87
-61.28
-64.42
-67.35
-68.87
-68.27
-64.82
-58.92
-51.73
-44.70
-39.11
-35.51
-33.61
-32.64
-31.83
-30.78
-29.84
-29.63
-30.72
-33.50
-38.11
-44.47
-51.92
-58.69
-61.60
-56.80
-41.03
-13.69
22.06
60.05
93.24
116.38
127.92
129.72
125.43
118.55
110.70
101.81
91.21
78.80
64.95
51.48
39.57
29.21
19.69
9.90
-0.76
-11.83
-21.97
-29.48
-32.90
-31.64
-26.41
-17.91
-7.37
3.91
14.94
24.97
33.22
38.96
41.31
39.18
32.63
22.33
9.36
-4.85
-19.01
-32.24
-44.16
-54.72
-63.98
-71.67
-77.49
-81.40
-83.57
-84.49
-84.92
-85.58
-86.41
-86.65
-85.11
-79.96
-70.20
-55.55
-36.28
-12.60
15.15
45.78
75.55
99.25
111.16
107.51
88.90
60.36
29.22
1.79
-18.86
-32.58
-39.81
-39.61
-29.45
-7.29
25.17
61.95
93.64
111.72
112.35
97.96
75.36
52.19
34.03
22.50
16.38
13.42
12.31
13.23
17.31
25.54
37.18
51.69
67.49
83.18
97.53
109.30
116.66
116.93
107.47
87.16
57.85
24.17
-7.62
-32.09
-46.55
-51.62
-50.26
-45.97
-41.08
-36.27
-31.43
-26.46
-22.00
-18.98
-17.92
-18.43
-19.26
-18.72
-15.53
-9.52
-1.65
6.31
12.71
16.65
18.42
19.15
20.52
23.70
28.76
34.51
38.74
39.18
34.37
24.24
10.12
-5.85
-21.73
-36.27
-48.96
-60.54
-71.79
-83.18
-94.87
-106.86
-118.72
-129.22
-136.07
-135.47
-124.26
-101.51
-69.78
-34.77
-3.39
19.08
30.83
33.79
32.00
29.04
26.70
24.87
22.64
19.65
16.56
14.65
14.78
16.77
19.38
21.15
20.93
18.63
15.13
11.76
9.66
9.35
10.49
12.11
13.11
12.80
11.13
8.69
6.31
4.72
4.24
4.67
5.42
5.87
5.60
4.58
3.09
1.56
0.37
-0.35
-0.65
-0.82
-1.11
-1.71
-2.63
-3.78
-4.98
-6.11
-7.11
-8.01
-8.91
-9.90
-11.02
-12.30
-13.71
-15.19
-16.72
-18.27
-19.87
-21.61
-23.56
-25.79
-28.30
-31.07
-34.03
-37.10
-40.23
-43.40
-46.72
-50.35
-54.38
-58.80
-63.42
-67.84
-71.58
-74.12
-74.91
-73.67
-70.37
-64.92
-57.24
-47.35
-35.31
-21.47
-6.54
8.42
21.89
32.22
38.17
39.20
35.72
29.10
21.22
13.92
8.68
6.05
5.97
8.14
12.61
19.95
31.21
47.25
67.18
89.66
112.09
131.37
144.69
150.69
149.80
144.19
136.96
131.46
130.29
134.22
141.35
146.88
144.49
128.41
96.23
50.45
-1.46
-49.07
-82.61
-96.10
-89.24
-67.39
-39.47
-14.85
-0.45
1.09
-8.26
-23.66
-39.75
-52.85
-61.91
-67.91
-72.23
-75.01
-75.30
-71.59
-63.65
-53.07
-42.83
-35.99
-34.73
-39.30
-48.15
-58.00
-64.05
-61.37
-46.20
-17.55
21.93
66.06
106.73
135.88
147.78
140.56
116.41
80.83
41.00
4.13
-23.86
-39.46
-42.09
-34.11
-20.04
-5.28
5.59
10.08
8.00
1.44
-6.44
-12.72
-15.75
-15.54
-13.31
-10.41
-7.63
-5.14
-2.52
0.58
4.18
7.86
10.98
13.03
13.86
14.17
14.91
17.09
20.92
25.65
29.43
30.12
26.25
17.29
3.78
-13.58
-33.84
-55.00
-73.65
-84.85
-83.62
-67.93
-41.57
-12.23
9.75
16.59
7.02
-13.10
-33.80
-45.80
-44.69
-31.98
-13.07
6.13
21.76
32.66
38.96
40.57
36.47
25.13
5.84
-19.02
-44.42
-63.24
-68.81
-58.07
-33.21
-1.19
29.18
51.15
62.95
67.50
69.27
70.47
68.91
59.48
37.83
4.13
-35.64
-72.45
-97.35
-105.82
-98.92
-81.89
-60.91
-40.08
-20.54
-0.82
19.57
40.33
59.35
74.17
82.19
82.07
74.13
60.12
42.41
23.24
4.29
-13.74
-30.29
-45.97
-60.96
-74.98
-87.71
-99.22
-110.09
-120.41
-129.08
-133.34
-129.69
-115.38
-90.54
-58.98
-27.09
-1.46
14.04
19.21
16.95
11.00
4.29
-2.07
-8.37
-15.02
-21.74
-27.39
-30.76
-31.34
-29.62
-26.60
-23.35
-20.17
-16.50
-11.37
-3.85
6.41
18.84
32.06
44.36
54.25
60.91
64.31
65.06
64.04
62.05
59.54
56.61
53.19
49.22
44.79
40.20
35.78
31.76
28.23
25.09
22.17
19.33
16.42
13.43
10.41
7.38
4.30
1.20
-1.74
-4.23
-5.89
-6.52
-6.28
-5.43
-4.57
-4.40
-5.28
-7.04
-8.97
-10.16
-9.87
-7.92
-4.44
-0.15
4.01
7.42
10.03
12.37
15.28
19.65
26.30
36.14
49.12
63.97
78.06
87.96
90.62
84.69
71.40
51.42
28.60
7.14
-10.43
-23.91
-34.66
-44.08
-52.22
-57.51
-57.90
-51.64
-39.07
-22.44
-4.81
11.26
24.42
34.41
41.32
45.05
45.56
42.77
37.10
29.74
22.29
16.30
12.40
10.55
10.13
10.72
12.02
13.92
16.26
18.72
20.49
20.84
19.38
16.41
12.97
10.25
9.00
9.17
9.57
8.83
6.07
1.57
-3.28
-6.66
-7.47
-5.95
-3.76
-2.92
-4.79
-9.27
-14.99
-20.14
-23.45
-24.75
-25.04
-25.61
-27.34
-30.16
-33.23
-35.43
-35.96
-34.60
-31.91
-28.74
-25.85
-23.63
-22.00
-20.57
-18.88
-16.61
-13.89
-11.06
-8.58
-6.74
-5.53
-4.63
-3.52
-1.72
0.94
4.27
7.73
10.63
12.45
12.97
12.37
11.09
9.65
8.39
7.40
6.49
5.37
3.80
1.80
-0.46
-2.68
-4.66
-6.38
-7.97
-9.59
-11.21
-12.61
-13.32
-12.99
-11.49
-9.10
-6.34
-3.75
-1.62
0.06
1.45
2.74
3.96
4.99
5.66
5.99
6.15
6.42
7.10
8.32
10.02
12.02
14.11
16.15
18.04
19.65
20.82
21.36
21.12
20.13
18.58
16.74
14.90
13.24
11.83
10.65
9.68
8.88
8.30
7.97
7.95
8.41
9.60
11.79
15.05
19.14
23.41
26.97
29.08
29.40
28.20
26.18
24.11
22.45
21.23
20.16
18.94
17.53
16.16
15.11
14.51
14.14
13.55
12.32
10.28
7.56
4.61
1.84
-0.50
-2.39
-4.04
-5.68
-7.47
-9.27
-10.75
-11.57
-11.65
-11.46
-12.02
-14.69
-20.62
-30.25
-43.02
-57.48
-71.63
-83.59
-91.98
-96.25
-96.58
-93.69
-88.61
-82.35
-75.83
-69.69
-64.39
-60.18
-57.25
-55.70
-55.52
-56.62
-58.72
-61.35
-63.83
-65.44
-65.52
-63.64
-59.75
-54.28
-47.94
-41.52
-35.69
-30.79
-26.90
-24.05
-22.28
-21.86
-23.02
-25.70
-29.42
-33.28
-36.21
-37.40
-36.53
-33.90
-30.08
-25.63
-20.78
-15.43
-9.46
-2.91
3.80
9.90
14.68
17.79
19.40
20.18
20.93
22.30
24.57
27.61
31.06
34.57
37.91
40.96
43.66
45.92
47.68
48.88
49.58
50.01
50.42
50.93
51.44
51.61
51.01
49.31
46.47
42.78
38.69
34.70
31.05
27.77
24.73
21.82
19.12
16.87
15.41
14.94
15.52
16.97
19.07
21.60
24.31
26.88
28.82
29.61
28.88
26.61
23.24
19.48
16.06
13.42
11.61
10.44
9.56
8.74
7.86
6.91
5.92
5.01
4.37
4.18
4.49
5.12
5.72
5.82
5.08
3.48
1.34
-0.81
-2.52
-3.53
-3.86
-3.77
-3.52
-3.28
-2.97
-2.37
-1.22
0.66
3.31
6.55
10.00
13.22
15.77
17.38
17.98
17.82
17.31
16.93
16.95
17.38
18.04
18.68
19.08
19.19
19.06
18.74
18.17
17.21
15.69
13.63
11.15
8.55
6.19
4.28
2.84
1.65
0.37
-1.31
-3.52
-6.09
-8.61
-10.61
-11.78
-12.21
-12.27
-12.33
-12.57
-12.74
-12.22
-10.44
-7.19
-2.86
1.66
5.49
8.02
9.22
9.62
9.84
10.34
11.18
12.03
12.47
12.08
10.60
7.94
4.15
-0.58
-5.80
-10.85
-14.94
-17.45
-18.18
-17.40
-15.87
-14.43
-13.79
-14.20
-15.45
-17.02
-18.34
-19.07
-19.27
-19.31
-19.68
-20.73
-22.42
-24.33
-25.81
-26.20
-25.22
-23.05
-20.25
-17.47
-15.18
-13.46
-11.99
-10.21
-7.74
-4.64
-1.58
0.40
0.29
-2.28
-6.72
-11.51
-14.82
-15.28
-12.61
-7.70
-2.22
2.30
5.08
6.35
6.99
7.82
9.04
10.12
10.20
8.68
5.66
2.00
-1.23
-3.28
-4.17
-4.66
-5.79
-8.37
-12.43
-17.15
-21.17
-23.17
-22.37
-18.90
-13.59
-7.68
-2.21
2.25
5.75
8.71
11.54
14.33
16.79
18.39
18.82
18.19
17.12
16.42
16.62
17.66
18.90
19.47
18.86
17.27
15.54
14.66
15.16
16.70
18.27
18.66
17.18
13.85
9.45
4.98
1.20
-1.55
-3.30
-4.36
-5.20
-6.49
-8.86
-12.61
-17.32
-21.78
-24.33
-23.56
-18.97
-11.36
-2.45
5.85
12.17
16.08
18.00
18.75
19.13
19.52
19.98
20.37
20.48
20.20
19.66
19.09
18.81
18.58
17.97
16.38
13.50
9.78
6.29
4.26
4.32
5.83
7.25
6.92
4.04
-0.77
-5.82
-9.37
-10.62
-10.35
-10.29
-12.01
-15.95
-21.08
-25.48
-27.49
-26.52
-23.52
-20.07
-17.44
-15.77
-14.05
-10.88
-5.56
1.48
8.49
13.53
15.55
14.86
12.96
11.67
12.04
14.04
16.58
18.34
18.55
17.28
15.25
13.31
11.93
11.20
10.77
10.25
9.41
8.24
6.90
5.54
4.24
3.02
1.73
0.23
-1.56
-3.65
-5.88
-8.04
-9.97
-11.63
-13.17
-14.84
-16.75
-18.72
-20.30
-20.80
-19.66
-16.68
-12.13
-6.71
-1.33
3.23
6.50
8.42
9.34
9.78
10.23
10.91
11.79
12.56
12.86
12.44
11.37
10.06
9.04
8.75
9.29
10.33
11.32
11.69
11.17
9.86
8.13
6.40
4.85
3.40
1.79
-0.24
-2.71
-5.39
-7.93
-10.03
-11.60
-12.84
-14.06
-15.60
-17.62
-19.97
-22.27
-24.01
-24.67
-23.93
-21.73
-18.29
-14.08
-9.56
-5.14
-1.01
2.70
5.92
8.52
10.37
11.37
11.62
11.39
11.02
10.80
10.85
11.09
11.38
11.60
11.72
11.73
11.55
10.99
9.91
8.33
6.50
4.86
3.79
3.45
3.56
3.59
2.92
1.17
-1.62
-5.06
-8.54
-11.58
-13.94
-15.76
-17.29
-18.74
-20.09
-21.03
-21.08
-19.83
-17.15
-13.33
-8.96
-4.71
-1.11
1.63
3.68
5.27
6.64
7.72
8.26
7.96
6.73
4.88
3.01
1.76
1.49
2.12
3.15
4.03
4.52
4.86
5.69
7.69
11.16
15.79
20.76
25.15
28.37
30.40
31.65
32.55
33.19
33.17
31.84
28.75
24.02
18.37
12.86
8.33
5.13
3.08
1.75
0.77
0.11
-0.00
0.89
3.14
6.97
12.43
19.33
27.27
35.57
43.33
49.64
53.71
55.11
53.90
50.59
46.01
41.11
36.77
33.53
31.32
29.41
26.70
22.19
15.55
7.37
-1.05
-8.22
-13.24
-16.17
-17.86
-19.42
-21.60
-24.43
-27.34
-29.59
-30.80
-31.16
-31.23
-31.65
-32.77
-34.59
-36.86
-39.16
-41.19
-42.78
-43.87
-44.40
-44.30
-43.43
-41.64
-38.77
-34.77
-29.77
-24.14
-18.41
-13.19
-8.89
-5.63
-3.16
-1.01
1.20
3.58
5.87
7.61
8.35
8.02
6.94
5.74
5.01
4.99
5.46
5.82
5.47
4.17
2.18
0.12
-1.41
-2.16
-2.33
-2.41
-2.95
-4.08
-5.58
-6.94
-7.75
-7.87
-7.52
-7.14
-7.19
-7.95
-9.35
-11.11
-12.82
-14.10
-14.64
-14.30
-13.13
-11.20
-8.64
-5.57
-2.20
1.17
4.17
6.38
7.53
7.58
6.90
5.99
5.36
5.26
5.56
5.98
6.15
5.93
5.49
5.10
5.00
5.13
5.18
4.82
3.85
2.40
0.90
-0.19
-0.63
-0.58
-0.52
-0.95
-2.23
-4.24
-6.54
-8.57
-9.95
-10.74
-11.38
-12.45
-14.33
-16.99
-19.93
-22.44
-23.87
-23.93
-22.77
-20.83
-18.61
-16.43
-14.33
-12.16
-9.79
-7.25
-4.83
-2.92
-1.89
-1.85
-2.53
-3.41
-3.95
-3.83
-3.11
-2.15
-1.41
-1.12
-1.23
-1.40
-1.35
-0.98
-0.56
-0.48
-1.04
-2.23
-3.70
-4.94
-5.57
-5.56
-5.19
-4.89
-5.00
-5.58
-6.45
-7.37
-8.27
-9.31
-10.83
-13.06
-15.87
-18.71
-20.66
-20.89
-19.00
-15.24
-10.46
-5.66
-1.65
1.30
3.41
5.20
7.07
9.10
11.05
12.53
13.31
13.47
13.33
13.24
13.42
13.76
13.99
13.74
12.81
11.22
9.22
7.12
5.12
3.23
1.26
-1.00
-3.64
-6.51
-9.29
-11.62
-13.26
-14.21
-14.66
-14.93
-15.33
-16.05
-17.16
-18.62
-20.28
-21.87
-22.99
-23.17
-22.06
-19.46
-15.48
-10.55
-5.27
-0.30
3.81
6.76
8.57
9.58
10.24
10.99
12.01
13.20
14.21
14.72
14.65
14.34
14.25
14.81
16.08
17.61
18.78
19.15
18.69
17.75
16.59
15.23
13.35
10.61
7.12
3.58
0.91
-0.26
-0.28
-0.17
-1.13
-3.69
-7.33
-10.73
-12.61
-12.50
-11.15
-9.87
-9.72
-10.70
-11.73
-11.25
-8.26
-2.83
3.49
8.79
11.66
11.96
10.95
10.40
11.63
14.79
18.52
21.03
21.02
18.50
14.75
11.63
10.41
11.30
13.17
14.44
13.99
11.73
8.58
5.76
4.08
3.59
3.57
3.16
1.82
-0.37
-2.90
-5.22
-7.02
-8.28
-9.33
-10.50
-12.02
-13.94
-16.16
-18.46
-20.52
-21.90
-22.20
-21.12
-18.66
-15.13
-11.14
-7.31
-4.12
-1.68
0.16
1.70
3.08
4.27
5.07
5.31
5.00
4.41
3.94
3.97
4.63
5.73
6.92
7.83
8.21
8.05
7.57
7.02
6.61
6.35
6.08
5.58
4.68
3.44
2.10
0.94
0.15
-0.37
-0.92
-1.87
-3.48
-5.71
-8.20
-10.42
-11.85
-12.20
-11.41
-9.69
-7.30
-4.46
-1.26
2.20
5.81
9.24
12.09
14.00
14.84
14.87
14.60
14.59
15.13
16.17
17.30
18.10
18.27
17.86
17.09
16.21
15.35
14.41
13.25
11.74
9.89
7.85
5.79
3.79
1.77
-0.49
-3.18
-6.38
-10.00
-13.69
-17.11
-20.03
-22.48
-24.70
-27.03
-29.57
-32.05
-33.88
-34.32
-32.86
-29.44
-24.57
-19.06
-13.81
-9.43
-6.05
-3.41
-1.12
1.01
2.86
4.07
4.29
3.57
2.40
1.54
1.59
2.74
4.56
6.38
7.59
7.96
7.72
7.19
6.56
5.71
4.40
2.44
-0.01
-2.56
-4.75
-6.47
-7.98
-9.79
-12.37
-15.73
-19.46
-22.81
-25.12
-26.17
-26.12
-25.38
-24.23
-22.61
-20.19
-16.65
-11.97
-6.72
-1.74
2.11
4.42
5.35
5.51
5.56
5.95
6.62
7.21
7.34
6.87
6.06
5.36
5.18
5.68
6.54
7.23
7.23
6.30
4.67
2.84
1.32
0.36
-0.22
-0.88
-2.06
-4.00
-6.56
-9.43
-12.33
-15.17
-18.16
-21.53
-25.32
-29.21
-32.53
-34.51
-34.60
-32.60
-28.80
-23.76
-18.16
-12.55
-7.30
-2.56
1.60
5.18
8.16
10.47
12.09
13.00
13.35
13.34
13.28
13.47
14.02
14.88
15.81
16.53
16.88
16.84
16.54
16.11
15.58
14.85
13.78
12.34
10.66
9.00
7.61
6.61
5.89
5.11
3.86
1.82
-1.07
-4.55
-7.97
-10.57
-11.68
-10.96
-8.53
-4.83
-0.49
3.94
8.18
12.23
16.20
20.13
23.83
26.91
28.88
29.24
27.77
24.70
20.66
16.59
13.39
11.42
10.17
8.15
3.18
-6.91
-23.46
-46.36
-73.72
-102.11
-127.33
-145.49
-153.88
-151.64
-139.85
-121.18
-99.22
-77.57
-59.09
-45.59
-37.56
-34.24
-33.96
-34.43
-33.36
-29.04
-20.82
-9.45
3.36
15.57
25.60
32.85
37.64
40.82
43.25
45.28
46.81
47.55
47.27
45.88
43.37
39.67
34.82
29.05
23.00
17.53
13.41
10.83
9.25
7.63
4.97
0.82
-4.53
-10.11
-14.69
-17.02
-16.17
-11.62
-3.43
7.64
20.18
32.52
43.31
52.04
59.20
65.82
72.77
80.10
86.89
91.80
93.70
92.26
88.07
82.32
76.26
70.86
66.63
63.67
61.63
59.87
57.55
53.82
48.17
40.64
31.92
23.12
15.34
9.33
5.28
2.93
1.74
1.18
0.71
-0.06
-1.53
-3.94
-7.33
-11.44
-15.84
-20.05
-23.79
-26.98
-29.67
-31.96
-33.77
-35.01
-35.57
-35.56
-35.09
-34.31
-33.22
-31.73
-29.79
-27.41
-24.65
-21.41
-17.37
-12.05
-5.22
2.86
11.34
18.98
24.71
28.06
29.30
29.32
29.09
29.30
30.13
31.40
32.74
33.96
35.03
36.13
37.53
39.43
41.97
45.33
49.73
55.32
62.02
69.16
75.45
79.16
78.80
73.79
65.03
54.80
46.06
41.39
41.96
47.25
55.33
63.84
70.94
75.88
79.10
81.52
84.22
87.79
92.37
97.71
103.05
107.01
107.55
102.22
89.41
69.44
45.04
20.80
1.25
-11.42
-18.41
-23.88
-32.46
-46.64
-65.19
-83.70
-96.80
-100.74
-94.74
-80.89
-62.29
-41.41
-19.26
4.23
29.05
54.30
78.25
98.64
113.88
123.58
128.53
130.25
130.23
129.16
126.73
121.51
111.83
96.52
75.58
50.56
24.13
-0.86
-22.35
-39.91
-54.23
-66.51
-77.46
-86.94
-94.27
-98.98
-101.23
-102.13
-102.91
-104.16
-105.32
-104.68
-100.32
-91.23
-77.99
-62.80
-48.56
-37.58
-30.75
-27.45
-26.31
-26.21
-27.13
-30.39
-37.91
-51.06
-69.67
-91.82
-114.54
-134.98
-151.50
-164.40
-175.26
-185.89
-197.08
-207.83
-215.72
-218.05
-213.11
-201.22
-184.52
-166.00
-148.25
-132.49
-118.46
-105.00
-90.83
-75.46
-59.56
-45.00
-34.16
-28.97
-29.68
-34.16
-38.24
-37.21
-28.02
-10.89
10.62
31.16
46.13
53.80
55.69
55.33
56.10
59.59
65.27
71.48
76.90
81.36
85.89
91.73
99.29
107.82
115.50
120.34
120.95
117.09
109.51
99.48
88.15
76.10
63.57
50.76
38.34
27.48
19.64
15.87
16.32
20.07
25.43
30.53
33.91
34.83
33.39
30.24
26.28
22.36
19.05
16.59
15.09
14.56
15.10
16.91
19.98
23.95
27.97
30.89
31.61
29.53
24.54
16.99
7.43
-3.48
-14.86
-25.46
-33.65
-38.10
-38.12
-34.38
-28.63
-23.07
-19.28
-17.69
-17.64
-18.17
-18.57
-18.64
-18.40
-17.56
-15.41
-11.13
-4.41
4.21
13.50
22.05
28.96
33.93
37.07
38.50
38.10
35.82
31.97
27.25
22.49
18.13
13.75
8.33
0.83
-9.44
-22.35
-37.23
-53.21
-69.52
-85.56
-101.20
-116.69
-132.61
-149.18
-165.61
-179.67
-188.19
-188.45
-179.76
-164.29
-146.43
-130.75
-119.89
-113.26
-107.92
-100.63
-89.95
-76.99
-64.50
-54.80
-48.43
-43.86
-38.67
-30.96
-20.27
-7.35
6.60
20.82
35.19
49.57
63.06
73.57
78.37
75.17
63.29
44.13
20.82
-2.78
-23.24
-38.45
-47.99
-52.81
-54.66
-55.23
-55.73
-56.54
-57.41
-57.83
-57.36
-55.88
-53.49
-50.33
-46.43
-41.66
-35.92
-29.23
-21.88
-14.21
-6.51
1.10
8.43
15.16
20.75
24.64
26.50
26.51
25.37
24.09
23.60
24.41
26.54
29.69
33.46
37.60
41.97
46.51
51.12
55.75
60.50
65.69
71.74
78.85
86.78
94.71
101.41
105.71
106.87
104.85
100.13
93.41
85.38
76.63
67.74
59.39
52.26
46.93
43.58
41.95
41.58
42.12
43.50
45.94
49.62
54.27
59.02
62.61
63.78
61.82
56.83
49.65
41.59
33.91
27.48
22.72
19.56
17.73
16.84
16.49
16.29
15.92
15.13
13.85
12.23
10.59
9.29
8.56
8.38
8.49
8.58
8.41
7.90
7.19
6.41
5.62
4.76
3.67
2.22
0.41
-1.58
-3.36
-4.46
-4.44
-3.06
-0.43
3.08
6.90
10.49
13.48
15.67
16.97
17.21
16.11
13.38
8.81
2.45
-5.24
-13.51
-21.41
-28.09
-33.10
-36.58
-39.32
-42.46
-46.94
-53.02
-59.97
-66.41
-70.88
-72.49
-71.37
-68.53
-65.26
-62.61
-60.93
-59.87
-58.65
-56.39
-52.48
-46.71
-39.31
-30.88
-22.28
-14.37
-7.86
-3.08
-0.02
1.60
2.16
2.11
1.83
1.68
2.06
3.33
5.81
9.76
15.40
22.83
31.97
42.37
53.09
62.86
70.36
74.67
75.62
73.71
69.75
64.39
57.85
50.05
41.05
31.46
22.59
16.08
13.28
14.67
19.68
26.83
34.32
40.68
45.15
47.88
49.70
51.66
54.59
58.80
64.09
70.07
76.40
83.07
90.24
97.99
105.94
113.25
118.77
121.40
120.44
115.71
107.58
96.82
84.65
72.68
62.87
57.24
57.15
62.65
72.05
82.19
89.32
90.39
84.12
71.17
53.63
33.78
13.06
-8.41
-31.26
-56.03
-82.28
-108.40
-132.25
-152.10
-167.35
-178.42
-185.87
-189.40
-187.66
-179.00
-163.03
-141.51
-118.23
-97.37
-81.51
-70.49
-61.89
-52.60
-41.07
-28.28
-17.45
-12.63
-16.78
-30.41
-51.46
-76.12
-100.18
-120.18
-134.02
-141.01
-141.34
-135.58
-124.55
-109.19
-91.10
-72.03
-53.43
-35.71
-17.94
1.69
24.55
50.51
77.37
101.73
120.27
130.93
133.41
128.77
118.50
103.95
85.66
64.10
40.14
15.53
-7.21
-25.47
-37.60
-43.51
-44.83
-43.93
-42.69
-41.53
-39.20
-33.68
-23.56
-9.13
6.95
20.73
28.44
28.14
20.52
8.50
-4.30
-15.14
-23.53
-30.94
-39.69
-51.30
-65.41
-79.70
-90.83
-95.53
-92.06
-80.41
-62.36
-40.83
-19.14
-0.29
13.80
22.66
27.02
28.32
27.91
26.63
24.75
22.57
20.73
20.38
22.65
28.08
36.21
45.80
55.31
63.56
69.98
74.44
76.97
77.43
75.47
70.68
62.83
52.08
38.89
24.12
8.74
-6.40
-20.70
-33.81
-45.41
-54.96
-61.74
-65.17
-65.35
-63.31
-60.88
-59.98
-61.92
-67.00
-74.72
-84.39
-95.70
-108.81
-123.83
-140.11
-155.96
-168.94
-176.79
-178.43
-174.34
-166.26
-156.29
-145.95
-135.74
-125.12
-113.03
-98.35
-80.22
-58.28
-32.84
-5.09
23.07
49.43
72.25
90.66
104.70
114.64
120.36
121.04
115.68
103.99
87.14
67.65
48.32
31.09
16.27
2.92
-10.09
-23.11
-35.25
-44.95
-50.94
-53.01
-52.15
-50.05
-48.39
-48.12
-49.21
-50.88
-51.98
-51.38
-48.27
-42.27
-33.44
-22.30
-9.69
3.37
15.85
26.95
36.13
43.14
47.91
50.54
51.32
50.80
49.69
48.64
48.08
48.00
48.02
47.66
46.63
44.98
43.02
41.09
39.23
37.17
34.43
30.66
25.82
20.37
14.83
9.64
4.84
0.11
-4.95
-10.55
-16.54
-22.53
-28.19
-33.33
-37.84
-41.38
-43.12
-41.72
-35.72
-24.04
-6.59
15.73
41.18
67.54
92.46
113.73
129.66
139.38
143.13
142.21
138.57
133.98
129.33
124.37
117.87
108.45
95.07
77.54
56.51
33.26
9.51
-12.79
-31.74
-45.85
-54.48
-58.09
-58.03
-56.07
-53.75
-51.94
-50.73
-49.67
-48.17
-45.57
-41.21
-34.38
-24.58
-11.88
2.79
17.75
31.02
41.13
47.60
51.06
52.75
54.02
55.81
58.63
62.55
67.39
72.72
77.74
81.42
82.87
81.86
79.09
75.91
73.66
73.03
73.70
74.66
74.89
74.01
72.46
71.08
70.47
70.54
70.44
69.05
65.47
59.45
51.34
41.65
30.67
18.35
4.48
-10.85
-26.95
-42.56
-56.13
-66.49
-73.40
-77.66
-80.86
-84.67
-90.20
-97.45
-105.31
-112.09
-116.26
-117.09
-114.90
-110.78
-106.06
-101.57
-97.39
-92.96
-87.51
-80.56
-72.14
-62.67
-52.81
-43.06
-33.76
-25.21
-17.87
-12.37
-9.42
-9.45
-12.41
-17.63
-24.03
-30.44
-35.94
-40.08
-42.76
-43.99
-43.66
-41.51
-37.28
-31.02
-23.42
-15.75
-9.55
-6.24
-6.69
-11.07
-18.85
-28.97
-40.13
-50.89
-59.95
-66.34
-69.69
-70.11
-68.01
-63.69
-56.88
-46.78
-32.31
-12.72
11.89
40.36
70.64
100.10
126.03
145.97
158.11
161.58
156.57
144.40
127.25
107.73
88.29
70.83
56.40
45.32
37.25
31.49
27.17
23.44
19.58
15.15
10.07
4.56
-0.97
-6.07
-10.44
-14.00
-16.96
-19.75
-22.86
-26.63
-31.08
-35.79
-39.88
-42.34
-42.31
-39.47
-34.16
-27.34
-20.09
-13.33
-7.29
-1.71
3.99
10.22
16.86
23.26
28.50
31.82
32.91
32.02
29.71
26.58
23.03
19.17
14.94
10.32
5.41
0.40
-4.58
-9.54
-14.61
-19.87
-25.17
-30.02
-33.67
-35.42
-34.97
-32.67
-29.42
-26.42
-24.69
-24.60
-25.75
-27.11
-27.44
-25.73
-21.59
-15.28
-7.50
0.97
9.49
17.67
25.20
31.80
37.08
40.67
42.38
42.37
41.09
39.11
36.89
34.64
32.30
29.74
26.91
23.88
20.79
17.69
14.45
10.73
6.21
0.71
-5.60
-12.30
-18.85
-24.81
-30.05
-34.76
-39.20
-43.59
-47.77
-51.25
-53.30
-53.27
-50.78
-45.84
-38.82
-30.25
-20.69
-10.72
-0.96
7.91
15.15
20.16
22.63
22.75
21.17
18.87
16.81
15.79
16.24
18.38
22.34
28.29
36.29
46.15
56.96
67.29
75.46
80.08
80.63
77.52
71.78
64.41
55.76
45.64
33.62
19.77
5.03
-8.87
-20.04
-27.07
-29.68
-28.57
-24.93
-19.94
-14.18
-7.70
-0.30
8.04
16.64
24.38
30.01
32.73
32.61
30.55
27.85
25.65
24.17
22.95
21.27
18.74
15.71
13.13
11.88
12.25
13.53
14.47
13.96
11.61
7.93
3.91
0.35
-2.48
-5.07
-8.11
-12.04
-16.76
-21.53
-25.30
-27.09
-26.22
-22.57
-16.55
-8.92
-0.58
7.62
15.10
21.53
26.88
31.07
33.96
35.29
34.86
32.75
29.44
25.72
22.47
20.27
19.20
18.84
18.50
17.63
16.02
13.79
11.35
9.09
7.16
5.52
3.91
2.11
-0.07
-2.69
-5.75
-9.23
-13.06
-17.07
-20.94
-24.19
-26.24
-26.61
-24.95
-21.22
-15.70
-8.97
-1.78
5.05
10.85
15.24
18.24
20.16
21.43
22.35
23.03
23.36
23.23
22.67
21.94
21.41
21.28
21.50
21.67
21.27
19.91
17.59
14.65
11.56
8.67
5.98
3.22
0.02
-3.78
-8.07
-12.47
-16.56
-20.07
-22.91
-25.04
-26.30
-26.32
-24.67
-21.06
-15.61
-8.86
-1.68
5.09
10.86
15.39
18.78
21.29
23.17
24.52
25.33
25.51
25.07
24.13
22.94
21.77
20.84
20.21
19.75
19.21
18.36
17.06
15.36
13.43
11.49
9.68
7.91
5.99
3.63
0.65
-2.97
-6.96
-11.00
-14.74
-17.97
-20.60
-22.59
-23.77
-23.84
-22.40
-19.23
-14.41
-8.44
-2.11
3.74
8.50
11.97
14.26
15.66
16.42
16.65
16.32
15.46
14.23
12.94
11.96
11.46
11.36
11.35
11.08
10.38
9.34
8.23
7.35
6.75
6.23
5.36
3.73
1.16
-2.20
-5.95
-9.60
-12.88
-15.71
-18.12
-20.06
-21.21
-21.04
-19.03
-14.98
-9.30
-2.90
3.09
7.76
10.71
12.08
12.30
11.92
11.20
10.20
8.91
7.36
5.73
4.31
3.29
2.74
2.46
2.22
1.77
1.04
0.11
-0.86
-1.71
-2.32
-2.73
-3.02
-3.30
-3.69
-4.29
-5.29
-6.90
-9.31
-12.61
-16.71
-21.28
-25.79
-29.60
-32.06
-32.65
-31.10
-27.46
-22.18
-15.93
-9.50
-3.54
1.54
5.63
8.87
11.38
13.29
14.57
15.22
15.33
15.20
15.25
15.87
17.22
19.18
21.32
23.12
24.15
24.22
23.45
22.19
20.90
19.92
19.44
19.42
19.65
19.86
19.89
19.69
19.36
19.05
18.91
19.09
19.74
21.09
23.52
27.53
33.48
41.45
51.13
61.90
72.98
83.54
92.93
100.63
106.20
109.27
109.66
107.60
103.78
99.30
95.36
92.86
92.03
92.38
92.94
92.82
91.61
89.42
86.83
84.41
82.27
79.98
76.74
71.80
64.83
55.92
45.48
33.94
21.38
7.46
-8.41
-26.70
-47.36
-69.75
-92.56
-114.02
-132.12
-145.02
-151.43
-151.09
-144.76
-134.21
-121.48
-108.10
-94.90
-81.97
-69.44
-58.00
-48.69
-41.77
-35.61
-26.52
-10.08
16.70
53.90
98.76
147.33
196.18
243.12
286.43
323.42
349.93
361.40
355.38
333.70
302.68
271.05
246.48
232.62
228.17
228.26
226.96
219.71
204.48
181.60
153.12
121.41
88.61
56.48
26.75
1.11
-18.91
-32.66
-41.05
-46.65
-53.17
-64.18
-81.55
-104.41
-129.40
-151.91
-168.29
-177.72
-182.85
-188.80
-201.15
-223.79
-257.47
-299.53
-344.57
-385.80
-416.68
-432.66
-432.40
-418.21
-395.48
-370.93
-350.53
-337.85
-333.65
-336.68
-345.00
-356.82
-370.54
-384.10
-394.41
-397.59
-390.03
-369.93
-338.17
-298.26
-255.29
-214.20
-178.31
-148.64
-124.26
-103.34
-84.31
-66.66
-51.01
-38.67
-30.87
-28.20
-30.22
-35.29
-40.64
-42.77
-38.38
-25.52
-4.74
20.72
45.83
65.51
76.52
78.38
73.14
63.97
53.59
43.41
33.60
23.96
14.80
7.29
2.96
2.92
6.98
13.57
20.24
24.67
25.47
22.82
18.23
13.94
11.85
13.04
17.50
24.56
33.51
43.97
55.89
69.15
83.09
96.36
107.25
114.32
117.08
116.14
112.93
109.01
105.31
101.86
97.98
92.79
85.81
77.30
68.13
59.52
52.20
46.36
41.47
36.66
31.21
24.87
17.90
10.81
3.78
-3.34
-10.97
-19.31
-27.90
-35.53
-40.66
-42.07
-39.59
-34.06
-26.86
-19.25
-11.81
-4.42
3.28
11.37
19.26
25.96
30.61
33.00
33.70
33.68
33.76
34.24
34.58
33.95
31.71
27.91
23.41
19.55
17.54
17.95
20.28
23.29
25.45
25.54
23.15
18.59
12.72
6.45
0.38
-5.31
-10.62
-15.42
-19.31
-21.59
-21.58
-18.94
-13.88
-7.12
0.32
7.52
13.96
19.54
24.47
28.98
33.09
36.54
38.94
39.94
39.50
37.92
35.76
33.58
31.82
30.61
29.82
29.17
28.37
27.25
25.80
24.14
22.41
20.73
19.10
17.41
15.49
13.22
10.56
7.61
4.47
1.21
-2.26
-6.11
-10.46
-15.15
-19.69
-23.23
-24.85
-23.92
-20.29
-14.39
-7.07
0.73
8.23
15.03
20.94
25.92
29.92
32.82
34.55
35.14
34.77
33.78
32.56
31.38
30.43
29.72
29.16
28.57
27.80
26.73
25.30
23.52
21.41
19.07
16.57
14.02
11.48
9.02
6.62
4.17
1.47
-1.69
-5.47
-9.79
-14.31
-18.34
-21.08
-21.77
-20.01
-15.90
-10.00
-3.12
3.94
10.63
16.68
22.05
26.67
30.36
32.93
34.27
34.53
34.19
33.81
33.82
34.29
34.92
35.23
34.84
33.72
32.16
30.59
29.28
28.19
26.95
25.11
22.37
18.83
14.91
11.14
7.95
5.41
3.30
1.26
-1.02
-3.67
-6.65
-9.92
-13.46
-17.26
-21.15
-24.68
-27.10
-27.56
-25.38
-20.50
-13.45
-5.21
3.14
10.75
17.12
22.08
25.59
27.68
28.39
27.91
26.64
25.10
23.82
23.12
23.06
23.46
24.05
24.55
24.82
24.78
24.45
23.82
22.95
21.83
20.47
18.84
16.90
14.66
12.20
9.64
7.18
4.98
3.07
1.37
-0.36
-2.33
-4.72
-7.54
-10.75
-14.26
-17.99
-21.92
-25.92
-29.70
-32.74
-34.37
-33.95
-31.20
-26.25
-19.73
-12.52
-5.50
0.75
5.97
10.28
13.91
17.03
19.66
21.66
22.85
23.21
22.89
22.28
21.76
21.57
21.73
22.04
22.20
22.01
21.43
20.59
19.71
18.90
18.16
17.33
16.21
14.63
12.58
10.18
7.59
4.98
2.40
-0.14
-2.68
-5.26
-7.85
-10.37
-12.83
-15.33
-18.03
-21.10
-24.48
-27.91
-30.85
-32.64
-32.70
-30.75
-26.88
-21.52
-15.32
-8.94
-2.91
2.45
6.99
10.65
13.43
15.34
16.41
16.69
16.40
15.83
15.27
14.93
14.86
14.96
15.06
14.98
14.67
14.22
13.76
13.34
12.88
12.22
11.27
10.00
8.57
7.25
6.23
5.48
4.79
3.83
2.39
0.42
-1.89
-4.24
-6.34
-8.13
-9.75
-11.49
-13.67
-16.51
-20.00
-23.80
-27.38
-30.11
-31.49
-31.26
-29.40
-26.15
-21.83
-16.76
-11.24
-5.60
-0.24
4.44
8.12
10.71
12.34
13.38
14.24
15.19
16.26
17.27
17.99
18.27
18.15
17.85
17.61
17.53
17.50
17.22
16.36
14.76
12.52
10.01
7.68
5.81
4.40
3.18
1.76
-0.14
-2.51
-5.06
-7.37
-9.18
-10.51
-11.64
-13.01
-14.94
-17.47
-20.36
-23.20
-25.62
-27.34
-28.21
-28.06
-26.69
-23.93
-19.72
-14.29
-8.19
-2.15
3.11
7.17
9.96
11.72
12.85
13.69
14.40
14.99
15.39
15.51
15.43
15.32
15.36
15.67
16.17
16.62
16.74
16.34
15.39
14.05
12.55
11.03
9.52
7.86
5.87
3.45
0.67
-2.24
-4.97
-7.24
-8.94
-10.17
-11.24
-12.47
-14.14
-16.24
-18.59
-20.90
-22.94
-24.59
-25.83
-26.56
-26.55
-25.40
-22.82
-18.69
-13.32
-7.36
-1.54
3.57
7.67
10.74
12.75
13.62
13.31
11.90
9.86
7.91
6.78
6.79
7.65
8.63
8.97
8.36
7.08
5.82
5.25
5.58
6.52
7.44
7.73
7.06
5.42
3.07
0.41
-2.07
-4.06
-5.32
-5.88
-5.99
-6.06
-6.45
-7.42
-9.01
-11.37
-14.59
-18.64
-23.18
-27.41
-30.13
-30.31
-27.49
-22.34
-16.19
-10.57
-6.38
-3.58
-1.36
1.13
4.22
7.29
9.30
9.45
7.82
5.45
3.85
4.11
6.32
9.33
11.52
11.62
9.45
6.04
2.98
1.53
1.96
3.36
4.31
3.71
1.36
-2.00
-5.17
-7.27
-8.04
-8.09
-8.31
-9.42
-11.67
-14.83
-18.38
-21.81
-24.70
-26.82
-28.00
-28.13
-27.06
-24.71
-21.09
-16.36
-10.79
-4.83
1.00
6.14
10.14
12.74
13.96
14.05
13.49
12.75
12.21
12.03
12.14
12.35
12.43
12.23
11.77
11.17
10.55
9.99
9.46
8.79
7.77
6.30
4.36
2.13
-0.13
-2.20
-4.00
-5.59
-7.19
-9.01
-11.18
-13.67
-16.35
-19.03
-21.56
-23.79
-25.50
-26.33
-25.83
-23.65
-19.70
-14.33
-8.25
-2.26
2.97
7.10
10.12
12.22
13.58
14.32
14.51
14.25
13.74
13.28
13.13
13.47
14.27
15.36
16.40
17.04
17.00
16.11
14.42
12.14
9.53
6.79
3.99
1.05
-2.12
-5.54
-9.08
-12.51
-15.56
-18.11
-20.19
-22.00
-23.78
-25.70
-27.74
-29.63
-30.94
-31.19
-30.02
-27.31
-23.26
-18.24
-12.78
-7.31
-2.18
2.36
6.10
8.86
10.52
11.09
10.80
10.00
9.06
8.21
7.50
6.86
6.21
5.63
5.36
5.68
6.77
8.56
10.72
12.82
14.47
15.47
15.83
15.67
15.07
14.00
12.37
10.09
7.20
3.89
0.43
-3.04
-6.52
-10.10
-13.81
-17.44
-20.49
-22.35
-22.52
-20.87
-17.66
-13.44
-8.80
-4.19
0.16
4.10
7.49
10.11
11.75
12.32
11.99
11.15
10.27
9.73
9.65
9.87
10.10
10.08
9.69
9.02
8.22
7.44
6.68
5.79
4.55
2.77
0.46
-2.20
-4.86
-7.23
-9.11
-10.56
-11.86
-13.35
-15.29
-17.67
-20.26
-22.59
-24.14
-24.49
-23.40
-20.91
-17.22
-12.71
-7.78
-2.84
1.79
5.81
9.01
11.20
12.32
12.40
11.64
10.37
9.03
7.96
7.36
7.21
7.34
7.50
7.53
7.40
7.13
6.75
6.18
5.30
3.98
2.20
0.11
-2.09
-4.19
-6.09
-7.78
-9.36
-10.98
-12.79
-14.85
-17.16
-19.48
-21.37
-22.29
-21.78
-19.63
-16.00
-11.40
-6.47
-1.79
2.26
5.46
7.79
9.23
9.79
9.55
8.67
7.42
6.11
5.04
4.31
3.96
3.83
3.76
3.57
3.17
2.57
1.82
0.98
0.03
-1.06
-2.43
-4.12
-6.08
-8.17
-10.21
-12.12
-13.99
-15.98
-18.21
-20.60
-22.78
-24.18
-24.28
-22.82
-19.87
-15.78
-11.06
-6.14
-1.35
3.10
7.04
10.29
12.67
14.07
14.56
14.37
13.82
13.18
12.59
12.06
11.48
10.78
9.96
9.07
8.18
7.29
6.30
5.09
3.58
1.81
-0.09
-1.95
-3.61
-5.09
-6.46
-7.92
-9.69
-11.88
-14.55
-17.52
-20.46
-22.86
-24.25
-24.22
-22.61
-19.51
-15.26
-10.33
-5.21
-0.27
4.21
8.04
11.09
13.31
14.67
15.26
15.29
15.01
14.64
14.30
13.96
13.51
12.85
11.99
11.08
10.31
9.76
9.34
8.83
7.93
6.50
4.53
2.25
-0.08
-2.22
-4.08
-5.73
-7.31
-8.97
-10.80
-12.85
-15.06
-17.27
-19.18
-20.44
-20.66
-19.59
-17.18
-13.60
-9.21
-4.49
0.14
4.32
7.80
10.48
12.34
13.47
14.05
14.29
14.34
14.33
14.27
14.13
13.88
13.52
13.09
12.64
12.19
11.68
11.02
10.11
8.95
7.57
6.05
4.47
2.92
1.46
0.18
-0.81
-1.41
-1.65
-1.70
-1.93
-2.73
-4.43
-7.06
-10.36
-13.79
-16.68
-18.41
-18.58
-17.05
-13.99
-9.75
-4.82
0.32
5.17
9.30
12.39
14.21
14.76
14.24
13.05
11.69
10.65
10.22
10.45
11.15
11.95
12.44
12.38
11.78
10.82
9.81
8.94
8.20
7.44
6.50
5.31
3.98
2.67
1.48
0.33
-0.91
-2.37
-3.97
-5.55
-6.95
-8.22
-9.64
-11.51
-13.95
-16.69
-19.05
-20.27
-19.81
-17.60
-14.02
-9.73
-5.33
-1.20
2.54
5.90
8.83
11.13
12.54
12.92
12.43
11.48
10.60
10.22
10.43
10.99
11.49
11.57
11.11
10.29
9.50
9.04
9.06
9.36
9.56
9.27
8.28
6.65
4.66
2.67
0.98
-0.33
-1.35
-2.30
-3.37
-4.70
-6.36
-8.38
-10.69
-13.15
-15.49
-17.36
-18.35
-18.11
-16.48
-13.52
-9.53
-4.98
-0.45
3.55
6.64
8.68
9.71
9.96
9.72
9.24
8.67
8.12
7.65
7.33
7.24
7.41
7.80
8.31
8.74
8.95
8.83
8.37
7.65
6.79
5.88
4.98
4.03
2.95
1.68
0.22
-1.39
-3.06
-4.74
-6.38
-8.01
-9.65
-11.37
-13.15
-14.95
-16.55
-17.64
-17.82
-16.73
-14.23
-10.49
-5.94
-1.22
3.10
6.62
9.21
10.88
11.73
11.84
11.31
10.26
8.97
7.77
7.00
6.87
7.31
8.05
8.72
8.97
8.69
7.93
6.89
5.70
4.43
3.06
1.57
0.01
-1.52
-2.86
-3.94
-4.81
-5.57
-6.41
-7.44
-8.72
-10.21
-11.85
-13.50
-14.95
-16.02
-16.43
-16.02
-14.71
-12.50
-9.54
-6.01
-2.22
1.55
4.94
7.65
9.43
10.22
10.13
9.46
8.62
7.92
7.58
7.56
7.72
7.88
7.91
7.81
7.62
7.40
7.11
6.65
5.93
4.93
3.69
2.29
0.83
-0.70
-2.27
-3.85
-5.38
-6.75
-7.95
-9.12
-10.48
-12.26
-14.52
-17.02
-19.25
-20.61
-20.58
-18.94
-15.84
-11.73
-7.19
-2.77
1.16
4.36
6.77
8.34
9.07
9.05
8.41
7.45
6.52
5.96
5.97
6.44
7.09
7.56
7.59
7.17
6.47
5.74
5.13
4.60
3.94
2.96
1.61
0.05
-1.43
-2.60
-3.38
-3.96
-4.66
-5.79
-7.49
-9.73
-12.24
-14.69
-16.70
-17.92
-18.06
-16.97
-14.66
-11.39
-7.55
-3.59
0.10
3.25
5.68
7.29
8.05
8.03
7.39
6.49
5.70
5.30
5.37
5.77
6.17
6.33
6.12
5.61
4.97
4.32
3.70
3.04
2.23
1.17
-0.12
-1.55
-3.00
-4.33
-5.48
-6.48
-7.43
-8.50
-9.87
-11.65
-13.79
-16.03
-17.96
-19.16
-19.25
-18.09
-15.75
-12.50
-8.66
-4.60
-0.68
2.76
5.39
7.01
7.59
7.31
6.59
5.84
5.39
5.34
5.60
5.96
6.21
6.25
6.10
5.87
5.61
5.30
4.88
4.24
3.36
2.29
1.14
0.03
-1.01
-2.06
-3.23
-4.65
-6.39
-8.41
-10.60
-12.82
-14.92
-16.76
-18.13
-18.78
-18.46
-16.98
-14.33
-10.72
-6.56
-2.39
1.34
4.30
6.38
7.67
8.33
8.55
8.40
7.90
7.06
6.05
5.08
4.42
4.24
4.49
4.92
5.16
4.88
3.95
2.46
0.70
-0.95
-2.16
-2.78
-2.80
-2.44
-2.04
-2.01
-2.66
-4.12
-6.30
-8.94
-11.75
-14.41
-16.64
-18.14
-18.61
-17.77
-15.53
-12.06
-7.81
-3.37
0.72
4.14
6.83
8.92
10.60
11.96
12.98
13.56
13.66
13.30
12.64
11.90
11.26
10.80
10.46
10.03
9.30
8.17
6.71
5.13
3.73
2.65
1.88
1.22
0.41
-0.69
-2.08
-3.65
-5.27
-6.93
-8.75
-10.82
-13.06
-15.15
-16.55
-16.77
-15.54
-13.01
-9.63
-6.00
-2.63
0.16
2.30
3.90
5.04
5.82
6.30
6.58
6.76
6.99
7.39
8.05
9.01
10.21
11.55
12.83
13.79
14.14
13.66
12.26
10.00
7.10
3.86
0.60
-2.41
-4.98
-7.03
-8.59
-9.81
-10.87
-11.93
-13.11
-14.38
-15.55
-16.31
-16.28
-15.16
-12.84
-9.48
-5.48
-1.35
2.46
5.67
8.25
10.21
11.59
12.36
12.46
11.98
11.08
10.12
9.39
9.08
9.17
9.45
9.64
9.53
9.04
8.20
7.11
5.80
4.29
2.55
0.64
-1.31
-3.09
-4.51
-5.54
-6.31
-7.12
-8.26
-9.91
-12.01
-14.27
-16.32
-17.76
-18.33
-17.85
-16.28
-13.67
-10.13
-5.92
-1.41
2.87
6.45
8.95
10.28
10.64
10.47
10.22
10.18
10.39
10.64
10.74
10.60
10.33
10.18
10.37
10.89
11.45
11.67
11.18
9.85
7.86
5.54
3.24
1.15
-0.76
-2.66
-4.69
-6.87
-9.04
-10.93
-12.34
-13.29
-14.02
-14.83
-15.91
-17.10
-17.96
-17.91
-16.54
-13.76
-9.93
-5.60
-1.31
2.61
6.11
9.21
11.91
14.08
15.54
16.18
16.10
15.55
14.89
14.42
14.30
14.51
14.91
15.31
15.52
15.44
15.02
14.30
13.39
12.40
11.47
10.70
10.11
9.68
9.32
8.95
8.46
7.82
7.00
6.02
4.82
3.29
1.31
-1.28
-4.47
-8.16
-12.07
-15.83
-19.01
-21.21
-22.14
-21.61
-19.61
-16.31
-12.05
-7.31
-2.66
1.44
4.58
6.58
7.50
7.54
7.07
6.38
5.72
5.22
4.96
4.97
5.28
5.87
6.65
7.44
8.06
8.35
8.29
7.93
7.36
6.59
5.62
4.34
2.70
0.75
-1.37
-3.52
-5.52
-7.29
-8.82
-10.15
-11.38
-12.61
-13.95
-15.48
-17.20
-18.99
-20.60
-21.64
-21.66
-20.38
-17.67
-13.72
-8.92
-3.78
1.25
5.85
9.86
13.21
15.86
17.75
18.84
19.19
18.96
18.45
17.92
17.59
17.48
17.49
17.41
17.10
16.48
15.55
14.39
13.05
11.62
10.18
8.80
7.54
6.41
5.35
4.22
2.87
1.19
-0.84
-3.12
-5.43
-7.58
-9.43
-11.00
-12.47
-14.09
-16.06
-18.43
-21.00
-23.41
-25.24
-26.08
-25.69
-24.01
-21.12
-17.23
-12.65
-7.81
-3.16
0.90
4.19
6.69
8.56
10.04
11.32
12.44
13.33
13.92
14.16
14.08
13.77
13.34
12.91
12.50
12.16
11.87
11.65
11.47
11.29
11.04
10.61
9.90
8.83
7.43
5.79
4.04
2.33
0.72
-0.77
-2.23
-3.77
-5.45
-7.25
-9.06
-10.71
-12.10
-13.19
-14.13
-15.17
-16.54
-18.31
-20.22
-21.74
-22.27
-21.32
-18.79
-14.95
-10.38
-5.67
-1.29
2.58
5.87
8.63
10.84
12.43
13.37
13.69
13.55
13.24
13.02
13.11
13.58
14.34
15.19
15.89
16.22
16.11
15.66
15.11
14.77
14.81
15.25
15.83
16.18
16.01
15.17
13.83
12.27
10.80
9.53
8.35
7.03
5.33
3.16
0.66
-1.96
-4.45
-6.68
-8.63
-10.34
-11.84
-13.12
-14.17
-15.07
-16.02
-17.29
-19.09
-21.41
-23.97
-26.25
-27.69
-27.86
-26.59
-24.05
-20.55
-16.58
-12.58
-8.90
-5.76
-3.22
-1.23
0.36
1.71
2.97
4.20
5.40
6.52
7.51
8.34
8.98
9.43
9.67
9.67
9.42
8.93
8.26
7.48
6.67
5.83
4.93
3.93
2.79
1.52
0.18
-1.18
-2.59
-4.05
-5.60
-7.20
-8.78
-10.24
-11.53
-12.70
-13.86
-15.13
-16.52
-17.86
-18.85
-19.10
-18.26
-16.20
-13.05
-9.19
-5.15
-1.42
1.67
4.06
5.90
7.41
8.71
9.77
10.45
10.65
10.41
9.97
9.65
9.74
10.30
11.19
12.15
12.94
13.42
13.57
13.42
13.01
12.32
11.31
9.99
8.44
6.79
5.20
3.73
2.37
0.97
-0.62
-2.51
-4.65
-6.87
-8.90
-10.54
-11.75
-12.72
-13.77
-15.20
-17.10
-19.29
-21.34
-22.72
-23.01
-22.03
-19.86
-16.74
-13.02
-9.03
-5.04
-1.27
2.09
4.87
6.95
8.24
8.73
8.53
7.88
7.09
6.49
6.26
6.40
6.76
7.10
7.25
7.14
6.81
6.34
5.79
5.16
4.47
3.76
3.11
2.60
2.22
1.84
1.30
0.44
-0.77
-2.22
-3.72
-5.11
-6.28
-7.28
-8.23
-9.33
-10.71
-12.46
-14.47
-16.51
-18.19
-19.09
-18.89
-17.43
-14.80
-11.28
-7.29
-3.28
0.36
3.39
5.70
7.34
8.48
9.30
9.93
10.41
10.69
10.71
10.48
10.11
9.81
9.74
9.98
10.44
10.92
11.21
11.14
10.67
9.86
8.80
7.60
6.29
4.82
3.15
1.21
-0.96
-3.27
-5.58
-7.73
-9.68
-11.49
-13.35
-15.40
-17.62
-19.76
-21.44
-22.23
-21.92
-20.51
-18.20
-15.28
-11.95
-8.31
-4.50
-0.68
2.79
5.52
7.29
8.12
8.35
8.39
8.52
8.79
8.96
8.75
8.08
7.15
6.38
6.18
6.65
7.59
8.44
8.70
8.05
6.56
4.60
2.60
0.90
-0.39
-1.38
-2.29
-3.30
-4.51
-5.95
-7.62
-9.51
-11.55
-13.67
-15.67
-17.28
-18.21
-18.24
-17.31
-15.46
-12.86
-9.70
-6.21
-2.62
0.78
3.71
5.92
7.28
7.85
7.88
7.71
7.60
7.67
7.87
8.04
8.03
7.83
7.57
7.44
7.61
8.08
8.70
9.14
9.12
8.45
7.16
5.41
3.50
1.73
0.36
-0.45
-0.71
-0.58
-0.42
-0.65
-1.69
-3.76
-6.73
-10.06
-12.92
-14.47
-14.10
-11.72
-7.80
-3.22
1.09
4.47
6.73
8.10
9.01
9.79
10.47
10.89
10.82
10.24
9.36
8.47
7.78
7.20
6.46
5.23
3.44
1.25
-0.89
-2.55
-3.48
-3.75
-3.73
-3.81
-4.37
-5.51
-7.13
-8.97
-10.74
-12.24
-13.45
-14.54
-15.76
-17.31
-19.22
-21.26
-22.99
-23.87
-23.51
-21.75
-18.70
-14.70
-10.18
-5.51
-1.01
3.08
6.57
9.28
11.11
12.06
12.28
12.05
11.66
11.28
10.95
10.55
9.88
8.91
7.73
6.63
5.87
5.51
5.41
5.22
4.63
3.51
2.01
0.51
-0.70
-1.50
-2.06
-2.73
-3.87
-5.65
-7.97
-10.57
-13.14
-15.37
-17.08
-18.09
-18.21
-17.23
-15.05
-11.79
-7.88
-3.97
-0.74
1.46
2.65
3.28
3.90
4.93
6.43
8.14
9.66
10.70
11.22
11.40
11.56
11.92
12.45
12.93
13.08
12.78
12.11
11.34
10.77
10.52
10.34
9.82
8.58
6.50
3.89
1.32
-0.64
-1.71
-2.14
-2.46
-3.32
-5.05
-7.55
-10.30
-12.59
-13.79
-13.62
-12.20
-9.89
-7.12
-4.14
-1.04
2.16
5.43
8.52
11.11
12.86
13.64
13.62
13.13
12.57
12.21
12.11
12.14
12.15
12.01
11.63
11.00
10.18
9.27
8.38
7.60
6.99
6.47
5.92
5.18
4.14
2.79
1.22
-0.44
-2.10
-3.69
-5.22
-6.74
-8.30
-9.95
-11.68
-13.46
-15.21
-16.79
-18.01
-18.63
-18.40
-17.14
-14.80
-11.52
-7.65
-3.65
0.03
3.06
5.29
6.80
7.77
8.42
8.90
9.27
9.55
9.73
9.84
9.97
10.22
10.60
11.07
11.46
11.59
11.33
10.63
9.59
8.32
6.94
5.50
4.01
2.46
0.88
-0.63
-1.96
-3.04
-3.91
-4.71
-5.63
-6.82
-8.33
-10.12
-12.05
-13.90
-15.43
-16.34
-16.40
-15.40
-13.33
-10.38
-6.90
-3.28
0.15
3.17
5.70
7.68
9.04
9.67
9.61
9.00
8.16
7.46
7.13
7.27
7.72
8.29
8.81
9.20
9.45
9.57
9.51
9.21
8.62
7.71
6.54
5.19
3.76
2.37
1.06
-0.11
-1.20
-2.24
-3.33
-4.48
-5.73
-7.10
-8.59
-10.23
-11.91
-13.42
-14.41
-14.50
-13.48
-11.36
-8.45
-5.22
-2.12
0.52
2.59
4.12
5.19
5.82
6.04
5.80
5.14
4.17
3.12
2.24
1.76
1.76
2.15
2.77
3.39
3.90
4.29
4.63
4.96
5.23
5.25
4.86
3.97
2.70
1.34
0.20
-0.54
-0.93
-1.23
-1.78
-2.81
-4.34
-6.13
-7.77
-8.91
-9.30
-8.92
-7.94
-6.59
-5.02
-3.28
-1.32
0.84
3.06
5.04
6.44
7.00
6.74
5.92
5.00
4.39
4.28
4.63
5.16
5.54
5.50
5.04
4.32
3.58
3.04
2.74
2.58
2.32
1.77
0.89
-0.20
-1.27
-2.10
-2.63
-2.91
-3.10
-3.36
-3.80
-4.47
-5.39
-6.55
-7.89
-9.21
-10.18
-10.39
-9.52
-7.49
-4.56
-1.25
1.83
4.23
5.78
6.67
7.14
7.47
7.71
7.79
7.62
7.27
6.87
6.63
6.55
6.42
5.96
4.99
3.63
2.31
1.49
1.43
1.93
2.44
2.35
1.36
-0.31
-2.05
-3.25
-3.60
-3.35
-3.11
-3.49
-4.82
-6.90
-9.19
-11.08
-12.14
-12.42
-12.15
-11.56
-10.66
-9.18
-6.80
-3.50
0.39
4.03
6.57
7.44
6.69
4.98
3.25
2.29
2.39
3.21
4.07
4.38
3.98
3.21
2.66
2.76
3.58
4.68
5.48
5.53
4.76
3.45
2.03
0.84
-0.03
-0.70
-1.38
-2.20
-3.17
-4.21
-5.25
-6.27
-7.30
-8.44
-9.65
-10.79
-11.55
-11.58
-10.63
-8.67
-5.94
-2.83
0.21
2.85
4.93
6.41
7.31
7.67
7.54
6.98
6.14
5.27
4.55
4.08
3.85
3.76
3.71
3.66
3.57
3.41
3.08
2.47
1.55
0.39
-0.86
-2.03
-3.04
-3.94
-4.89
-6.00
-7.27
-8.64
-9.98
-11.16
-12.08
-12.66
-12.76
-12.25
-11.04
-9.11
-6.57
-3.61
-0.50
2.48
5.03
6.94
8.07
8.45
8.22
7.61
6.85
6.11
5.47
4.95
4.54
4.24
4.05
3.95
3.87
3.70
3.32
2.70
1.90
1.05
0.32
-0.18
-0.48
-0.72
-1.11
-1.83
-2.99
-4.55
-6.34
-8.13
-9.71
-10.92
-11.69
-11.94
-11.62
-10.65
-9.00
-6.79
-4.23
-1.72
0.39
1.85
2.64
2.95
3.03
3.08
3.18
3.27
3.24
3.00
2.57
2.08
1.66
1.46
1.47
1.60
1.65
1.45
0.91
0.06
-0.91
-1.84
-2.64
-3.31
-3.95
-4.59
-5.21
-5.71
-6.03
-6.25
-6.53
-7.00
-7.59
-7.98
-7.74
-6.54
-4.31
-1.36
1.74
4.44
6.38
7.46
7.77
7.55
6.99
6.27
5.53
4.86
4.31
3.91
3.63
3.38
3.14
2.82
2.37
1.74
0.86
-0.24
-1.44
-2.55
-3.35
-3.77
-3.94
-4.11
-4.55
-5.37
-6.52
-7.80
-8.98
-9.96
-10.69
-11.13
-11.14
-10.48
-8.98
-6.69
-3.90
-1.15
1.08
2.49
3.13
3.25
3.22
3.29
3.57
4.01
4.47
4.78
4.84
4.64
4.21
3.67
3.14
2.65
2.15
1.51
0.65
-0.44
-1.60
-2.64
-3.39
-3.87
-4.26
-4.82
-5.75
-7.09
-8.67
-10.18
-11.29
-11.73
-11.34
-10.12
-8.17
-5.69
-2.95
-0.23
2.20
4.16
5.53
6.27
6.38
5.97
5.18
4.26
3.49
3.14
3.34
4.02
4.94
5.75
6.16
6.04
5.50
4.74
3.93
3.13
2.28
1.22
-0.13
-1.77
-3.57
-5.34
-6.99
-8.51
-9.95
-11.32
-12.46
-13.05
-12.73
-11.28
-8.75
-5.55
-2.22
0.72
2.95
4.45
5.33
5.75
5.81
5.50
4.86
4.04
3.28
2.86
2.92
3.43
4.12
4.63
4.69
4.23
3.35
2.34
1.45
0.80
0.33
-0.15
-0.88
-1.96
-3.35
-4.86
-6.27
-7.33
-7.92
-7.95
-7.40
-6.27
-4.62
-2.56
-0.30
1.93
3.87
5.34
6.23
6.54
6.34
5.76
4.94
4.08
3.34
2.86
2.67
2.73
2.90
3.05
3.08
2.95
2.65
2.20
1.59
0.78
-0.20
-1.28
-2.36
-3.33
-4.22
-5.15
-6.26
-7.65
-9.22
-10.68
-11.63
-11.69
-10.67
-8.64
-5.91
-2.91
-0.03
2.47
4.52
6.18
7.53
8.64
9.45
9.91
10.01
9.83
9.55
9.38
9.44
9.73
10.08
10.25
10.01
9.27
8.11
6.75
5.46
4.40
3.58
2.85
1.96
0.72
-0.98
-3.12
-5.57
-8.14
-10.61
-12.69
-14.05
-14.36
-13.37
-11.10
-7.87
-4.26
-0.93
1.55
2.93
3.29
2.90
2.10
1.16
0.17
-0.80
-1.71
-2.44
-2.85
-2.81
-2.33
-1.56
-0.70
0.06
0.64
1.05
1.35
1.56
1.64
1.52
1.14
0.51
-0.30
-1.24
-2.27
-3.44
-4.83
-6.44
-8.16
-9.76
-10.93
-11.39
-10.89
-9.33
-6.74
-3.37
0.39
4.06
7.21
9.59
11.15
12.00
12.26
12.04
11.36
10.33
9.14
8.08
7.39
7.16
7.22
7.27
7.04
6.44
5.60
4.74
4.04
3.55
3.19
2.79
2.22
1.41
0.40
-0.77
-2.04
-3.47
-5.14
-7.10
-9.32
-11.55
-13.35
-14.26
-13.90
-12.24
-9.55
-6.32
-2.99
0.15
3.08
5.80
8.28
10.24
11.35
11.42
10.59
9.39
8.50
8.40
9.17
10.35
11.26
11.36
10.53
9.15
7.84
7.12
7.13
7.53
7.81
7.52
6.53
5.09
3.60
2.39
1.57
0.97
0.30
-0.72
-2.15
-3.96
-5.99
-8.10
-10.12
-11.92
-13.26
-13.86
-13.49
-12.03
-9.57
-6.33
-2.67
1.05
4.47
7.30
9.36
10.56
11.00
10.90
10.57
10.34
10.39
10.74
11.23
11.61
11.68
11.32
10.57
9.61
8.62
7.77
7.09
6.51
5.93
5.24
4.39
3.41
2.33
1.18
-0.08
-1.48
-3.05
-4.77
-6.52
-8.16
-9.54
-10.62
-11.47
-12.27
-13.20
-14.34
-15.55
-16.54
-16.89
-16.24
-14.41
-11.51
-7.86
-3.87
0.07
3.68
6.80
9.34
11.27
12.59
13.38
13.74
13.85
13.89
13.96
14.10
14.23
14.27
14.10
13.65
12.85
11.70
10.24
8.54
6.76
5.00
3.38
1.97
0.79
-0.12
-0.76
-1.17
-1.46
-1.72
-2.10
-2.66
-3.37
-4.16
-4.93
-5.65
-6.39
-7.30
-8.55
-10.21
-12.20
-14.30
-16.18
-17.50
-18.02
-17.61
-16.30
-14.21
-11.56
-8.63
-5.66
-2.87
-0.43
1.59
3.18
4.35
5.18
5.73
6.08
6.31
6.49
6.66
6.87
7.14
7.52
8.04
8.68
9.35
9.93
10.25
10.22
9.84
9.26
8.65
8.15
7.77
7.39
6.83
5.93
4.70
3.21
1.63
0.11
-1.29
-2.55
-3.70
-4.76
-5.77
-6.80
-8.01
-9.47
-11.16
-12.85
-14.11
-14.49
-13.69
-11.70
-8.94
-5.92
-3.18
-0.96
0.75
2.15
3.41
4.55
5.42
5.79
5.63
5.10
4.59
4.47
4.93
5.86
6.90
7.70
8.08
8.10
8.01
8.06
8.31
8.69
8.98
8.96
8.55
7.77
6.76
5.69
4.72
4.01
3.63
3.59
3.75
3.89
3.74
3.05
1.63
-0.51
-3.23
-6.22
-9.02
-11.20
-12.44
-12.62
-11.87
-10.41
-8.52
-6.46
-4.39
-2.48
-0.88
0.30
1.01
1.33
1.47
1.62
1.92
2.32
2.67
2.79
2.58
2.10
1.52
1.04
0.78
0.72
0.69
0.50
-0.02
-0.87
-1.93
-3.01
-3.96
-4.72
-5.36
-6.03
-6.89
-8.01
-9.40
-10.99
-12.70
-14.40
-15.91
-17.03
-17.45
-16.91
-15.21
-12.44
-8.88
-5.02
-1.42
1.52
3.61
4.96
5.85
6.57
7.25
7.92
8.46
8.77
8.85
8.81
8.81
8.98
9.33
9.79
10.20
10.39
10.30
9.95
9.43
8.89
8.36
7.84
7.18
6.27
5.06
3.62
2.10
0.63
-0.76
-2.15
-3.71
-5.56
-7.75
-10.13
-12.49
-14.58
-16.18
-17.17
-17.44
-16.97
-15.72
-13.70
-11.00
-7.85
-4.63
-1.74
0.53
2.05
2.94
3.44
3.82
4.24
4.69
5.10
5.38
5.53
5.58
5.62
5.74
5.95
6.24
6.54
6.77
6.86
6.73
6.38
5.84
5.14
4.30
3.34
2.28
1.20
0.24
-0.48
-0.93
-1.21
-1.58
-2.28
-3.54
-5.35
-7.53
-9.77
-11.72
-13.05
-13.58
-13.29
-12.24
-10.63
-8.68
-6.60
-4.53
-2.57
-0.75
0.86
2.22
3.29
4.10
4.69
5.18
5.66
6.14
6.58
6.90
7.03
6.99
6.85
6.71
6.63
6.60
6.50
6.26
5.80
5.15
4.43
3.75
3.16
2.59
1.92
1.06
0.02
-1.06
-2.01
-2.75
-3.37
-4.12
-5.25
-6.91
-8.96
-11.06
-12.75
-13.64
-13.52
-12.45
-10.63
-8.36
-5.91
-3.47
-1.17
0.94
2.79
4.30
5.38
5.97
6.15
6.08
6.00
6.08
6.32
6.61
6.78
6.71
6.43
6.08
5.79
5.60
5.42
5.10
4.56
3.80
2.91
1.99
1.10
0.18
-0.81
-1.92
-3.10
-4.27
-5.32
-6.23
-7.08
-8.01
-9.13
-10.38
-11.55
-12.27
-12.21
-11.12
-9.13
-6.55
-3.83
-1.36
0.68
2.31
3.63
4.71
5.47
5.73
5.39
4.54
3.45
2.53
2.06
2.14
2.55
2.92
2.91
2.43
1.64
0.90
0.49
0.51
0.77
0.94
0.73
0.08
-0.87
-1.84
-2.67
-3.32
-4.03
-5.08
-6.68
-8.81
-11.19
-13.37
-14.86
-15.30
-14.54
-12.71
-10.16
-7.28
-4.43
-1.82
0.44
2.33
3.82
4.83
5.37
5.48
5.31
5.07
4.94
5.05
5.43
6.00
6.71
7.46
8.15
8.70
9.04
9.12
8.95
8.55
7.90
6.96
5.65
3.97
2.01
-0.02
-1.89
-3.48
-4.85
-6.27
-8.06
-10.42
-13.25
-16.16
-18.59
-20.04
-20.24
-19.16
-17.07
-14.30
-11.15
-7.86
-4.59
-1.48
1.31
3.60
5.26
6.28
6.77
7.00
7.19
7.50
7.94
8.37
8.65
8.72
8.59
8.41
8.27
8.15
7.92
7.39
6.45
5.06
3.39
1.67
0.18
-0.90
-1.54
-1.89
-2.19
-2.73
-3.70
-5.13
-6.85
-8.56
-9.87
-10.43
-9.98
-8.34
-5.57
-1.89
2.26
6.38
9.96
12.77
14.76
16.13
17.17
18.12
19.08
19.99
20.77
21.39
21.94
22.67
23.93
26.06
29.31
33.64
38.70
43.71
47.68
49.62
48.99
45.91
41.24
36.29
32.32
30.18
29.98
31.33
33.66
36.62
40.17
44.52
49.74
55.58
61.35
66.17
69.24
70.12
68.78
65.46
60.49
54.24
47.15
39.99
33.94
30.55
31.26
36.99
47.58
61.79
77.65
92.95
105.81
114.95
119.62
119.50
114.55
105.11
92.00
76.56
60.38
44.85
30.77
18.24
6.93
-3.48
-13.01
-21.29
-27.86
-32.51
-35.57
-37.71
-39.74
-42.20
-45.16
-48.30
-51.16
-53.40
-55.01
-56.26
-57.42
-58.58
-59.49
-59.67
-58.68
-56.38
-53.08
-49.46
-46.22
-43.77
-42.13
-40.97
-39.90
-38.71
-37.47
-36.48
-35.95
-35.96
-36.35
-36.88
-37.30
-37.45
-37.31
-36.95
-36.51
-36.16
-36.01
-36.12
-36.43
-36.77
-36.96
-36.89
-36.59
-36.21
-35.93
-35.88
-36.06
-36.36
-36.62
-36.77
-36.83
-36.97
-37.39
-38.16
-39.21
-40.15
-40.53
-39.92
-38.21
-35.56
-32.39
-29.11
-25.92
-22.79
-19.57
-16.24
-12.98
-10.20
-8.29
-7.42
-7.44
-7.95
-8.51
-8.84
-8.88
-8.79
-8.71
-8.61
-8.25
-7.28
-5.44
-2.82
0.13
2.71
4.24
4.32
2.92
0.39
-2.88
-6.54
-10.44
-14.59
-19.08
-24.04
-29.59
-35.82
-42.68
-50.00
-57.37
-64.25
-70.06
-74.35
-76.74
-77.00
-75.01
-70.88
-65.09
-58.39
-51.78
-46.17
-42.11
-39.68
-38.53
-38.10
-37.79
-37.08
-35.48
-32.72
-28.75
-23.88
-18.82
-14.48
-11.77
-11.11
-12.33
-14.72
-17.32
-19.24
-19.97
-19.44
-17.96
-15.99
-13.84
-11.68
-9.41
-6.77
-3.57
0.22
4.36
8.35
11.54
13.26
13.04
10.77
6.85
2.02
-2.77
-6.70
-9.20
-10.08
-9.38
-7.32
-4.22
-0.48
3.38
6.76
9.12
10.12
9.83
8.68
7.29
6.30
6.07
6.66
7.85
9.31
10.69
11.75
12.33
12.38
11.91
10.99
9.76
8.39
7.04
5.76
4.54
3.22
1.63
-0.35
-2.76
-5.54
-8.61
-11.85
-15.08
-18.01
-20.27
-21.46
-21.30
-19.72
-16.94
-13.35
-9.47
-5.71
-2.37
0.37
2.47
3.97
4.92
5.40
5.52
5.40
5.20
5.05
5.06
5.31
5.76
6.33
6.87
7.26
7.41
7.31
7.00
6.52
5.88
5.10
4.19
3.20
2.23
1.32
0.42
-0.59
-1.92
-3.68
-5.85
-8.24
-10.50
-12.30
-13.34
-13.45
-12.54
-10.62
-7.74
-4.08
0.07
4.34
8.25
11.40
13.51
14.53
14.65
14.17
13.45
12.75
12.20
11.83
11.68
11.82
12.31
13.15
14.14
14.95
15.23
14.78
13.71
12.28
10.88
9.74
8.91
8.21
7.46
6.55
5.47
4.15
2.45
0.19
-2.64
-5.77
-8.60
-10.33
-10.34
-8.49
-5.15
-1.10
2.84
6.15
8.73
10.74
12.43
13.76
14.55
14.58
13.82
12.60
11.46
10.92
11.20
12.04
12.95
13.39
13.15
12.36
11.39
10.58
10.03
9.52
8.72
7.41
5.67
3.89
2.55
1.93
1.95
2.13
1.83
0.61
-1.56
-4.23
-6.65
-8.09
-8.12
-6.71
-4.14
-0.84
2.75
6.32
9.62
12.43
14.60
16.00
16.62
16.56
16.06
15.38
14.78
14.34
14.07
13.88
13.70
13.49
13.25
12.96
12.58
12.02
11.21
10.11
8.81
7.39
5.97
4.57
3.16
1.67
0.03
-1.78
-3.73
-5.76
-7.77
-9.56
-10.89
-11.46
-11.03
-9.46
-6.80
-3.32
0.59
4.46
7.88
10.53
12.28
13.18
13.45
13.38
13.23
13.13
13.09
13.07
13.04
13.12
13.43
14.01
14.77
15.42
15.62
15.16
14.04
12.50
10.87
9.41
8.22
7.26
6.38
5.46
4.41
3.18
1.71
-0.03
-1.99
-4.03
-5.82
-7.03
-7.29
-6.41
-4.41
-1.54
1.77
5.03
7.76
9.66
10.62
10.80
10.48
9.97
9.51
9.17
8.91
8.66
8.43
8.24
8.21
8.34
8.52
8.59
8.36
7.77
6.86
5.83
4.89
4.25
3.94
3.84
3.76
3.41
2.63
1.37
-0.28
-2.20
-4.24
-6.33
-8.38
-10.19
-11.41
-11.62
-10.53
-8.10
-4.71
-0.97
2.43
5.06
6.85
7.98
8.75
9.29
9.61
9.63
9.34
8.90
8.55
8.53
8.87
9.42
9.89
9.99
9.61
8.78
7.69
6.50
5.32
4.16
2.99
1.80
0.63
-0.46
-1.46
-2.44
-3.59
-5.09
-7.02
-9.22
-11.29
-12.71
-13.03
-12.11
-10.13
-7.55
-4.87
-2.42
-0.31
1.55
3.28
4.87
6.14
6.94
7.21
7.12
7.05
7.35
8.19
9.44
10.75
11.72
12.11
11.91
11.35
10.70
10.15
9.64
8.98
7.90
6.24
4.10
1.78
-0.36
-2.00
-3.09
-3.85
-4.66
-5.90
-7.75
-10.07
-12.48
-14.47
-15.58
-15.54
-14.29
-11.97
-8.86
-5.25
-1.49
2.10
5.20
7.59
9.16
9.99
10.26
10.23
10.11
10.06
10.18
10.50
11.02
11.70
12.41
12.98
13.24
13.12
12.66
12.03
11.35
10.66
9.90
8.93
7.71
6.31
4.86
3.49
2.24
1.01
-0.30
-1.75
-3.29
-4.81
-6.21
-7.54
-8.90
-10.31
-11.61
-12.41
-12.25
-10.80
-8.01
-4.20
0.08
4.27
7.92
10.81
12.92
14.40
15.40
16.12
16.72
17.32
17.93
18.43
18.63
18.32
17.40
15.93
14.15
12.39
10.94
9.92
9.27
8.87
8.55
8.18
7.70
7.05
6.17
4.96
3.38
1.49
-0.58
-2.62
-4.52
-6.27
-8.02
-9.96
-12.27
-14.95
-17.75
-20.24
-21.94
-22.48
-21.70
-19.70
-16.82
-13.54
-10.32
-7.51
-5.29
-3.73
-2.73
-2.13
-1.72
-1.28
-0.67
0.18
1.21
2.30
3.29
4.06
4.57
4.85
4.98
5.06
5.13
5.21
5.25
5.20
4.99
4.54
3.80
2.77
1.51
0.15
-1.11
-2.10
-2.75
-3.09
-3.32
-3.67
-4.41
-5.69
-7.53
-9.81
-12.20
-14.29
-15.62
-15.86
-14.87
-12.75
-9.80
-6.39
-2.87
0.55
3.71
6.52
8.83
10.46
11.28
11.30
10.67
9.72
8.79
8.14
7.89
7.90
7.95
7.77
7.17
6.18
4.92
3.65
2.54
1.65
0.89
0.09
-0.80
-1.76
-2.62
-3.17
-3.31
-3.13
-2.86
-2.82
-3.28
-4.32
-5.89
-7.84
-9.98
-12.14
-14.17
-15.81
-16.78
-16.78
-15.61
-13.32
-10.13
-6.48
-2.80
0.60
3.54
5.94
7.79
9.03
9.65
9.64
9.10
8.25
7.37
6.71
6.45
6.59
7.01
7.48
7.73
7.61
7.08
6.24
5.25
4.27
3.38
2.57
1.75
0.87
-0.10
-1.12
-2.14
-3.11
-4.06
-5.02
-6.07
-7.30
-8.72
-10.35
-12.10
-13.79
-15.15
-15.86
-15.61
-14.23
-11.77
-8.53
-4.98
-1.61
1.22
3.39
4.98
6.15
7.04
7.59
7.67
7.12
5.98
4.59
3.41
2.86
3.10
3.87
4.75
5.29
5.29
4.87
4.38
4.11
4.16
4.26
4.01
3.10
1.52
-0.40
-2.12
-3.22
-3.59
-3.56
-3.74
-4.67
-6.56
-9.22
-12.10
-14.59
-16.24
-16.84
-16.42
-15.09
-13.00
-10.32
-7.28
-4.15
-1.26
1.13
2.92
4.12
4.90
5.43
5.84
6.23
6.64
7.03
7.33
7.49
7.45
7.25
6.94
6.60
6.31
6.09
5.90
5.62
5.12
4.23
2.90
1.18
-0.75
-2.59
-4.08
-5.08
-5.65
-6.05
-6.59
-7.56
-9.02
-10.88
-12.88
-14.69
-15.97
-16.43
-15.89
-14.28
-11.65
-8.22
-4.39
-0.58
2.77
5.36
7.05
7.85
7.93
7.57
7.02
6.53
6.26
6.27
6.54
6.99
7.51
8.02
8.46
8.76
8.86
8.70
8.29
7.65
6.88
6.06
5.21
4.35
3.46
2.55
1.63
0.69
-0.33
-1.56
-3.15
-5.22
-7.67
-10.28
-12.67
-14.40
-15.12
-14.63
-12.92
-10.23
-7.00
-3.69
-0.72
1.69
3.58
5.19
6.79
8.58
10.50
12.34
13.78
14.65
14.93
14.75
14.28
13.64
12.82
11.81
10.65
9.45
8.35
7.45
6.72
5.96
4.98
3.65
2.01
0.25
-1.38
-2.71
-3.75
-4.65
-5.68
-7.09
-8.93
-11.04
-13.00
-14.33
-14.64
-13.76
-11.81
-9.13
-6.11
-3.08
-0.22
2.37
4.59
6.39
7.65
8.33
8.52
8.39
8.23
8.23
8.47
8.90
9.36
9.69
9.74
9.46
8.85
7.96
6.82
5.55
4.21
2.88
1.65
0.52
-0.49
-1.44
-2.44
-3.58
-4.92
-6.49
-8.24
-10.12
-12.02
-13.83
-15.40
-16.48
-16.80
-16.10
-14.24
-11.33
-7.65
-3.70
-0.03
2.95
5.04
6.30
6.99
7.39
7.72
7.99
8.09
7.87
7.32
6.59
5.94
5.60
5.67
5.96
6.18
6.00
5.26
4.01
2.43
0.76
-0.79
-2.12
-3.22
-4.21
-5.23
-6.41
-7.89
-9.68
-11.67
-13.61
-15.18
-16.07
-16.07
-15.07
-13.13
-10.44
-7.24
-3.84
-0.55
2.34
4.60
6.06
6.72
6.74
6.40
6.05
5.99
6.31
6.92
7.59
8.05
8.19
8.06
7.82
7.64
7.52
7.28
6.66
5.52
3.88
1.98
0.11
-1.50
-2.84
-4.10
-5.52
-7.25
-9.26
-11.29
-13.02
-14.18
-14.62
-14.28
-13.21
-11.47
-9.11
-6.23
-2.98
0.34
3.37
5.75
7.23
7.79
7.63
7.10
6.58
6.34
6.46
6.85
7.34
7.76
8.03
8.16
8.16
8.05
7.76
7.21
6.37
5.27
4.04
2.85
1.84
1.01
0.26
-0.62
-1.79
-3.41
-5.46
-7.81
-10.17
-12.20
-13.60
-14.15
-13.83
-12.71
-10.93
-8.65
-5.98
-3.07
-0.13
2.62
4.97
6.78
8.07
8.89
9.32
9.37
9.02
8.31
7.40
6.47
5.70
5.11
4.66
4.25
3.87
3.53
3.33
3.26
3.24
3.14
2.86
2.38
1.75
1.07
0.36
-0.42
-1.35
-2.46
-3.71
-5.05
-6.40
-7.72
-9.00
-10.19
-11.19
-11.81
-11.82
-11.02
-9.33
-6.87
-3.92
-0.84
2.06
4.61
6.82
8.73
10.40
11.76
12.71
13.13
13.04
12.64
12.22
12.02
12.09
12.33
12.45
12.23
11.56
10.50
9.25
8.02
6.93
5.98
5.06
4.06
2.90
1.60
0.25
-0.99
-2.01
-2.78
-3.38
-3.96
-4.65
-5.56
-6.74
-8.19
-9.91
-11.84
-13.88
-15.79
-17.21
-17.71
-16.93
-14.77
-11.37
-7.14
-2.58
1.85
5.90
9.47
12.62
15.51
18.27
20.98
23.65
26.20
28.54
30.62
32.47
34.30
36.43
39.25
43.05
47.96
53.86
60.40
67.13
73.60
79.52
84.78
89.47
93.81
98.03
102.25
106.49
110.56
114.20
117.10
119.02
119.91
119.92
119.25
118.03
116.15
113.32
109.25
103.98
98.03
92.31
87.70
84.73
83.21
82.25
80.57
76.90
70.35
60.61
47.82
32.62
16.00
-0.82
-16.57
-30.31
-41.66
-50.95
-59.11
-67.01
-75.06
-82.81
-89.20
-93.06
-93.95
-92.43
-90.14
-88.81
-89.53
-92.18
-95.50
-97.86
-98.17
-96.36
-93.49
-90.80
-88.85
-87.05
-83.91
-77.93
-68.69
-57.19
-45.81
-37.00
-32.29
-31.49
-32.92
-34.33
-33.98
-31.28
-27.00
-22.51
-18.99
-16.93
-16.04
-15.66
-15.27
-14.74
-14.42
-14.68
-15.59
-16.73
-17.21
-16.03
-12.52
-6.55
1.18
9.37
16.44
21.01
22.42
20.85
17.25
12.85
8.64
5.03
1.91
-1.03
-3.88
-6.35
-7.96
-8.38
-7.77
-6.79
-6.30
-6.98
-8.92
-11.61
-14.22
-15.91
-16.24
-15.20
-13.20
-10.75
-8.34
-6.20
-4.39
-2.83
-1.55
-0.70
-0.56
-1.42
-3.28
-5.84
-8.51
-10.57
-11.53
-11.29
-10.25
-9.08
-8.49
-8.97
-10.66
-13.35
-16.66
-20.26
-23.92
-27.57
-31.07
-34.11
-36.19
-36.79
-35.63
-32.95
-29.47
-26.15
-23.77
-22.66
-22.63
-23.11
-23.54
-23.55
-22.99
-21.88
-20.15
-17.68
-14.31
-10.03
-5.13
-0.20
4.04
6.98
8.35
8.40
7.71
7.01
6.77
7.09
7.68
8.15
8.20
7.88
7.45
7.23
7.30
7.40
6.96
5.39
2.39
-1.89
-6.82
-11.51
-15.19
-17.44
-18.33
-18.44
-18.48
-19.16
-20.88
-23.70
-27.40
-31.64
-35.96
-39.81
-42.58
-43.64
-42.54
-39.13
-33.81
-27.42
-20.98
-15.48
-11.45
-8.94
-7.59
-6.90
-6.54
-6.39
-6.54
-7.04
-7.75
-8.35
-8.47
-7.96
-6.99
-6.10
-5.83
-6.52
-8.00
-9.75
-11.10
-11.58
-11.21
-10.43
-9.87
-9.93
-10.66
-11.69
-12.62
-13.16
-13.49
-14.06
-15.30
-17.38
-19.90
-22.09
-23.07
-22.25
-19.64
-15.77
-11.47
-7.47
-4.11
-1.32
1.23
3.84
6.47
8.82
10.45
11.09
10.82
10.04
9.29
9.01
9.34
10.18
11.28
12.47
13.60
14.61
15.35
15.59
15.00
13.25
10.18
5.84
0.60
-5.04
-10.52
-15.32
-19.20
-22.14
-24.39
-26.22
-27.84
-29.21
-30.02
-29.88
-28.40
-25.49
-21.35
-16.45
-11.44
-6.90
-3.28
-0.77
0.66
1.24
1.26
1.08
1.06
1.53
2.73
4.77
7.55
10.68
13.58
15.50
15.80
14.07
10.36
5.20
-0.53
-5.81
-9.87
-12.34
-13.34
-13.31
-12.76
-12.07
-11.46
-11.03
-10.91
-11.24
-12.12
-13.46
-14.87
-15.74
-15.50
-13.93
-11.21
-7.89
-4.59
-1.79
0.37
2.11
3.63
5.05
6.24
6.94
6.98
6.37
5.49
4.83
4.83
5.54
6.56
7.31
7.19
5.96
3.82
1.34
-0.83
-2.31
-3.14
-3.72
-4.47
-5.77
-7.62
-9.80
-12.04
-14.19
-16.28
-18.38
-20.40
-22.00
-22.67
-21.89
-19.47
-15.61
-10.97
-6.28
-2.11
1.31
4.07
6.46
8.71
10.84
12.61
13.67
13.78
12.88
11.21
9.27
7.54
6.36
5.78
5.48
5.06
4.22
2.84
1.13
-0.62
-2.17
-3.46
-4.62
-5.84
-7.28
-9.04
-11.09
-13.40
-15.92
-18.59
-21.27
-23.67
-25.37
-25.96
-25.07
-22.59
-18.71
-13.90
-8.84
-4.15
-0.21
2.91
5.43
7.61
9.57
11.19
12.24
12.59
12.38
12.10
12.35
13.50
15.48
17.74
19.49
20.08
19.26
17.33
14.97
12.87
11.53
11.10
11.39
12.04
12.64
12.77
12.10
10.29
7.10
2.44
-3.56
-10.49
-17.58
-23.91
-28.56
-30.82
-30.46
-27.76
-23.47
-18.52
-13.75
-9.59
-6.07
-2.92
0.16
3.21
6.02
8.17
9.35
9.58
9.31
9.20
9.86
11.53
14.01
16.81
19.40
21.48
23.01
24.14
24.95
25.42
25.43
24.93
24.11
23.39
23.12
23.37
23.77
23.60
22.16
19.19
14.99
10.29
5.93
2.33
-0.64
-3.65
-7.45
-12.52
-18.79
-25.54
-31.86
-36.81
-39.79
-40.69
-39.73
-37.25
-33.58
-29.04
-24.09
-19.22
-14.89
-11.38
-8.51
-5.76
-2.45
1.79
6.72
11.61
15.66
18.42
20.15
21.63
23.62
26.36
29.13
30.79
30.38
27.76
23.80
20.02
17.67
17.16
17.55
17.36
15.35
11.34
6.34
1.95
-0.59
-1.08
-0.67
-0.95
-3.03
-6.85
-11.24
-14.74
-16.54
-16.88
-17.04
-18.23
-20.74
-23.52
-24.62
-22.26
-15.78
-5.97
5.11
15.20
22.79
27.58
30.25
31.85
33.08
34.05
34.28
33.25
30.90
27.70
24.52
22.17
21.01
20.85
21.00
20.69
19.36
16.88
13.54
9.90
6.51
3.87
2.24
1.69
2.10
3.14
4.39
5.40
5.78
5.38
4.42
3.34
2.67
2.68
3.22
3.68
3.30
1.54
-1.60
-5.51
-9.25
-11.85
-12.71
-11.80
-9.61
-6.93
-4.64
-3.41
-3.45
-4.56
-6.08
-7.26
-7.48
-6.51
-4.51
-1.91
0.79
3.23
5.21
6.66
7.62
8.20
8.63
9.26
10.44
12.40
15.12
18.25
21.26
23.58
24.76
24.57
22.98
20.10
16.15
11.44
6.35
1.36
-3.07
-6.62
-9.18
-10.95
-12.43
-14.24
-16.94
-20.69
-25.13
-29.46
-32.70
-34.03
-33.14
-30.33
-26.34
-22.00
-17.98
-14.60
-11.87
-9.69
-7.97
-6.65
-5.63
-4.67
-3.45
-1.62
0.93
4.06
7.31
10.12
11.97
12.57
11.97
10.42
8.35
6.18
4.27
2.88
2.15
2.12
2.72
3.77
4.98
5.95
6.37
6.08
5.22
4.15
3.26
2.71
2.40
2.08
1.71
1.82
3.46
7.80
15.46
26.08
38.29
50.24
60.37
67.85
72.67
75.24
75.83
74.40
70.78
65.10
58.08
50.95
45.02
41.13
39.32
38.96
39.19
39.36
39.27
38.97
38.41
37.23
34.68
30.14
23.51
15.50
7.34
0.20
-5.39
-9.78
-13.99
-18.96
-24.99
-31.47
-37.19
-41.04
-42.66
-42.63
-42.13
-42.14
-42.89
-43.72
-43.54
-41.61
-38.19
-34.39
-31.70
-31.04
-32.24
-34.14
-35.26
-34.61
-32.18
-28.70
-25.20
-22.37
-20.34
-18.85
-17.67
-16.80
-16.48
-16.92
-18.07
-19.57
-20.84
-21.30
-20.43
-17.86
-13.43
-7.29
-0.11
7.01
12.77
16.17
16.85
15.30
12.47
9.30
6.28
3.22
-0.40
-5.00
-10.58
-16.56
-22.13
-26.49
-29.20
-30.17
-29.65
-28.00
-25.65
-22.96
-20.25
-17.72
-15.43
-13.30
-11.18
-9.00
-6.75
-4.53
-2.37
-0.18
2.19
4.91
8.04
11.51
15.15
18.79
22.31
25.67
28.78
31.49
33.66
35.17
36.03
36.30
36.00
35.06
33.21
30.14
25.61
19.67
12.62
4.95
-2.73
-9.87
-16.14
-21.40
-25.69
-29.02
-31.22
-31.98
-30.81
-27.30
-21.45
-13.82
-5.57
1.87
7.33
10.28
11.14
11.11
11.62
13.70
17.57
22.51
27.25
30.58
31.79
31.07
29.14
26.89
24.78
22.68
20.02
16.14
10.79
4.27
-2.63
-9.06
-14.45
-18.70
-22.08
-25.07
-28.03
-31.09
-34.19
-37.11
-39.66
-41.68
-42.96
-43.33
-42.60
-40.60
-37.25
-32.62
-26.93
-20.59
-14.09
-7.98
-2.75
1.24
3.83
5.02
5.08
4.36
3.37
2.61
2.51
3.30
4.90
6.91
8.68
9.50
8.91
6.85
3.72
0.26
-2.83
-5.18
-6.86
-8.29
-9.95
-12.10
-14.69
-17.38
-19.80
-21.79
-23.38
-24.75
-25.98
-26.94
-27.21
-26.34
-24.01
-20.29
-15.60
-10.70
-6.27
-2.70
0.06
2.46
4.97
7.75
10.48
12.45
12.97
11.81
9.41
6.68
4.60
3.77
4.14
5.16
6.17
6.80
7.14
7.57
8.39
9.54
10.53
10.67
9.44
6.75
3.00
-1.16
-5.14
-8.67
-11.80
-14.75
-17.56
-20.01
-21.60
-21.82
-20.43
-17.59
-13.90
-10.08
-6.76
-4.19
-2.19
-0.43
1.38
3.16
4.50
4.86
3.90
1.78
-0.79
-2.81
-3.44
-2.34
0.12
3.08
5.60
7.09
7.53
7.12
6.23
4.99
3.33
1.20
-1.21
-3.50
-5.26
-6.51
-7.74
-9.66
-12.72
-16.60
-20.24
-22.27
-21.77
-18.82
-14.46
-10.12
-6.84
-4.71
-2.97
-0.64
2.92
7.38
11.80
15.10
16.70
16.85
16.44
16.44
17.46
19.07
20.43
20.60
19.24
16.86
14.55
13.28
13.42
14.19
14.33
12.78
9.30
4.76
0.62
-1.87
-2.42
-2.01
-2.21
-4.36
-8.66
-14.11
-18.91
-21.44
-21.00
-18.16
-14.16
-10.18
-6.59
-2.90
1.82
8.18
15.99
24.06
30.91
35.40
37.20
36.91
35.57
34.13
33.18
32.61
31.99
30.79
28.75
25.89
22.59
19.34
16.74
15.29
15.42
17.35
21.13
26.46
32.67
38.71
43.31
45.30
43.90
38.96
31.06
21.30
11.05
1.60
-6.05
-11.31
-13.93
-14.01
-11.93
-8.23
-3.63
1.17
5.68
9.65
13.05
16.00
18.62
21.03
23.40
25.99
29.09
32.73
36.51
39.58
40.86
39.59
35.72
30.01
23.69
17.92
13.29
9.65
6.32
2.47
-2.51
-8.86
-16.45
-25.01
-34.23
-43.85
-53.74
-63.73
-73.62
-83.09
-91.59
-98.43
-102.92
-104.53
-103.15
-99.11
-93.10
-85.90
-78.16
-70.30
-62.56
-55.24
-48.76
-43.61
-40.09
-38.09
-37.02
-36.12
-34.71
-32.47
-29.47
-25.87
-21.80
-17.23
-12.05
-6.17
0.37
7.45
14.99
22.93
31.20
39.66
48.01
55.89
63.04
69.37
74.87
79.63
83.68
86.90
89.15
90.24
90.12
88.89
86.84
84.34
81.78
79.52
77.80
76.75
76.38
76.64
77.42
78.56
79.94
81.45
83.06
84.83
86.75
88.76
90.75
92.60
94.18
95.35
95.79
94.86
91.72
85.60
76.27
64.22
50.58
36.72
23.74
12.05
1.47
-8.42
-17.83
-26.51
-33.87
-39.27
-42.42
-43.57
-43.41
-42.70
-41.97
-41.36
-40.65
-39.61
-38.17
-36.67
-35.58
-35.37
-36.14
-37.59
-39.14
-40.20
-40.41
-39.83
-38.82
-37.92
-37.69
-38.64
-41.13
-45.47
-51.79
-60.01
-69.69
-79.92
-89.51
-97.28
-102.63
-105.81
-107.88
-110.14
-113.40
-117.34
-120.63
-121.59
-119.01
-112.69
-103.27
-91.80
-79.06
-65.43
-51.17
-36.76
-23.08
-11.09
-1.34
6.25
12.34
17.63
22.48
26.77
30.09
32.18
33.12
33.28
33.06
32.74
32.38
31.93
31.39
30.90
30.68
30.99
31.90
33.27
34.68
35.60
35.56
34.43
32.51
30.39
28.71
27.83
27.69
27.86
27.87
27.47
26.74
26.02
25.56
25.40
25.37
25.21
24.77
24.11
23.42
22.88
22.50
22.10
21.40
20.21
18.56
16.75
15.19
14.17
13.74
13.68
13.58
13.13
12.23
11.07
10.08
9.64
9.92
10.80
11.94
13.00
13.75
14.22
14.60
15.04
15.48
15.62
15.08
13.69
11.61
9.29
7.19
5.33
3.19
-0.13
-5.39
-12.73
-21.56
-30.81
-39.31
-46.33
-51.58
-55.10
-56.99
-57.28
-56.08
-53.74
-50.80
-47.82
-45.07
-42.48
-39.79
-36.84
-34.02
-32.11
-31.99
-34.09
-38.14
-43.22
-48.19
-52.11
-54.72
-56.32
-57.51
-58.78
-60.23
-61.59
-62.47
-62.63
-62.19
-61.57
-61.21
-61.30
-61.65
-61.73
-60.87
-58.54
-54.51
-48.88
-42.00
-34.32
-26.32
-18.40
-10.90
-4.05
1.93
6.89
10.73
13.40
14.96
15.56
15.48
15.07
14.64
14.46
14.68
15.32
16.19
17.01
17.37
16.99
15.81
14.19
12.92
12.88
14.65
18.17
22.59
26.56
28.75
28.41
25.66
21.38
16.84
13.19
11.08
10.64
11.62
13.65
16.45
19.85
23.71
27.84
31.99
35.95
39.60
42.95
46.12
49.08
51.58
53.05
52.82
50.42
45.89
39.92
33.67
28.36
24.78
22.95
22.03
20.76
17.90
12.86
5.87
-2.17
-10.10
-17.07
-22.81
-27.67
-32.33
-37.44
-43.26
-49.52
-55.50
-60.27
-62.95
-62.93
-59.94
-54.11
-45.91
-36.17
-26.05
-16.88
-9.94
-6.05
-5.24
-6.60
-8.55
-9.40
-8.02
-4.32
0.78
5.91
9.78
11.81
12.16
11.38
9.98
8.12
5.65
2.43
-1.26
-4.62
-6.70
-6.84
-5.18
-2.71
-0.90
-1.01
-3.58
-8.27
-14.21
-20.23
-25.26
-28.38
-28.83
-26.06
-20.04
-11.37
-1.51
7.73
14.87
19.27
21.43
22.56
23.81
25.64
27.48
28.35
27.48
25.00
21.94
19.69
19.20
20.46
22.21
22.84
21.19
17.31
12.44
8.34
6.29
6.44
7.53
7.80
5.97
1.87
-3.53
-8.70
-12.59
-14.88
-16.22
-17.36
-18.60
-19.37
-18.62
-15.31
-9.11
-0.52
9.16
18.45
26.20
31.91
35.67
38.00
39.49
40.64
41.74
42.87
44.05
45.19
46.12
46.63
46.48
45.54
43.75
41.13
37.72
33.54
28.61
23.09
17.28
11.69
6.75
2.68
-0.69
-3.82
-7.25
-11.32
-16.05
-21.07
-25.80
-29.57
-31.79
-32.01
-30.01
-25.89
-20.06
-13.21
-6.09
0.67
6.62
11.57
15.47
18.32
20.17
21.13
21.45
21.41
21.32
21.39
21.73
22.26
22.85
23.26
23.19
22.31
20.41
17.50
13.89
10.06
6.54
3.67
1.48
-0.22
-1.77
-3.47
-5.46
-7.76
-10.27
-12.82
-15.07
-16.58
-16.79
-15.20
-11.48
-5.65
1.83
10.14
18.25
25.14
30.06
32.67
33.14
32.00
29.92
27.58
25.39
23.50
21.89
20.48
19.22
18.19
17.40
16.80
16.12
15.00
13.00
9.81
5.31
-0.41
-7.07
-14.14
-21.02
-27.01
-31.45
-33.98
-34.70
-34.10
-32.87
-31.49
-29.82
-27.24
-23.04
-17.03
-9.84
-2.69
3.20
7.38
10.14
12.30
14.39
16.33
17.52
17.57
16.84
16.45
17.58
20.64
24.86
28.62
30.38
29.49
26.53
22.85
19.65
17.53
16.22
15.04
13.27
10.61
7.16
3.24
-0.82
-4.76
-8.39
-11.68
-14.63
-17.41
-20.15
-22.84
-25.34
-27.30
-28.32
-28.05
-26.30
-22.96
-18.10
-11.84
-4.62
2.96
10.14
16.16
20.58
23.28
24.50
24.70
24.26
23.45
22.38
21.17
19.95
18.86
18.04
17.58
17.39
17.32
17.22
16.91
16.25
15.14
13.51
11.44
9.00
6.32
3.46
0.46
-2.68
-5.92
-9.15
-12.23
-15.03
-17.54
-19.82
-21.92
-23.75
-25.01
-25.28
-24.11
-21.36
-17.25
-12.33
-7.28
-2.69
1.16
4.22
6.68
8.75
10.51
11.85
12.60
12.59
11.80
10.42
8.83
7.47
6.61
6.25
6.12
5.75
4.79
3.15
1.09
-0.94
-2.55
-3.62
-4.42
-5.43
-7.07
-9.47
-12.40
-15.39
-18.08
-20.33
-22.28
-24.12
-25.88
-27.18
-27.34
-25.67
-21.79
-15.97
-9.00
-2.00
4.02
8.53
11.64
13.79
15.55
17.18
18.62
19.58
19.80
19.31
18.49
17.83
17.65
17.86
17.97
17.37
15.63
12.77
9.26
5.74
2.73
0.33
-1.71
-3.80
-6.28
-9.16
-12.15
-14.88
-17.19
-19.25
-21.50
-24.33
-27.80
-31.47
-34.45
-35.77
-34.76
-31.37
-26.19
-20.15
-14.20
-8.98
-4.69
-1.19
1.73
4.15
6.01
7.17
7.58
7.37
6.89
6.47
6.32
6.44
6.56
6.43
5.86
4.87
3.65
2.40
1.20
-0.07
-1.66
-3.77
-6.42
-9.45
-12.51
-15.35
-17.86
-20.23
-22.86
-26.06
-29.94
-34.19
-38.14
-40.95
-41.90
-40.60
-37.07
-31.67
-24.97
-17.54
-9.86
-2.40
4.37
9.96
13.96
16.19
16.85
16.49
15.86
15.62
16.07
17.12
18.30
19.12
19.24
18.64
17.63
16.56
15.64
14.82
13.76
12.07
9.49
6.10
2.29
-1.39
-4.54
-7.06
-9.22
-11.50
-14.28
-17.75
-21.68
-25.66
-29.17
-31.80
-33.30
-33.57
-32.54
-30.14
-26.39
-21.37
-15.38
-8.88
-2.46
3.31
8.00
11.45
13.77
15.25
16.27
17.13
18.00
18.87
19.66
20.23
20.46
20.30
19.77
18.90
17.82
16.66
15.54
14.51
13.46
12.21
10.52
8.22
5.32
2.02
-1.31
-4.31
-6.70
-8.54
-10.19
-12.24
-15.25
-19.43
-24.40
-29.14
-32.42
-33.19
-31.07
-26.48
-20.42
-13.92
-7.63
-1.68
3.94
9.18
13.71
17.04
18.93
19.71
20.07
20.76
21.88
22.98
23.31
22.45
20.73
19.12
18.54
19.30
20.58
21.06
19.70
16.46
12.45
9.33
8.21
9.13
10.64
10.88
8.57
3.80
-1.99
-6.80
-9.28
-9.38
-8.78
-9.66
-13.63
-20.62
-28.74
-35.10
-37.26
-34.28
-27.48
-19.45
-12.78
-8.74
-6.71
-4.79
-1.08
5.18
12.88
19.76
23.67
23.71
20.78
17.00
14.55
14.68
16.99
19.98
21.91
21.74
19.61
16.59
13.98
12.67
12.59
12.97
12.79
11.27
8.29
4.32
0.10
-3.61
-6.50
-8.65
-10.50
-12.58
-15.33
-18.89
-23.04
-27.29
-30.96
-33.40
-34.20
-33.25
-30.74
-27.03
-22.47
-17.29
-11.65
-5.70
0.24
5.66
9.95
12.68
13.74
13.54
12.83
12.40
12.74
13.83
15.18
16.16
16.29
15.51
14.20
12.86
11.87
11.28
10.74
9.79
8.13
5.82
3.21
0.76
-1.18
-2.63
-3.88
-5.34
-7.35
-10.00
-13.19
-16.69
-20.28
-23.76
-26.88
-29.31
-30.59
-30.25
-27.98
-23.79
-18.08
-11.57
-5.10
0.65
5.27
8.71
11.14
12.77
13.75
14.10
13.81
13.03
12.07
11.30
10.99
11.14
11.41
11.36
10.59
9.03
6.90
4.56
2.26
-0.00
-2.49
-5.59
-9.56
-14.36
-19.63
-24.83
-29.42
-33.11
-36.02
-38.61
-41.48
-45.10
-49.53
-54.26
-58.48
-61.29
-62.13
-60.97
-58.23
-54.63
-50.81
-47.26
-44.37
-42.52
-42.03
-42.95
-44.72
-46.07
-45.36
-41.32
-33.82
-24.14
-14.56
-7.40
-3.94
-4.01
-6.27
-9.10
-11.49
-13.39
-15.38
-17.90
-20.74
-23.00
-23.63
-22.16
-19.23
-16.44
-15.75
-18.67
-25.58
-35.60
-46.86
-57.09
-64.43
-67.70
-66.56
-61.37
-52.84
-41.90
-29.56
-16.84
-4.85
5.44
13.38
18.78
22.05
23.96
25.38
27.05
29.30
32.06
34.99
37.65
39.65
40.78
40.99
40.40
39.16
37.54
35.86
34.58
34.25
35.15
37.15
39.54
41.14
40.74
37.60
31.67
23.59
14.39
5.07
-3.56
-10.91
-16.40
-19.41
-19.40
-16.14
-9.94
-1.67
7.42
16.11
23.47
29.06
32.90
35.36
36.93
38.05
39.00
39.85
40.46
40.61
40.15
39.09
37.57
35.86
34.16
32.54
30.94
29.16
27.04
24.46
21.44
18.09
14.64
11.33
8.32
5.65
3.12
0.38
-2.93
-6.94
-11.37
-15.58
-18.74
-20.09
-19.21
-16.16
-11.41
-5.67
0.34
6.03
11.02
15.16
18.43
20.93
22.76
24.04
24.90
25.46
25.84
26.10
26.35
26.59
26.81
26.98
27.02
26.81
26.20
25.06
23.27
20.86
17.91
14.58
11.03
7.36
3.61
-0.21
-4.12
-8.12
-12.22
-16.36
-20.38
-23.91
-26.44
-27.41
-26.42
-23.32
-18.37
-12.10
-5.10
2.07
8.99
15.34
20.79
25.02
27.78
29.04
29.04
28.19
26.97
25.74
24.67
23.75
22.93
22.18
21.57
21.16
20.94
20.78
20.48
19.89
18.96
17.75
16.40
15.00
13.56
12.01
10.17
7.90
5.06
1.63
-2.30
-6.48
-10.50
-13.80
-15.79
-16.00
-14.24
-10.66
-5.66
0.22
6.41
12.45
18.00
22.78
26.59
29.36
31.09
31.99
32.28
32.24
31.97
31.48
30.67
29.49
28.03
26.47
25.04
23.82
22.75
21.55
19.93
17.72
15.04
12.13
9.31
6.73
4.31
1.82
-0.91
-3.90
-6.96
-9.84
-12.44
-14.90
-17.53
-20.55
-23.85
-26.89
-28.83
-28.91
-26.71
-22.38
-16.55
-9.99
-3.39
2.94
8.92
14.58
19.84
24.46
28.13
30.67
32.16
32.96
33.54
34.25
35.17
36.10
36.70
36.68
35.94
34.61
32.90
31.07
29.22
27.36
25.38
23.18
20.71
18.00
15.14
12.19
9.19
6.12
2.95
-0.28
-3.41
-6.10
-8.09
-9.24
-9.79
-10.34
-11.60
-14.06
-17.63
-21.61
-25.03
-26.94
-26.82
-24.68
-20.93
-16.15
-10.98
-6.01
-1.74
1.50
3.67
5.22
6.84
9.23
12.74
17.18
21.79
25.73
28.32
29.33
28.99
27.88
26.64
25.89
25.74
26.16
26.87
27.65
28.54
29.82
31.81
34.63
37.80
40.53
42.09
42.26
41.53
40.93
41.34
42.98
45.14
46.63
46.44
44.33
41.04
37.83
35.73
35.00
34.79
33.75
30.84
25.93
20.03
14.88
12.11
12.58
15.87
20.76
25.90
30.51
34.63
38.85
43.74
49.40
55.12
59.76
62.12
61.50
57.94
52.23
45.61
39.51
34.88
32.15
31.08
31.03
31.23
31.07
30.18
28.40
25.50
21.12
14.93
6.92
-2.34
-11.74
-19.94
-25.85
-29.00
-29.70
-28.78
-27.23
-25.73
-24.50
-23.31
-21.79
-19.73
-17.27
-14.84
-12.94
-11.80
-11.27
-10.83
-9.77
-7.49
-3.73
1.32
7.12
13.06
18.64
23.61
27.94
31.70
34.89
37.43
39.25
40.29
40.63
40.30
39.24
37.19
33.83
29.00
22.88
16.07
9.40
3.76
-0.19
-2.11
-1.99
-0.16
2.88
6.43
9.78
12.23
13.32
12.90
11.14
8.50
5.53
2.71
0.31
-1.72
-3.74
-6.36
-10.42
-16.84
-26.36
-39.32
-55.42
-73.61
-92.18
-109.07
-122.31
-130.45
-132.77
-129.39
-121.14
-109.38
-95.78
-82.08
-69.76
-59.79
-52.42
-47.18
-43.04
-38.73
-33.11
-25.39
-15.33
-3.20
10.34
24.44
38.27
51.21
62.84
72.96
81.48
88.41
93.77
97.73
100.54
102.41
103.38
103.21
101.45
97.59
91.38
82.92
72.82
62.00
51.50
42.28
35.08
30.34
28.07
27.92
29.15
30.86
32.18
32.38
31.12
28.34
24.29
19.39
14.21
9.39
5.58
3.16
2.19
2.37
3.14
3.87
4.06
3.41
1.84
-0.58
-3.61
-6.86
-9.90
-12.32
-14.02
-15.28
-16.68
-19.03
-22.90
-28.43
-35.25
-42.53
-49.31
-54.73
-58.13
-59.23
-57.96
-54.38
-48.62
-40.78
-31.09
-19.98
-8.21
3.04
12.34
18.32
20.14
17.77
12.09
4.62
-2.92
-9.26
-13.85
-16.88
-18.98
-20.77
-22.61
-24.47
-26.11
-27.34
-28.26
-29.31
-31.17
-34.57
-40.02
-47.65
-56.99
-67.09
-76.68
-84.54
-89.84
-92.36
-92.48
-90.95
-88.61
-86.14
-84.04
-82.66
-82.28
-83.10
-85.13
-88.05
-91.26
-94.00
-95.68
-96.11
-95.59
-94.69
-93.88
-93.20
-92.21
-90.27
-86.99
-82.68
-78.32
-75.15
-74.02
-74.79
-76.42
-77.49
-77.11
-75.30
-72.97
-71.19
-70.41
-70.15
-69.26
-66.63
-61.91
-55.73
-49.31
-43.86
-40.06
-37.79
-36.45
-35.21
-33.51
-31.14
-28.32
-25.50
-23.22
-21.77
-21.07
-20.73
-20.29
-19.50
-18.59
-18.05
-18.45
-19.88
-21.88
-23.59
-24.18
-23.26
-21.09
-18.35
-15.77
-13.71
-12.03
-10.33
-8.17
-5.39
-2.00
1.87
6.13
10.72
15.54
20.28
24.38
27.25
28.47
28.09
26.59
24.76
23.41
23.09
23.98
25.88
28.45
31.38
34.55
37.92
41.55
45.32
48.86
51.48
52.42
51.14
47.49
41.95
35.52
29.37
24.51
21.33
19.51
18.10
15.88
11.91
5.99
-1.21
-8.39
-14.13
-17.64
-19.07
-19.42
-19.99
-21.61
-24.16
-26.73
-28.30
-28.44
-27.69
-27.24
-28.07
-30.30
-32.95
-34.49
-33.81
-30.84
-26.68
-22.99
-21.09
-21.37
-23.19
-25.34
-26.69
-26.69
-25.35
-23.05
-20.18
-16.92
-13.31
-9.44
-5.55
-2.11
0.36
1.50
1.29
0.04
-1.68
-3.33
-4.58
-5.39
-5.91
-6.35
-6.83
-7.22
-7.30
-6.81
-5.62
-3.81
-1.62
0.72
3.10
5.51
8.01
10.52
12.76
14.27
14.61
13.48
10.96
7.35
3.08
-1.48
-6.18
-10.99
-15.87
-20.67
-24.93
-28.05
-29.44
-28.78
-26.15
-22.00
-16.99
-11.75
-6.70
-1.99
2.41
6.56
10.43
13.89
16.81
19.11
20.77
21.84
22.31
22.20
21.60
20.69
19.80
19.26
19.33
20.18
21.81
24.16
27.12
30.51
34.00
37.13
39.47
40.59
40.21
38.08
33.88
27.17
17.52
4.85
-10.26
-26.69
-42.91
-57.68
-70.32
-80.85
-89.61
-96.87
-102.53
-106.42
-108.33
-108.30
-106.64
-103.64
-99.45
-94.21
-88.21
-82.21
-77.14
-73.54
-71.05
-68.26
-63.28
-54.80
-42.90
-29.39
-16.92
-7.82
-2.98
-1.46
-1.25
-0.38
2.10
5.48
8.26
9.17
8.10
6.34
5.83
8.01
13.10
19.78
26.20
31.11
34.54
37.67
41.97
47.97
54.91
60.81
63.73
62.87
59.08
54.44
51.12
50.21
51.35
52.85
52.83
50.15
44.92
38.26
31.71
26.49
23.29
22.14
22.85
25.13
28.57
32.68
36.78
40.13
42.26
43.09
42.94
42.40
42.06
42.37
43.41
44.90
46.23
46.56
45.10
41.22
34.62
25.41
14.06
1.25
-12.04
-24.71
-35.56
-43.64
-48.42
-50.00
-48.93
-45.87
-41.21
-34.94
-26.94
-17.35
-6.94
3.00
11.07
16.32
18.66
18.74
17.71
16.77
17.04
19.54
25.24
34.81
48.18
64.22
80.71
94.92
104.57
108.61
107.48
102.73
96.11
88.80
81.14
72.81
63.47
53.12
42.17
31.22
20.67
10.59
0.76
-9.00
-18.65
-27.77
-35.68
-41.76
-45.68
-47.62
-48.16
-48.05
-47.91
-47.99
-48.13
-47.92
-46.95
-45.15
-42.85
-40.74
-39.56
-39.78
-41.38
-43.77
-45.99
-47.06
-46.34
-43.75
-39.78
-35.19
-30.67
-26.60
-22.96
-19.50
-15.95
-12.29
-8.78
-5.83
-3.79
-2.78
-2.52
-2.57
-2.42
-1.81
-0.76
0.51
1.81
3.17
4.84
7.21
10.41
14.11
17.48
19.51
19.39
16.82
12.10
5.80
-1.41
-9.01
-16.55
-23.59
-29.59
-34.02
-36.65
-37.77
-38.10
-38.50
-39.48
-40.92
-42.10
-42.11
-40.37
-36.97
-32.58
-28.12
-24.30
-21.33
-18.91
-16.55
-13.83
-10.73
-7.45
-4.14
-0.69
3.38
8.72
15.65
23.93
32.47
39.87
44.91
47.15
47.13
46.10
45.41
45.88
47.41
49.18
50.13
49.54
47.21
43.50
38.88
33.75
28.21
22.26
15.96
9.57
3.47
-2.02
-6.84
-11.12
-15.15
-19.14
-23.06
-26.68
-29.64
-31.67
-32.72
-32.85
-32.34
-31.51
-30.68
-30.08
-29.86
-29.99
-30.28
-30.39
-29.97
-28.86
-27.14
-25.18
-23.38
-21.93
-20.47
-18.19
-14.10
-7.70
0.60
9.35
16.50
20.17
19.38
14.42
6.69
-1.95
-9.71
-15.36
-18.24
-18.10
-14.97
-9.22
-1.71
6.08
12.24
14.89
12.89
6.39
-2.99
-12.58
-19.50
-21.61
-18.19
-9.96
1.37
13.82
25.86
36.55
45.49
52.51
57.55
60.52
61.38
59.99
56.23
50.09
41.78
31.95
21.53
11.55
2.62
-5.26
-12.54
-19.67
-26.66
-32.90
-37.56
-40.11
-40.80
-40.62
-40.74
-41.93
-44.23
-47.16
-50.13
-52.76
-54.80
-55.92
-55.32
-51.80
-44.24
-32.27
-16.75
0.28
16.27
28.92
36.94
40.30
39.93
37.41
34.52
33.04
34.58
40.34
50.70
65.06
81.75
98.45
112.90
123.61
130.39
134.26
136.97
140.17
144.72
150.31
155.61
158.80
158.33
153.44
144.35
132.11
118.10
103.46
88.83
74.32
59.75
44.93
29.87
14.81
0.15
-13.69
-26.21
-36.82
-44.82
-49.50
-50.46
-47.84
-42.45
-35.62
-28.84
-23.30
-19.60
-17.79
-17.64
-18.90
-21.58
-25.81
-31.66
-38.90
-46.87
-54.68
-61.45
-66.60
-70.01
-71.94
-72.90
-73.33
-73.40
-72.93
-71.42
-68.37
-63.55
-57.27
-50.40
-44.10
-39.39
-36.75
-35.90
-35.92
-35.59
-33.87
-30.13
-24.28
-16.75
-8.37
-0.32
5.99
9.21
8.41
3.54
-4.41
-13.54
-21.62
-26.75
-27.97
-25.45
-20.24
-13.75
-7.20
-1.33
3.62
7.76
11.33
14.50
17.30
19.63
21.34
22.27
22.28
21.34
19.54
17.16
14.58
12.22
10.49
9.66
9.82
10.85
12.44
14.06
15.10
15.04
13.69
11.33
8.62
6.45
5.51
6.08
7.88
10.20
12.18
13.19
12.97
11.72
9.86
7.86
6.04
4.48
3.12
1.89
0.80
-0.02
-0.55
-0.87
-1.19
-1.77
-2.71
-3.87
-5.02
-5.95
-6.86
-8.10
-10.05
-12.77
-15.84
-18.59
-20.43
-21.24
-21.50
-21.95
-23.09
-24.81
-26.41
-26.88
-25.53
-22.26
-17.86
-13.36
-9.68
-7.13
-5.38
-3.74
-1.74
0.68
2.87
4.10
3.93
2.65
1.21
0.80
2.15
5.23
9.00
12.03
13.20
12.22
9.79
7.19
5.54
5.29
5.92
6.39
5.74
3.61
0.46
-2.84
-5.50
-7.18
-8.19
-9.12
-10.46
-12.35
-14.50
-16.50
-18.03
-19.03
-19.68
-20.20
-20.69
-21.10
-21.29
-21.13
-20.60
-19.75
-18.68
-17.48
-16.23
-15.02
-13.99
-13.28
-13.00
-13.14
-13.62
-14.41
-15.55
-17.17
-19.43
-22.37
-25.75
-29.01
-31.33
-31.72
-29.32
-23.65
-14.79
-3.47
9.15
21.67
32.74
41.30
46.65
48.48
46.97
42.72
36.77
30.43
24.88
20.83
18.27
16.65
15.19
13.39
11.26
9.33
8.23
8.31
9.48
11.25
13.06
14.51
15.47
16.01
16.26
16.29
16.15
15.96
16.00
16.72
18.49
21.45
25.20
28.92
31.61
32.46
31.21
28.23
24.30
20.28
16.77
13.94
11.64
9.61
7.70
5.86
4.07
2.24
0.11
-2.60
-6.05
-10.17
-14.75
-19.52
-24.27
-28.89
-33.31
-37.43
-41.14
-44.35
-47.04
-49.29
-51.15
-52.59
-53.49
-53.64
-52.92
-51.31
-48.92
-45.90
-42.23
-37.76
-32.31
-25.82
-18.46
-10.69
-3.02
4.15
10.63
16.45
21.63
26.10
29.63
32.01
33.18
33.40
33.13
32.82
32.62
32.38
31.71
30.34
28.30
26.02
24.11
23.00
22.72
22.75
22.33
20.75
17.67
13.26
8.05
2.72
-2.31
-6.89
-11.10
-15.09
-18.91
-22.41
-25.34
-27.45
-28.65
-29.02
-28.76
-28.09
-27.15
-25.97
-24.44
-22.41
-19.94
-17.26
-14.79
-13.07
-12.40
-12.77
-13.81
-15.06
-16.33
-17.77
-19.69
-22.19
-24.84
-26.78
-27.28
-26.32
-25.17
-26.08
-31.51
-43.11
-60.81
-82.72
-105.70
-126.31
-142.07
-152.16
-157.50
-160.13
-162.05
-164.22
-166.14
-166.17
-162.75
-155.39
-145.14
-134.09
-124.14
-115.83
-107.99
-98.34
-84.67
-65.91
-42.33
-15.14
14.29
44.76
75.11
103.78
128.43
146.45
155.70
155.60
147.52
134.42
119.87
106.94
97.31
91.16
87.46
84.60
80.99
75.64
68.25
59.32
49.77
40.51
31.99
23.93
15.41
5.26
-7.22
-21.82
-37.21
-51.29
-61.80
-67.16
-66.94
-62.19
-55.06
-48.05
-43.22
-41.30
-41.53
-41.81
-39.47
-32.38
-19.64
-1.93
18.89
40.38
60.44
77.82
92.30
104.68
116.41
129.12
143.99
161.32
180.16
198.61
214.35
225.44
230.96
231.13
226.89
219.17
208.45
194.78
178.25
159.48
139.81
120.99
104.57
91.24
80.72
71.99
63.88
55.54
46.71
37.56
28.45
19.59
11.02
2.73
-5.20
-12.48
-18.72
-23.53
-26.73
-28.48
-29.17
-29.32
-29.37
-29.59
-29.97
-30.30
-30.26
-29.62
-28.33
-26.52
-24.42
-22.24
-20.04
-17.68
-14.93
-11.59
-7.69
-3.50
0.49
3.77
6.03
7.27
7.80
8.04
8.38
8.97
9.77
10.56
11.16
11.51
11.68
11.85
12.11
12.46
12.83
13.18
13.62
14.41
15.81
17.92
20.51
23.02
24.84
25.59
25.31
24.58
24.11
24.46
25.60
26.92
27.45
26.28
23.06
18.09
12.19
6.41
1.55
-2.04
-4.41
-5.88
-6.71
-6.86
-6.06
-3.90
-0.08
5.39
12.13
19.36
26.23
31.88
35.70
37.46
37.30
35.63
33.05
30.10
27.13
24.36
21.92
19.99
18.96
19.28
21.29
24.96
29.80
34.94
39.40
42.38
43.43
42.50
40.05
37.04
34.84
34.68
36.92
40.31
41.90
37.87
25.11
2.66
-27.50
-60.98
-92.64
-118.21
-135.46
-144.15
-145.23
-139.94
-129.24
-114.03
-95.50
-75.41
-55.84
-38.64
-24.81
-14.26
-6.08
0.86
7.31
13.36
18.64
22.74
25.57
27.33
28.24
28.13
26.38
22.23
15.32
5.93
-4.99
-16.47
-27.95
-39.62
-52.16
-66.19
-81.93
-99.08
-117.26
-136.23
-155.98
-176.52
-197.27
-217.02
-234.20
-247.55
-256.65
-262.05
-264.52
-264.73
-262.76
-258.35
-251.35
-241.90
-230.36
-216.88
-201.31
-183.65
-164.35
-144.45
-125.12
-106.85
-89.03
-70.46
-50.56
-30.56
-13.44
-2.60
0.02
-4.64
-13.05
-20.85
-24.87
-24.59
-21.62
-18.23
-15.84
-14.38
-12.72
-9.96
-6.20
-2.73
-1.18
-2.46
-6.17
-10.80
-14.57
-16.42
-16.38
-15.60
-15.49
-16.95
-19.89
-23.29
-25.66
-25.64
-22.38
-15.86
-6.61
4.50
16.46
28.45
39.82
50.15
59.31
67.29
74.15
79.99
84.92
89.01
92.43
95.37
98.02
100.53
102.89
104.94
106.40
107.02
106.69
105.46
103.63
101.51
99.29
96.95
94.23
90.85
86.61
81.57
76.06
70.52
65.27
60.41
55.74
50.94
45.78
40.19
34.33
28.42
22.56
16.71
10.82
5.09
0.11
-3.09
-3.42
-0.11
6.91
16.91
28.60
40.55
51.66
61.32
69.49
76.38
82.33
87.60
92.31
96.52
100.24
103.48
106.24
108.52
110.30
111.56
112.38
112.93
113.46
114.13
114.85
115.20
114.51
112.12
107.79
101.84
95.14
88.75
83.55
79.85
77.37
75.39
73.19
70.38
67.19
64.41
63.13
64.29
68.33
75.11
83.94
93.73
103.05
110.37
114.15
113.28
107.37
97.08
83.84
69.46
55.49
42.60
30.50
17.91
2.77
-17.65
-46.03
-83.79
-129.33
-177.05
-217.77
-241.22
-239.73
-211.25
-160.22
-95.77
-28.11
34.80
88.86
133.15
168.01
193.23
207.66
210.13
200.77
181.67
156.39
128.75
101.72
77.08
55.71
38.43
26.48
21.08
22.70
30.05
39.86
47.58
48.86
41.17
24.71
2.18
-22.41
-45.34
-64.30
-78.80
-89.57
-97.71
-103.95
-108.47
-111.09
-111.88
-111.16
-109.37
-106.77
-103.15
-98.15
-91.56
-83.68
-75.40
-67.85
-61.81
-57.39
-53.99
-50.64
-46.52
-41.33
-35.30
-29.01
-22.94
-17.25
-11.69
-5.81
0.69
7.81
15.17
22.19
28.40
33.60
37.95
41.80
45.45
49.06
52.51
55.49
57.59
58.33
57.31
54.21
48.95
41.82
33.40
24.44
15.54
6.84
-2.02
-11.70
-22.63
-34.70
-47.03
-58.32
-67.29
-73.10
-75.52
-74.79
-71.38
-65.78
-58.59
-50.56
-42.61
-35.57
-30.00
-25.94
-22.96
-20.39
-17.70
-14.70
-11.52
-8.46
-5.73
-3.35
-1.19
0.97
3.19
5.31
6.97
7.76
7.39
5.85
3.51
1.00
-0.97
-1.88
-1.56
-0.16
1.94
4.29
6.57
8.60
10.29
11.53
12.16
11.98
10.89
9.00
6.60
4.16
2.01
0.32
-1.05
-2.36
-3.81
-5.42
-6.99
-8.16
-8.77
-9.03
-9.48
-10.76
-13.22
-16.64
-20.11
-22.32
-22.12
-19.07
-13.68
-7.26
-1.34
2.76
4.46
3.91
1.74
-1.31
-4.63
-7.82
-10.57
-12.58
-13.63
-13.62
-12.77
-11.59
-10.81
-11.09
-12.73
-15.65
-19.38
-23.18
-26.30
-28.15
-28.52
-27.58
-25.79
-23.81
-22.19
-21.17
-20.55
-19.87
-18.64
-16.67
-14.12
-11.40
-8.97
-7.01
-5.42
-3.91
-2.28
-0.53
1.12
2.41
3.23
3.66
3.91
4.16
4.43
4.51
4.11
3.04
1.34
-0.68
-2.55
-3.89
-4.49
-4.51
-4.32
-4.43
-5.23
-6.81
-9.00
-11.47
-13.87
-16.07
-18.07
-19.93
-21.55
-22.59
-22.58
-21.16
-18.35
-14.59
-10.57
-6.91
-3.78
-0.89
2.36
6.44
11.37
16.70
21.68
25.68
28.41
30.13
31.42
32.92
35.04
37.79
40.77
43.40
45.17
45.85
45.53
44.53
43.15
41.50
39.54
37.20
34.54
31.81
29.33
27.23
25.30
23.05
19.90
15.46
9.70
2.89
-4.64
-12.59
-20.76
-28.95
-36.89
-44.14
-50.29
-55.03
-58.30
-60.31
-61.37
-61.81
-61.88
-61.74
-61.47
-61.23
-61.21
-61.66
-62.81
-64.77
-67.36
-70.10
-72.26
-73.07
-72.02
-68.96
-64.09
-57.88
-50.76
-42.99
-34.61
-25.69
-16.40
-7.19
1.32
8.52
14.06
17.90
20.22
21.06
20.47
18.60
15.90
13.30
11.92
12.60
15.37
19.24
22.70
24.51
24.33
22.90
21.66
21.84
23.94
27.44
31.41
35.10
38.51
42.34
47.56
54.68
63.42
72.36
79.81
84.42
85.95
85.42
84.52
84.68
86.32
88.31
88.67
85.56
78.17
67.05
53.66
39.48
25.39
11.22
-3.63
-19.63
-36.54
-53.49
-69.38
-83.36
-94.99
-104.23
-110.99
-114.93
-115.51
-112.33
-105.49
-95.80
-84.51
-73.09
-62.65
-53.79
-46.53
-40.60
-35.57
-31.05
-26.67
-22.14
-17.27
-11.97
-6.40
-0.89
4.12
8.21
11.22
13.27
14.74
16.10
17.67
19.49
21.29
22.65
23.25
