1553538551.00
64.000000
-0.00
-0.00
-0.00
-0.00
-0.00
-0.00
-0.00
-0.00
-0.00
-0.00
0.00
0.01
0.01
-0.00
-0.03
-0.05
-0.05
0.00
0.13
0.36
0.66
1.01
1.37
1.72
2.06
2.40
2.79
3.24
3.80
4.42
5.06
5.66
6.20
6.68
7.15
7.68
8.31
9.14
10.09
11.04
11.88
12.56
13.14
13.76
14.65
15.96
17.91
20.32
22.90
25.38
27.58
29.57
31.68
34.32
37.81
42.54
48.15
54.10
59.83
64.97
69.58
74.14
79.34
85.71
93.76
103.00
112.62
121.73
129.77
136.75
143.30
150.75
157.77
166.64
177.95
191.79
206.97
220.57
228.25
225.36
208.53
176.87
132.76
80.05
23.07
-34.94
-92.44
-149.16
-205.23
-260.37
-313.74
-363.87
-409.83
-450.91
-486.50
-515.74
-537.23
-549.22
-549.96
-538.37
-514.21
-478.67
-433.88
-382.45
-327.02
-269.84
-212.63
-156.66
-102.95
-52.37
-5.90
35.58
71.43
101.35
125.50
144.38
158.69
169.15
176.37
180.75
182.57
182.07
179.51
175.23
169.65
163.18
156.15
148.81
141.30
133.69
126.02
118.33
110.69
103.16
95.80
88.68
81.83
75.25
68.95
62.95
57.25
51.86
46.78
42.03
37.59
33.45
29.61
26.07
22.81
19.83
17.11
14.67
12.48
10.54
8.83
7.35
6.07
4.97
4.05
3.27
2.62
2.09
1.65
1.30
1.01
0.79
0.62
0.49
0.40
0.33
0.29
0.27
0.27
0.27
0.30
0.33
0.37
0.41
0.45
0.50
0.55
0.60
0.65
0.71
0.76
0.82
0.89
0.96
1.04
1.13
1.22
1.33
1.45
1.59
1.74
1.91
2.11
2.32
2.56
2.83
3.12
3.44
3.80
4.19
4.61
5.07
5.57
6.12
6.70
7.32
8.00
8.71
9.47
10.26
11.10
11.99
12.94
13.96
15.05
16.18
17.32
18.44
19.52
20.56
21.60
22.61
23.57
24.36
24.80
24.69
23.82
22.05
19.33
15.73
11.32
6.31
0.88
-4.81
-10.62
-16.40
-21.94
-26.95
-31.12
-34.17
-35.94
-36.51
-36.21
-35.50
-34.88
-34.65
-34.82
-35.11
-35.14
-34.61
-33.58
-32.47
-31.97
-32.71
-34.94
-38.32
-42.02
-45.12
-46.96
-47.53
-47.60
-48.42
-51.18
-56.41
-63.71
-71.88
-79.61
-85.96
-90.64
-94.34
-98.27
-103.73
-111.88
-123.59
-139.12
-157.47
-175.77
-189.06
-192.06
-181.36
-157.24
-124.36
-90.26
-62.60
-46.44
-42.84
-49.06
-61.09
-75.60
-90.80
-106.01
-120.53
-132.73
-139.97
-143.04
-142.01
-137.92
-132.43
-127.18
-122.97
-119.43
-115.38
-109.49
-101.12
-90.17
-77.66
-65.10
-53.67
-43.66
-34.28
-24.08
-11.68
3.54
21.50
41.05
60.64
79.07
96.01
112.10
128.51
146.22
165.41
185.47
204.98
222.26
236.20
246.71
254.74
262.10
271.06
283.69
301.28
323.48
347.83
369.76
383.58
384.19
368.98
339.01
299.03
255.64
215.04
180.98
154.20
132.97
114.96
98.79
84.58
73.50
66.68
64.45
66.02
69.88
74.21
77.30
77.86
74.80
67.78
57.27
44.24
30.11
16.12
3.44
-7.05
-14.58
-18.73
-19.65
-18.15
-15.50
-12.76
-10.46
-8.27
-5.79
-3.27
-1.97
-3.54
-9.27
-19.03
-31.26
-43.71
-54.43
-62.57
-68.12
-71.43
-72.63
-71.62
-68.29
-62.82
-55.98
-48.75
-42.09
-36.76
-33.04
-31.11
-30.97
-32.67
-36.23
-41.54
-48.24
-55.70
-62.99
-68.98
-72.54
-72.88
-69.92
-64.47
-57.97
-51.99
-47.53
-44.67
-42.59
-40.08
-36.22
-30.83
-24.39
-17.77
-11.67
-6.44
-2.06
1.49
4.07
5.34
5.08
3.34
0.50
-2.83
-5.91
-8.15
-9.25
-9.23
-8.36
-6.86
-4.97
-2.89
-0.88
0.70
1.47
1.07
-0.60
-3.27
-6.07
-7.99
-8.42
-7.29
-5.09
-2.64
-0.88
-0.63
-2.53
-6.06
-10.60
-15.53
-20.54
-25.38
-29.75
-33.33
-35.99
-37.86
-37.47
-33.71
-26.43
-16.64
-5.79
5.07
15.70
26.40
37.28
50.38
66.40
83.86
99.80
111.70
119.00
123.15
126.25
129.65
136.72
149.33
167.29
189.12
213.50
240.20
269.44
300.87
311.78
286.53
222.58
132.62
35.78
-52.81
-125.67
-181.20
-221.12
-248.75
-264.41
-267.66
-261.17
-248.47
-232.54
-214.98
-195.80
-173.95
-148.02
-114.33
-70.80
-18.74
33.46
75.50
98.13
96.57
72.35
32.72
-10.46
-46.40
-69.19
-78.62
-77.95
-71.23
-61.21
-49.11
-35.72
-21.74
-9.01
-0.13
2.82
-0.38
-8.12
-17.62
-26.22
-32.35
-35.60
-36.58
-36.41
-35.79
-34.44
-31.40
-25.71
-17.26
-7.40
1.43
6.59
6.34
0.63
-8.94
-19.91
-29.98
-37.77
-42.96
-45.93
-47.15
-46.80
-44.72
-40.57
-34.20
-25.86
-16.15
-5.78
4.65
14.82
24.54
33.50
41.00
46.06
47.79
45.90
40.97
34.34
27.59
22.04
18.56
17.75
20.01
25.53
33.68
42.62
49.50
51.37
46.63
35.98
22.20
8.81
-1.54
-8.21
-12.34
-15.78
-19.79
-24.45
-28.91
-32.20
-33.98
-34.63
-34.85
-35.17
-35.73
-36.34
-36.77
-36.77
-36.10
-34.51
-31.76
-27.91
-23.45
-19.26
-16.33
-15.43
-16.74
-19.79
-23.70
-27.47
-30.35
-31.97
-32.42
-32.13
-31.65
-31.49
-31.79
-32.17
-31.69
-28.93
-22.20
-9.98
8.37
31.91
57.70
80.93
96.10
98.73
87.14
63.31
32.27
0.18
-27.98
-50.01
-66.55
-79.75
-91.31
-101.14
-107.36
-107.48
-100.12
-86.10
-68.27
-50.40
-35.52
-24.84
-17.44
-11.14
-3.64
6.39
18.85
32.49
45.68
57.15
66.37
73.45
78.68
82.28
84.26
84.76
84.40
84.36
85.93
89.69
94.80
99.00
99.55
94.59
84.54
72.26
61.98
57.36
59.77
67.77
78.05
87.06
92.61
94.46
93.80
92.01
89.67
86.39
81.44
74.56
66.32
57.70
49.61
42.31
35.35
27.89
19.32
9.64
-0.48
-10.08
-18.56
-25.18
-28.91
-28.52
-23.31
-13.91
-2.80
5.95
7.59
-2.57
-26.55
-62.67
-106.06
-150.48
-190.29
-222.00
-244.62
-259.27
-269.26
-276.98
-282.70
-285.17
-283.05
-276.27
-266.16
-254.90
-244.34
-236.77
-232.11
-227.90
-220.67
-207.86
-188.82
-164.55
-136.90
-97.29
-44.64
14.86
71.11
116.36
148.04
167.19
175.92
176.24
170.02
157.68
140.84
122.58
106.28
93.98
85.67
79.85
74.67
68.96
61.65
53.42
46.86
45.27
51.12
65.04
85.47
108.92
130.55
144.56
146.78
136.52
116.58
92.08
68.46
49.67
37.20
30.33
27.05
24.72
22.67
21.30
21.02
21.35
20.66
16.79
8.10
-5.72
-23.26
-41.54
-57.27
-67.88
-72.25
-71.00
-66.28
-61.34
-59.87
-65.12
-78.65
-99.73
-124.90
-148.62
-164.79
-168.54
-157.51
-132.33
-95.96
-52.28
-4.88
43.62
91.73
138.17
180.76
215.72
238.09
243.56
231.11
204.66
172.65
145.14
129.35
126.24
129.83
130.24
118.85
92.74
55.98
17.32
-14.47
-34.77
-44.36
-47.58
-48.91
-50.23
-50.31
-46.60
-37.87
-25.96
-15.45
-11.48
-17.06
-31.54
-50.94
-69.91
-84.07
-91.61
-93.45
-92.17
-90.51
-89.94
-90.20
-89.60
-85.84
-76.95
-62.09
-41.83
-17.87
7.37
31.45
52.41
69.04
80.93
88.23
91.41
90.93
87.08
80.12
70.61
59.77
49.56
42.34
39.96
42.73
48.88
55.07
57.78
55.06
47.60
38.54
32.02
31.30
37.53
49.59
64.88
80.10
91.60
95.46
87.90
66.67
33.01
-7.11
-43.92
-67.20
-70.64
-55.16
-28.68
-2.72
12.67
13.13
0.65
-18.61
-37.97
-53.21
-63.10
-67.93
-67.59
-60.77
-45.86
-23.04
4.38
30.16
47.38
51.28
41.24
20.84
-3.96
-27.31
-45.22
-55.74
-57.97
-51.24
-35.03
-10.14
19.85
48.28
66.96
69.13
52.45
20.24
-19.80
-58.43
-88.37
-106.41
-113.38
-112.54
-107.37
-100.05
-91.21
-80.88
-69.40
-58.08
-48.79
-43.02
-40.88
-40.78
-39.90
-35.39
-25.65
-11.05
6.07
22.40
34.85
41.60
42.51
38.86
32.56
25.42
18.71
13.01
8.43
4.90
2.34
0.65
-0.25
-0.61
-0.83
-1.37
-2.66
-4.96
-8.21
-12.10
-16.08
-19.54
-21.98
-23.05
-22.59
-20.62
-17.27
-12.73
-7.31
-1.36
4.65
10.13
14.45
17.08
17.82
16.89
14.99
12.95
11.43
10.61
10.12
9.25
7.42
4.51
0.93
-2.66
-5.69
-7.98
-9.74
-11.45
-13.54
-16.24
-19.47
-22.86
-25.76
-27.41
-27.09
-24.32
-19.21
-12.38
-4.98
1.77
7.05
10.58
12.78
14.28
15.60
16.87
17.99
18.87
19.69
20.90
23.00
26.16
30.05
33.99
37.07
38.57
37.96
35.00
29.69
22.44
14.29
6.87
2.10
1.51
5.39
12.45
20.14
25.53
26.43
22.12
13.45
2.30
-9.22
-19.55
-27.91
-34.20
-38.65
-41.54
-43.08
-43.57
-43.38
-43.08
-43.14
-43.69
-44.41
-44.43
-42.80
-38.90
-32.93
-25.91
-19.42
-14.89
-12.95
-13.15
-14.10
-14.07
-11.86
-7.23
-0.96
5.68
11.51
16.04
19.52
22.64
26.03
29.89
33.92
37.46
39.86
40.67
39.74
37.04
32.70
26.97
20.29
13.32
6.70
0.89
-4.01
-8.25
-12.18
-15.90
-19.13
-21.18
-21.03
-17.92
-11.55
-2.61
7.27
15.83
20.86
21.17
16.99
9.99
2.50
-3.45
-7.01
-8.70
-10.11
-12.84
-17.70
-24.34
-31.52
-37.83
-42.19
-44.28
-44.42
-43.29
-41.70
-40.17
-38.92
-37.57
-35.44
-31.75
-26.08
-18.75
-10.81
-3.75
1.25
3.64
3.89
3.03
2.14
1.89
2.33
2.98
3.23
2.62
0.98
-1.38
-3.99
-6.32
-8.10
-9.38
-10.49
-11.64
-12.66
-13.05
-12.20
-9.94
-6.85
-4.15
-3.27
-4.90
-8.79
-13.70
-17.82
-19.58
-17.97
-12.59
-3.45
8.95
23.54
38.23
50.23
56.88
56.85
51.02
42.35
34.71
31.05
32.31
37.03
42.70
47.16
49.81
51.51
53.92
58.22
64.43
71.27
76.64
78.51
75.68
68.20
57.62
46.21
36.21
29.07
25.13
23.74
23.89
24.67
25.35
25.37
23.95
20.28
13.98
5.61
-3.34
-10.86
-15.38
-16.47
-14.87
-12.16
-9.91
-9.16
-10.14
-12.53
-15.66
-18.91
-21.73
-23.81
-24.96
-25.17
-24.53
-23.19
-21.41
-19.41
-17.53
-16.19
-15.67
-16.11
-17.32
-18.84
-20.18
-21.03
-21.38
-21.47
-21.57
-21.85
-22.24
-22.48
-22.21
-21.13
-19.16
-16.35
-12.98
-9.34
-5.66
-2.09
1.28
4.29
6.68
8.08
8.20
7.00
4.76
2.10
-0.39
-2.28
-3.45
-4.12
-4.62
-5.12
-5.66
-6.08
-6.21
-6.00
-5.60
-5.23
-5.14
-5.45
-6.14
-7.06
-8.04
-8.90
-9.50
-9.71
-9.42
-8.62
-7.46
-6.26
-5.37
-4.98
-4.95
-4.80
-3.85
-1.58
2.10
6.64
11.12
14.64
16.83
18.08
19.30
21.47
25.13
30.17
36.01
41.88
47.14
51.34
54.05
54.77
52.98
48.51
41.87
34.27
27.22
21.85
18.54
16.82
15.73
14.23
11.67
7.79
2.69
-3.24
-9.54
-15.64
-20.93
-24.98
-27.55
-28.69
-28.68
-27.88
-26.57
-25.02
-23.45
-22.02
-20.76
-19.49
-17.94
-15.94
-13.61
-11.49
-10.35
-10.69
-12.50
-15.01
-17.06
-17.56
-16.04
-12.84
-8.75
-4.65
-0.99
2.21
5.02
7.42
9.03
9.49
8.77
7.34
6.13
5.91
6.96
8.77
10.39
10.99
10.15
8.08
5.28
2.24
-0.80
-3.82
-6.83
-9.64
-11.96
-13.42
-13.88
-13.45
-12.53
-11.56
-10.88
-10.63
-10.71
-10.95
-11.24
-11.55
-11.95
-12.49
-13.19
-13.84
-14.15
-13.76
-12.28
-9.42
-5.03
0.73
7.33
13.96
19.80
24.30
27.43
29.63
31.54
33.52
35.51
36.98
37.41
36.58
34.68
32.22
29.77
27.71
26.18
25.13
24.25
23.30
21.98
19.91
16.82
12.66
7.72
2.75
-1.40
-4.24
-5.78
-6.92
-9.32
-14.77
-24.38
-37.85
-53.38
-68.30
-79.96
-86.23
-86.14
-80.08
-69.49
-56.30
-42.52
-29.92
-19.86
-12.96
-8.44
-4.40
1.28
10.23
23.34
40.93
63.16
90.17
118.45
143.45
160.57
166.59
160.70
144.34
120.38
92.42
64.07
38.50
18.67
7.12
5.91
13.42
25.73
36.85
40.04
29.96
4.81
-32.96
-74.52
-109.05
-128.87
-132.08
-122.48
-106.46
-89.56
-74.46
-61.06
-48.14
-35.43
-24.20
-16.00
-11.62
-10.29
-10.17
-9.03
-5.34
1.31
9.95
18.77
26.25
31.58
35.10
37.90
41.02
45.04
49.59
53.69
55.96
55.38
51.45
44.89
37.32
30.54
26.24
25.38
28.00
33.31
40.05
46.08
49.80
50.57
48.13
43.04
36.12
28.25
20.26
12.77
4.97
-3.52
-12.28
-20.98
-28.93
-36.02
-42.82
-50.60
-61.27
-78.72
-106.37
-140.75
-178.65
-216.05
-249.18
-275.05
-291.80
-287.61
-256.97
-201.38
-129.11
-51.73
21.66
86.22
140.84
186.49
223.25
249.59
264.99
270.81
269.50
264.44
258.27
252.50
247.62
240.25
225.68
201.22
167.59
128.12
87.23
48.53
13.31
-13.66
-34.86
-55.13
-78.17
-104.61
-132.59
-159.30
-182.95
-203.02
-220.28
-241.72
-274.16
-321.15
-381.61
-451.60
-526.73
-603.36
-677.44
-716.37
-696.31
-610.12
-473.17
-314.64
-163.16
-38.03
52.78
111.48
146.88
164.39
167.74
159.42
142.47
121.02
99.83
83.18
74.26
75.85
84.79
96.60
107.66
117.28
127.31
140.34
158.13
181.88
212.13
245.23
276.51
302.11
320.61
333.22
343.03
347.23
338.11
312.54
270.14
214.52
151.70
88.26
29.34
-22.03
-64.91
-98.81
-123.27
-139.39
-149.26
-155.58
-160.53
-165.75
-172.13
-179.76
-187.36
-192.56
-193.78
-189.97
-181.29
-168.30
-152.15
-134.12
-115.23
-95.72
-75.33
-54.21
-33.30
-14.36
1.24
12.39
18.99
22.29
24.81
29.70
39.81
57.53
80.45
107.53
137.72
169.56
201.03
229.03
249.79
259.75
256.65
240.07
211.95
175.15
132.95
89.59
49.84
19.21
3.14
5.44
26.01
60.39
99.68
133.11
152.30
153.15
137.07
109.85
79.39
52.97
35.92
30.35
30.53
30.82
25.88
12.86
-8.15
-34.65
-63.74
-92.83
-120.49
-145.85
-167.20
-182.63
-189.15
-186.11
-174.56
-157.41
-138.12
-119.90
-104.53
-91.01
-76.77
-58.04
-32.09
2.10
41.40
81.77
119.08
150.63
176.29
194.09
203.88
205.77
199.96
186.19
164.59
135.66
101.05
64.20
29.61
2.28
-14.32
-17.52
-8.96
7.40
25.56
38.66
40.73
28.12
1.32
-35.68
-77.23
-115.57
-143.63
-158.92
-164.13
-164.81
-165.36
-165.32
-160.37
-142.35
-104.98
-47.90
20.89
87.13
135.40
154.78
142.81
105.26
53.07
-4.05
-56.06
-96.52
-123.37
-137.52
-140.65
-133.88
-118.28
-95.79
-70.12
-46.02
-28.01
-18.41
-16.37
-18.43
-20.21
-18.65
-12.96
-4.67
3.62
9.22
10.71
8.49
4.49
1.13
0.09
1.79
5.32
9.25
12.06
12.88
11.79
9.65
7.65
6.62
6.82
7.90
9.30
10.39
10.80
10.52
9.83
9.17
8.87
9.04
9.63
10.46
11.35
12.15
12.79
13.29
13.74
14.18
14.69
15.27
15.93
16.66
17.47
18.36
19.36
20.49
21.79
23.30
25.06
27.00
29.06
31.12
32.93
34.21
34.61
33.80
31.50
27.51
21.84
14.63
6.25
-2.83
-12.03
-20.69
-28.24
-34.16
-38.13
-40.03
-39.93
-38.10
-34.93
-30.89
-26.47
-22.10
-18.11
-14.75
-12.07
-9.98
-8.26
-6.61
-4.69
-2.07
1.47
6.19
11.95
18.51
25.51
32.60
39.34
45.38
50.49
54.61
57.95
60.56
62.63
64.46
66.37
68.50
71.02
74.00
77.54
81.80
86.44
91.33
96.38
101.58
106.87
112.17
117.49
122.92
128.73
134.56
140.19
145.38
149.69
152.42
152.63
149.08
140.07
128.69
116.10
103.26
90.81
79.00
67.62
56.27
44.54
32.35
20.16
8.08
-3.51
-14.47
-25.09
-36.28
-49.15
-64.57
-82.76
-102.98
-124.47
-146.13
-167.12
-187.26
-206.97
-227.14
-248.85
-273.27
-301.31
-333.50
-368.59
-403.14
-431.80
-448.75
-449.74
-433.90
-404.16
-366.04
-325.72
-287.67
-253.75
-223.70
-196.44
-171.22
-148.05
-127.31
-109.02
-92.60
-77.12
-61.85
-46.72
-32.37
-19.87
-10.18
-3.61
0.25
2.30
3.50
4.44
5.03
4.72
2.84
-0.83
-5.65
-10.16
-12.47
-10.93
-4.81
5.44
18.37
32.16
45.27
56.90
67.04
76.04
84.27
91.79
98.32
103.54
107.32
109.72
111.02
111.47
111.24
110.43
109.13
107.44
105.52
103.50
101.33
98.92
96.11
92.76
88.87
84.50
79.74
74.64
69.12
63.07
56.46
49.38
42.08
34.89
28.05
21.62
15.42
9.11
2.33
-5.22
-13.61
-22.79
-32.48
-42.10
-50.77
-57.31
-60.51
-59.45
-53.83
-44.08
-31.32
-16.86
-2.03
12.21
25.37
37.28
47.88
57.15
65.01
71.39
76.29
79.80
82.14
83.62
84.50
85.02
85.30
85.36
85.16
84.67
83.92
82.93
81.75
80.38
78.68
76.54
73.76
70.30
66.20
61.68
56.93
52.14
47.34
42.52
37.60
32.48
27.08
21.39
15.51
9.54
3.65
-2.09
-7.71
-13.38
-19.47
-26.36
-34.33
-43.40
-53.19
-62.83
-71.05
-76.44
-77.75
-74.32
-66.22
-54.36
-40.12
-25.02
-10.33
3.19
15.18
25.55
34.23
41.17
46.30
49.71
51.70
52.73
53.29
53.75
54.29
54.85
55.29
55.50
55.35
54.82
53.80
52.20
49.83
46.62
42.57
37.85
32.76
27.49
22.13
16.54
10.51
3.88
-3.26
-10.59
-17.78
-24.50
-30.73
-36.62
-42.56
-48.89
-55.73
-62.85
-69.65
-75.25
-78.60
-78.83
-75.36
-68.18
-57.80
-45.15
-31.31
-17.37
-4.21
7.54
17.51
25.58
31.83
36.50
39.93
42.46
44.35
45.76
46.77
47.45
47.93
48.39
48.97
49.68
50.26
50.36
49.58
47.64
44.57
40.61
36.13
31.41
26.57
21.52
16.07
10.13
3.72
-2.93
-9.63
-16.27
-22.88
-29.62
-36.59
-43.80
-51.15
-58.56
-66.05
-73.80
-81.88
-90.07
-97.62
-103.29
-105.65
-103.59
-96.73
-85.53
-71.23
-55.34
-39.24
-23.83
-9.50
3.66
15.63
26.29
35.41
42.80
48.47
52.68
55.84
58.40
60.55
62.28
63.35
63.53
62.80
61.43
59.87
58.52
57.55
56.74
55.71
53.98
51.28
47.68
43.44
38.94
34.32
29.54
24.32
18.45
11.81
4.53
-3.07
-10.63
-17.89
-24.77
-31.34
-37.77
-44.26
-51.00
-58.19
-65.91
-74.13
-82.45
-90.05
-95.80
-98.44
-96.94
-90.82
-80.32
-66.38
-50.47
-34.07
-18.48
-4.52
7.49
17.65
26.26
33.61
39.93
45.30
49.79
53.50
56.61
59.32
61.75
63.92
65.69
66.91
67.43
67.25
66.49
65.28
63.77
61.95
59.75
57.03
53.69
49.73
45.29
40.55
35.72
30.85
25.91
20.76
15.29
9.38
3.05
-3.55
-10.18
-16.58
-22.48
-27.85
-32.82
-37.77
-43.14
-49.31
-56.40
-64.18
-72.04
-79.07
-84.21
-86.40
-84.84
-79.24
-69.83
-57.50
-43.45
-29.01
-15.23
-2.79
8.01
17.17
24.85
31.22
36.43
40.60
43.81
46.12
47.57
48.22
48.22
47.79
47.11
46.34
45.50
44.48
43.14
41.40
39.22
36.65
33.68
30.23
26.19
21.49
16.19
10.47
4.62
-1.09
-6.51
-11.65
-16.66
-21.69
-26.89
-32.31
-37.97
-43.90
-50.19
-56.82
-63.60
-69.99
-75.06
-77.68
-76.80
-71.79
-62.79
-50.64
-36.70
-22.46
-9.18
2.43
12.04
19.66
25.39
29.31
31.48
32.06
31.32
29.72
27.81
26.04
24.67
23.77
23.12
22.43
21.54
20.38
19.06
17.73
16.42
15.01
13.15
10.44
6.62
1.73
-3.86
-9.62
-15.06
-20.04
-24.77
-29.71
-35.41
-42.18
-49.94
-58.21
-66.17
-72.75
-76.91
-77.75
-74.69
-67.70
-57.29
-44.46
-30.52
-16.74
-4.06
6.94
16.10
23.57
29.56
34.24
37.69
39.88
40.83
40.67
39.65
38.09
36.33
34.55
32.89
31.30
29.72
28.12
26.41
24.50
22.21
19.30
15.60
11.01
5.66
-0.20
-6.20
-12.07
-17.70
-23.13
-28.59
-34.41
-40.97
-48.52
-57.09
-66.26
-75.06
-82.16
-86.11
-85.75
-80.66
-71.22
-58.54
-44.04
-29.07
-14.65
-1.30
10.75
21.48
30.83
38.71
45.02
49.67
52.69
54.23
54.59
54.09
53.02
51.63
50.08
48.53
47.06
45.79
44.70
43.67
42.48
40.82
38.47
35.30
31.28
26.42
20.74
14.23
6.96
-0.84
-8.84
-16.65
-23.99
-30.77
-37.11
-43.28
-49.57
-56.27
-63.55
-71.37
-79.37
-86.81
-92.57
-95.43
-94.29
-88.62
-78.65
-65.28
-49.91
-33.99
-18.75
-4.97
7.00
17.18
25.73
32.88
38.85
43.74
47.64
50.61
52.71
53.98
54.53
54.43
53.79
52.73
51.43
50.13
49.06
48.32
47.77
46.99
45.50
42.90
39.12
34.38
29.17
23.92
18.81
13.79
8.61
3.02
-3.02
-9.36
-15.73
-21.90
-27.72
-33.24
-38.56
-43.89
-49.42
-55.38
-61.93
-69.18
-76.90
-84.51
-90.94
-94.85
-94.98
-90.51
-81.41
-68.51
-53.24
-37.23
-21.83
-7.91
4.23
14.62
23.51
31.10
37.60
43.15
47.84
51.74
54.86
57.21
58.80
59.71
60.11
60.11
59.82
59.33
58.69
57.98
57.20
56.27
54.91
52.75
49.39
44.59
38.41
31.22
23.59
16.08
9.12
2.85
-2.86
-8.24
-13.53
-18.84
-24.15
-29.27
-34.00
-38.23
-42.00
-45.65
-49.61
-54.42
-60.55
-68.14
-76.89
-86.02
-94.27
-100.19
-102.46
-100.18
-93.14
-81.78
-67.16
-50.60
-33.44
-16.77
-1.45
11.98
23.28
32.43
39.67
45.33
49.80
53.31
55.98
57.73
58.51
58.39
57.55
56.37
55.19
54.15
53.24
52.34
51.31
50.09
48.73
47.19
45.38
43.06
40.00
36.08
31.47
26.53
21.67
17.16
12.96
8.77
4.22
-0.97
-6.77
-12.97
-19.16
-25.06
-30.51
-35.63
-40.68
-46.00
-51.95
-58.68
-66.11
-73.80
-80.96
-86.47
-89.13
-87.97
-82.54
-73.08
-60.46
-46.07
-31.35
-17.56
-5.47
4.59
12.77
19.43
25.00
29.85
34.16
37.96
41.19
43.82
45.86
47.42
48.66
49.69
50.58
51.24
51.58
51.46
50.84
49.70
48.08
46.02
43.51
40.54
37.10
33.20
28.86
24.00
18.50
12.14
4.81
-3.46
-12.34
-21.30
-29.83
-37.53
-44.40
-50.72
-56.92
-63.36
-70.21
-77.20
-83.69
-88.71
-91.15
-90.00
-84.60
-74.90
-61.39
-45.18
-27.58
-9.98
6.42
20.77
32.65
42.00
49.13
54.53
58.64
61.76
63.97
65.14
65.21
64.23
62.45
60.20
57.76
55.30
52.88
50.54
48.29
46.27
44.58
43.24
42.13
41.02
39.56
37.45
34.53
30.71
26.06
20.61
14.38
7.43
-0.08
-7.87
-15.53
-22.66
-29.06
-34.74
-39.98
-45.22
-50.89
-57.24
-64.41
-72.29
-80.54
-88.59
-95.53
-100.29
-101.78
-99.12
-91.93
-80.51
-65.73
-48.92
-31.66
-15.32
-0.93
10.95
20.31
27.42
32.71
36.57
39.34
41.14
42.16
42.61
42.65
42.51
42.32
42.15
42.01
41.81
41.41
40.65
39.41
37.62
35.27
32.36
28.90
24.85
20.22
15.02
9.42
3.69
-1.91
-7.11
-11.86
-16.24
-20.45
-24.73
-29.35
-34.52
-40.38
-46.99
-54.16
-61.48
-68.19
-73.31
-75.77
-74.72
-69.75
-61.05
-49.43
-36.11
-22.36
-9.25
2.56
12.81
21.50
28.66
34.28
38.27
40.64
41.62
41.63
41.13
40.52
39.96
39.32
38.37
36.92
34.95
32.65
30.27
28.06
26.07
24.12
21.89
19.08
15.53
11.34
6.76
2.08
-2.53
-7.11
-11.84
-16.95
-22.62
-28.97
-36.03
-43.70
-51.58
-58.99
-64.89
-68.16
-67.75
-63.10
-54.38
-42.45
-28.65
-14.51
-1.39
9.86
18.88
25.82
31.08
35.10
38.19
40.48
42.06
43.02
43.60
44.11
44.83
45.79
46.82
47.63
47.94
47.69
46.99
46.05
44.92
43.40
41.11
37.65
32.84
26.82
20.08
13.21
6.71
0.77
-4.76
-10.25
-16.07
-22.47
-29.55
-37.19
-45.15
-53.05
-60.33
-66.27
-69.95
-70.57
-67.62
-61.11
-51.71
-40.49
-28.69
-17.39
-7.31
1.26
8.29
13.93
18.30
21.52
23.73
25.14
26.04
26.73
27.42
28.18
28.94
29.55
29.85
29.69
29.08
28.03
26.58
24.73
22.33
19.22
15.24
10.38
4.86
-0.95
-6.60
-11.77
-16.48
-21.08
-26.12
-32.16
-39.46
-47.80
-56.46
-64.30
-70.03
-72.53
-71.12
-65.70
-56.76
-45.26
-32.35
-19.21
-6.81
4.13
13.24
20.32
25.48
28.91
30.97
32.07
32.57
32.84
33.07
33.39
33.73
33.98
33.95
33.54
32.71
31.47
29.95
28.14
26.02
23.36
19.87
15.25
9.46
2.69
-4.56
-11.75
-18.46
-24.53
-30.23
-36.07
-42.62
-50.27
-59.06
-68.53
-77.87
-85.96
-91.56
-93.57
-91.29
-84.55
-73.86
-60.27
-45.10
-29.78
-15.43
-2.69
8.24
17.56
25.61
32.63
38.68
43.65
47.37
49.80
51.18
51.90
52.37
52.89
53.43
53.76
53.52
52.45
50.52
47.98
45.22
42.53
39.94
37.21
33.95
29.81
24.77
19.04
13.07
7.22
1.64
-3.83
-9.56
-15.90
-23.08
-31.12
-39.95
-49.32
-58.88
-68.07
-76.08
-81.96
-84.76
-83.76
-78.68
-69.77
-57.83
-43.94
-29.33
-15.06
-1.94
9.62
19.56
27.98
35.07
40.90
45.57
49.16
51.98
54.33
56.50
58.57
60.43
61.92
62.90
63.41
63.51
63.25
62.52
61.08
58.68
55.19
50.70
45.39
39.51
33.24
26.67
19.86
12.89
5.85
-1.18
-8.21
-15.31
-22.68
-30.52
-39.01
-48.30
-58.37
-69.09
-79.98
-90.31
-99.03
-104.92
-106.86
-104.06
-96.26
-83.88
-67.95
-49.82
-30.97
-12.66
4.14
18.87
31.29
41.50
49.79
56.43
61.71
65.77
68.61
70.24
70.78
70.45
69.60
68.57
67.50
66.40
65.12
63.50
61.49
59.09
56.25
52.92
49.01
44.50
39.58
34.53
29.72
25.34
21.36
17.56
13.72
9.68
5.46
1.12
-3.32
-7.97
-13.01
-18.72
-25.33
-32.96
-41.62
-51.03
-60.57
-69.32
-76.12
-79.95
-80.18
-76.77
-70.13
-61.04
-50.35
-38.78
-26.97
-15.48
-4.79
4.67
12.71
19.28
24.48
28.46
31.37
33.34
34.54
35.22
35.71
36.26
37.03
37.94
38.84
39.46
39.59
39.06
37.80
35.84
33.24
30.06
26.32
21.99
16.97
11.22
4.81
-2.05
-9.11
-16.12
-23.00
-29.84
-36.76
-43.85
-51.14
-58.52
-65.92
-73.14
-79.86
-85.51
-89.30
-90.34
-88.00
-82.05
-72.82
-61.15
-48.03
-34.45
-21.13
-8.56
2.98
13.35
22.40
30.09
36.38
41.42
45.40
48.55
51.07
53.01
54.35
55.07
55.29
55.23
55.20
55.41
55.83
56.21
56.08
55.00
52.69
49.22
44.93
40.28
35.64
31.11
26.59
21.83
16.57
10.70
4.31
-2.36
-9.08
-15.61
-21.81
-27.66
-33.27
-38.81
-44.57
-50.81
-57.72
-65.28
-73.14
-80.60
-86.75
-90.56
-91.21
-88.23
-81.67
-72.07
-60.33
-47.48
-34.47
-22.03
-10.55
-0.11
9.40
18.18
26.29
33.70
40.23
45.71
50.05
53.36
55.87
57.82
59.40
60.73
61.83
62.67
63.26
63.52
63.36
62.62
61.09
58.70
55.46
51.56
47.25
42.84
38.55
34.52
30.80
27.26
23.74
19.97
15.78
11.06
5.85
0.30
-5.49
-11.40
-17.43
-23.64
-30.12
-36.99
-44.33
-52.13
-60.23
-68.14
-75.05
-79.95
-81.91
-80.42
-75.52
-67.82
-58.26
-47.77
-37.08
-26.60
-16.59
-7.23
1.29
8.79
15.18
20.49
24.86
28.43
31.34
33.66
35.42
36.70
37.55
38.11
38.50
38.77
38.98
39.02
38.69
37.77
36.08
33.55
30.29
26.53
22.55
18.48
14.33
9.96
5.20
-0.00
-5.59
-11.41
-17.24
-22.98
-28.62
-34.19
-39.79
-45.48
-51.33
-57.41
-63.80
-70.42
-76.93
-82.59
-86.42
-87.44
-84.94
-78.81
-69.52
-57.98
-45.22
-32.13
-19.33
-7.16
4.12
14.33
23.35
31.15
37.83
43.55
48.44
52.54
55.74
57.86
58.79
58.62
57.58
56.07
54.47
53.03
51.82
50.77
49.60
48.03
45.76
42.58
38.52
33.80
28.78
23.80
19.08
14.63
10.25
5.66
0.65
-4.87
-10.82
-17.00
-23.23
-29.34
-35.21
-40.78
-46.07
-51.11
-56.03
-60.96
-65.90
-70.58
-74.43
-76.65
-76.47
-73.46
-67.67
-59.69
-50.31
-40.32
-30.24
-20.35
-10.70
-1.41
7.37
15.40
22.45
28.45
33.47
37.70
41.34
44.52
47.16
49.15
50.32
50.60
50.10
49.07
47.75
46.28
44.62
42.59
39.99
36.75
32.93
28.76
24.45
20.18
16.04
12.00
8.02
4.14
0.34
-3.39
-7.05
-10.67
-14.28
-17.95
-21.72
-25.67
-29.89
-34.55
-39.89
-46.00
-52.79
-59.77
-66.05
-70.56
-72.28
-70.70
-65.99
-58.86
-50.39
-41.52
-32.80
-24.38
-16.18
-8.14
-0.43
6.58
12.59
17.37
21.00
23.74
25.96
27.97
29.92
31.85
33.70
35.40
36.86
38.07
39.08
39.87
40.45
40.64
40.20
38.98
36.93
34.12
30.74
26.75
21.74
15.28
7.31
-1.23
-8.32
-11.37
-8.49
0.61
14.14
28.87
41.55
50.06
54.05
54.65
53.52
52.40
53.22
58.61
71.73
95.23
129.23
169.91
209.86
240.09
253.32
246.49
221.62
184.64
143.10
103.74
71.11
47.21
31.66
22.42
16.29
9.61
-0.75
-16.51
-37.42
-61.45
-85.55
-106.62
-122.40
-132.07
-136.32
-137.07
-136.76
-137.51
-140.40
-145.12
-150.37
-154.46
-156.01
-154.46
-150.09
-143.74
-136.56
-129.65
-123.87
-119.52
-116.10
-112.18
-105.89
-95.57
-80.65
-62.07
-42.05
-23.26
-7.77
3.50
10.85
15.20
17.56
18.71
19.21
19.56
20.25
21.60
23.56
25.62
26.92
26.65
24.42
20.52
15.95
12.30
11.32
14.35
21.65
32.19
43.73
53.51
59.28
60.01
56.16
49.20
40.89
32.51
24.47
16.51
8.08
-1.22
-11.42
-22.18
-33.03
-43.42
-52.87
-61.03
-67.68
-72.88
-76.91
-80.35
-83.85
-87.98
-93.03
-98.67
-103.90
-106.95
-105.63
-97.91
-82.82
-61.16
-35.58
-9.97
11.82
27.13
35.17
36.77
33.69
27.74
20.51
13.42
7.90
5.32
6.52
11.30
18.09
24.43
27.82
26.64
20.69
11.21
0.47
-9.02
-15.16
-16.87
-14.36
-9.09
-3.24
1.09
2.56
1.07
-2.53
-7.05
-11.66
-16.33
-21.82
-29.22
-39.46
-52.97
-69.24
-86.73
-102.64
-113.41
-115.64
-107.43
-89.36
-64.66
-38.19
-14.68
2.79
13.53
18.80
20.54
20.30
18.88
16.60
13.81
11.27
9.79
9.71
10.61
11.30
10.49
7.42
2.32
-3.62
-8.65
-11.21
-10.47
-6.51
-0.24
7.16
14.68
21.76
28.31
34.48
40.21
45.20
48.87
50.61
50.11
47.50
43.29
38.14
32.66
27.15
21.64
16.02
10.17
4.03
-2.37
-9.09
-16.34
-24.25
-32.85
-41.76
-50.26
-57.45
-62.53
-65.03
-64.79
-61.68
-55.50
-45.88
-32.63
-16.04
2.91
22.74
42.00
59.76
75.80
90.43
103.97
116.36
127.03
135.18
140.34
142.58
142.54
141.05
138.89
136.52
134.18
132.09
130.45
129.34
128.55
127.61
125.97
123.39
120.18
117.02
114.52
112.82
111.39
109.15
105.08
98.55
89.72
79.43
68.83
59.11
50.97
44.49
39.10
33.64
26.58
16.44
2.13
-16.59
-38.78
-62.33
-84.34
-101.82
-112.59
-116.06
-113.35
-106.90
-99.52
-93.43
-89.78
-88.60
-89.32
-91.22
-93.72
-96.36
-98.68
-100.10
-100.06
-98.27
-94.78
-89.97
-84.39
-78.42
-72.20
-65.66
-58.69
-51.26
-43.59
-36.04
-28.97
-22.59
-16.97
-12.01
-7.54
-3.44
0.46
4.27
8.05
11.68
14.87
17.13
17.92
16.95
14.35
10.67
6.76
3.40
0.99
-0.69
-2.40
-5.29
-10.56
-19.07
-31.14
-46.18
-62.76
-78.75
-91.78
-99.75
-101.37
-96.40
-85.75
-71.06
-54.31
-37.31
-21.41
-7.35
4.61
14.53
22.64
29.20
34.52
38.93
42.88
46.74
50.80
55.11
59.49
63.76
67.88
72.08
76.81
82.49
89.17
96.43
103.43
109.15
112.82
114.19
113.55
111.73
109.87
109.14
110.27
113.31
117.26
120.27
120.07
114.69
103.17
86.08
65.42
44.04
24.71
9.24
-2.03
-10.04
-16.46
-22.80
-29.94
-38.10
-47.16
-57.29
-69.11
-83.42
-100.73
-120.70
-141.96
-162.64
-180.89
-195.42
-205.63
-211.51
-213.30
-211.47
-206.66
-199.62
-191.16
-181.89
-172.04
-161.49
-150.04
-137.55
-124.24
-110.61
-97.26
-84.68
-73.09
-62.58
-53.18
-44.92
-37.91
-32.24
-27.95
-24.94
-22.91
-21.47
-20.17
-18.72
-17.14
-15.80
-15.26
-16.10
-18.65
-23.01
-29.00
-36.25
-44.19
-51.93
-58.25
-61.67
-60.84
-54.90
-43.94
-28.96
-11.56
6.58
24.19
40.61
55.71
69.57
82.22
93.58
103.35
111.19
116.85
120.19
121.28
120.39
117.95
114.46
110.40
106.20
102.17
98.59
95.68
93.59
92.29
91.50
90.70
89.18
86.44
82.27
76.81
70.45
63.55
56.13
47.96
38.74
28.35
17.20
6.12
-3.79
-11.62
-16.97
-20.10
-21.92
-23.69
-26.61
-31.42
-38.13
-46.00
-53.66
-59.58
-62.44
-61.46
-56.44
-47.81
-36.33
-22.95
-8.61
5.91
20.02
33.41
45.98
57.70
68.41
77.76
85.25
90.33
92.70
92.33
89.66
85.32
80.05
74.52
69.23
64.53
60.55
57.30
54.62
52.30
50.06
47.74
45.29
42.87
40.67
38.76
37.07
35.38
33.44
31.07
28.28
25.22
22.04
18.78
15.29
11.28
6.38
0.31
-7.03
-15.47
-24.33
-32.56
-38.74
-41.51
-39.97
-34.06
-24.59
-12.96
-0.75
10.87
21.22
30.14
37.69
43.89
48.69
51.95
53.64
53.85
52.79
50.68
47.86
44.67
41.46
38.56
36.13
34.13
32.33
30.38
27.96
24.92
21.23
16.88
11.92
6.27
-0.13
-7.21
-14.77
-22.42
-29.75
-36.44
-42.53
-48.28
-54.26
-60.96
-68.67
-77.35
-86.49
-95.26
-102.51
-107.01
-107.55
-103.25
-93.76
-79.37
-61.13
-40.62
-19.65
0.19
17.83
32.87
45.43
55.88
64.55
71.55
76.84
80.29
81.98
82.17
81.25
79.64
77.65
75.46
73.10
70.58
67.86
64.88
61.53
57.60
52.86
47.12
40.31
32.44
23.73
14.49
5.10
-4.01
-12.55
-20.35
-27.49
-34.32
-41.41
-49.33
-58.53
-69.03
-80.12
-90.46
-98.17
-101.53
-99.39
-91.68
-79.35
-64.10
-47.73
-31.61
-16.48
-2.54
10.19
21.63
31.52
39.54
45.47
49.34
51.55
52.70
53.55
54.96
57.72
62.55
69.78
79.05
89.06
97.68
102.31
100.71
91.83
76.24
56.09
34.34
13.80
-3.76
-17.91
-29.25
-38.81
-47.42
-55.61
-63.75
-72.35
-82.15
-93.75
-107.11
-121.13
-133.65
-141.99
-143.86
-138.17
-125.36
-107.29
-86.43
-65.22
-45.41
-27.90
-12.83
-0.03
10.67
19.24
25.59
29.78
32.14
33.34
34.11
35.04
36.31
37.70
38.78
39.15
38.68
37.53
36.10
34.77
33.71
32.81
31.61
29.56
26.07
20.82
13.90
5.76
-2.85
-11.16
-18.59
-24.95
-30.41
-35.51
-40.92
-47.20
-54.56
-62.75
-70.92
-77.85
-82.15
-82.62
-78.62
-70.26
-58.30
-44.04
-28.90
-14.11
-0.61
11.08
20.69
28.15
33.48
36.79
38.33
38.47
37.70
36.56
35.49
34.74
34.30
33.97
33.55
32.85
31.88
30.73
29.42
27.87
25.76
22.65
18.22
12.39
5.33
-2.46
-10.43
-18.14
-25.33
-32.00
-38.47
-45.18
-52.62
-60.97
-69.91
-78.48
-85.18
-88.33
-86.55
-79.29
-66.97
-50.94
-32.99
-14.80
2.38
17.89
31.50
43.13
52.67
59.97
64.90
67.47
67.95
66.74
64.22
60.78
56.56
51.71
46.40
40.92
35.69
31.15
27.57
24.93
22.89
20.86
18.25
14.65
9.93
4.18
-2.30
-9.18
-16.12
-22.73
-28.82
-34.33
-39.49
-44.81
-50.91
-58.18
-66.48
-74.86
-81.64
-84.89
-83.06
-75.49
-62.81
-46.67
-29.24
-12.44
2.45
15.02
25.40
33.96
40.93
46.39
50.36
52.98
54.58
55.59
56.45
57.35
58.23
58.88
59.02
58.47
57.19
55.23
52.65
49.50
45.71
41.23
36.02
30.13
23.72
16.99
10.15
3.37
-3.26
-9.70
-15.94
-22.05
-28.13
-34.30
-40.77
-47.82
-55.68
-64.39
-73.54
-82.04
-88.34
-90.69
-87.82
-79.33
-66.02
-49.55
-32.02
-15.20
-0.18
12.63
23.33
32.20
39.50
45.40
50.08
53.70
56.43
58.41
59.66
60.09
59.60
58.12
55.79
52.94
50.00
47.36
45.25
43.56
41.99
40.04
37.29
33.55
28.87
23.45
17.55
11.32
4.78
-2.15
-9.48
-17.12
-24.78
-32.00
-38.40
-43.75
-48.10
-51.88
-55.69
-60.15
-65.71
-72.41
-79.78
-86.82
-92.11
-94.09
-91.58
-83.99
-71.68
-55.83
-38.11
-20.28
-3.72
10.76
22.83
32.52
40.10
45.81
49.93
52.73
54.44
55.26
55.37
54.90
53.96
52.71
51.26
49.70
48.18
46.79
45.69
44.96
44.51
44.11
43.38
41.85
39.17
35.28
30.32
24.65
18.63
12.47
6.21
-0.25
-7.01
-13.96
-20.86
-27.36
-33.14
-38.03
-42.04
-45.44
-48.63
-52.14
-56.39
-61.62
-67.69
-73.84
-78.77
-80.92
-78.85
-71.84
-60.13
-44.87
-27.82
-10.85
4.49
17.21
26.87
33.54
37.58
39.55
40.15
40.13
40.02
40.15
40.56
41.07
41.46
41.53
41.02
39.73
37.42
33.98
29.47
24.22
18.77
13.60
8.86
4.26
-0.73
-6.59
-13.24
-19.94
-25.47
-28.61
-28.53
-25.19
-19.32
-12.20
-5.30
0.15
3.40
4.34
3.54
2.25
2.01
4.23
9.76
18.58
29.85
42.22
54.23
64.76
73.22
79.55
84.04
87.09
88.98
89.87
89.71
88.40
85.92
82.47
78.68
75.56
74.58
77.31
85.14
98.65
117.12
138.47
159.69
177.67
189.98
195.34
193.47
184.80
169.95
149.53
124.35
95.43
64.04
31.37
-1.68
-34.61
-66.97
-98.16
-127.37
-153.79
-177.15
-197.82
-216.58
-233.98
-249.93
-263.52
-273.44
-278.59
-278.43
-273.20
-263.55
-250.32
-234.34
-216.56
-198.10
-180.21
-163.93
-149.66
-136.98
-124.72
-111.50
-96.37
-79.26
-60.92
-42.57
-25.31
-9.66
4.41
17.13
28.58
38.31
45.55
49.48
49.63
46.07
39.36
30.32
19.87
8.81
-2.14
-12.42
-21.57
-29.21
-35.10
-39.05
-41.11
-41.58
-41.12
-40.51
-40.48
-41.36
-42.90
-44.30
-44.42
-42.19
-36.96
-28.63
-17.69
-5.06
8.13
20.87
32.47
42.77
51.99
60.55
68.69
76.23
82.68
87.46
90.37
91.85
93.08
95.55
100.65
109.17
120.84
134.22
146.80
155.49
157.52
151.42
137.66
118.78
99.07
83.58
77.04
82.45
99.98
126.26
154.79
177.30
186.06
176.22
147.41
103.90
53.06
3.12
-39.38
-70.86
-90.82
-101.02
-104.40
-104.34
-103.98
-105.88
-111.45
-120.61
-131.83
-142.63
-150.65
-154.81
-155.77
-155.45
-155.46
-155.36
-151.75
-139.07
-111.96
-68.27
-10.80
53.00
113.55
162.57
195.72
213.19
218.20
214.52
204.54
188.77
166.96
139.51
108.52
77.63
50.83
31.13
19.70
15.71
16.95
20.50
23.53
23.79
19.85
11.05
-2.43
-19.86
-40.12
-62.29
-85.82
-110.55
-135.99
-160.71
-181.99
-196.25
-200.30
-192.74
-174.72
-149.61
-121.69
-94.66
-70.64
-50.23
-33.16
-19.29
-9.07
-3.28
-2.49
-6.44
-13.82
-22.47
-29.84
-33.71
-32.92
-27.61
-18.92
-8.50
2.28
12.68
22.52
31.61
39.19
43.85
44.05
39.01
29.22
16.43
2.85
-9.75
-20.79
-30.85
-41.11
-52.55
-65.40
-79.07
-92.43
-104.45
-114.63
-123.25
-131.28
-139.95
-150.24
-162.21
-174.64
-184.87
-189.45
-185.11
-169.87
-143.78
-109.08
-69.54
-29.41
7.55
38.88
63.51
81.56
93.86
101.48
105.46
106.55
105.29
101.94
96.72
89.82
81.57
72.36
62.59
52.74
43.20
34.35
26.46
19.77
14.41
10.43
7.75
6.16
5.36
5.07
5.21
5.98
7.84
11.23
16.16
21.86
26.79
29.04
26.92
19.47
6.85
-9.86
-28.82
-47.97
-65.17
-78.52
-86.51
-88.37
-84.12
-74.62
-61.28
-45.72
-29.39
-13.36
1.65
15.10
26.42
35.00
40.20
41.49
38.64
31.88
21.93
10.00
-2.48
-14.14
-24.12
-32.29
-39.44
-46.83
-55.78
-67.10
-80.70
-95.65
-110.37
-123.04
-131.93
-135.71
-133.57
-125.32
-111.57
-93.64
-73.63
-53.91
-36.89
-24.51
-17.99
-17.67
-23.02
-32.66
-44.35
-55.35
-62.68
-63.62
-56.26
-39.97
-15.39
15.57
50.20
85.57
118.94
148.20
172.09
190.16
202.68
210.41
214.29
215.28
214.09
211.13
206.45
199.93
191.36
180.75
168.52
155.40
142.38
130.28
119.51
109.90
100.81
91.44
81.25
70.17
58.62
47.31
36.86
27.50
18.99
10.66
1.70
-8.39
-19.60
-31.34
-42.56
-52.06
-58.94
-62.78
-63.69
-62.15
-58.69
-53.68
-47.30
-39.51
-30.39
-20.12
-9.09
2.17
13.12
23.26
32.10
39.27
44.47
47.49
48.34
47.24
44.59
40.94
36.81
32.62
28.63
24.94
21.39
17.72
13.65
8.91
3.48
-2.44
-8.45
-14.05
-18.81
-22.48
-25.10
-26.93
-28.59
-30.79
-34.27
-39.53
-46.58
-54.72
-62.58
-68.40
-70.50
-67.90
-60.41
-48.89
-34.80
-19.82
-5.36
7.65
18.84
28.25
36.07
42.43
47.32
50.63
52.33
52.69
52.18
51.49
51.14
51.25
51.46
51.24
50.11
48.05
45.50
43.05
41.08
39.56
37.96
35.52
31.69
26.32
19.73
12.49
5.20
-1.77
-8.30
-14.57
-20.88
-27.56
-34.80
-42.50
-50.19
-56.99
-61.72
-63.06
-59.94
-51.87
-39.19
-23.06
-5.17
12.67
29.01
42.96
54.17
62.72
68.82
72.70
74.52
74.49
72.93
70.37
67.32
64.19
61.14
57.92
54.07
49.00
42.28
33.76
23.73
12.70
1.28
-9.95
-20.61
-30.50
-39.60
-47.97
-55.65
-62.67
-69.02
-74.61
-79.41
-83.48
-86.97
-90.10
-93.23
-96.71
-100.88
-105.85
-111.41
-116.83
-120.95
-122.28
-119.40
-111.48
-98.51
-81.42
-61.82
-41.51
-22.10
-4.70
10.21
22.55
32.56
40.58
46.93
51.86
55.54
58.13
59.75
60.52
60.58
60.13
59.38
58.55
57.73
56.93
56.01
54.72
52.74
49.80
45.75
40.63
34.68
28.23
21.63
15.09
8.73
2.48
-3.78
-10.15
-16.63
-23.06
-29.25
-34.99
-40.27
-45.30
-50.48
-56.32
-63.18
-71.18
-79.79
-87.95
-94.19
-96.93
-94.98
-87.81
-75.79
-60.06
-42.31
-24.29
-7.49
7.13
19.27
29.04
36.86
43.14
48.20
52.14
55.02
56.80
57.57
57.48
56.75
55.62
54.26
52.86
51.56
50.51
49.69
49.04
48.35
47.31
45.59
42.89
39.17
34.58
29.54
24.51
19.88
15.70
11.71
7.44
2.41
-3.60
-10.48
-17.71
-24.70
-30.97
-36.40
-41.21
-45.89
-51.06
-57.23
-64.64
-73.10
-81.91
-89.89
-95.50
-97.23
-93.98
-85.45
-72.33
-56.05
-38.41
-21.10
-5.31
8.34
19.73
28.93
36.13
41.55
45.38
47.90
49.48
50.52
51.42
52.49
53.87
55.60
57.57
59.56
61.39
62.91
64.04
64.71
64.88
64.43
63.18
60.88
57.37
52.65
47.00
40.97
35.13
29.92
25.40
21.20
16.69
11.29
4.73
-2.84
-10.84
-18.62
-25.64
-31.76
-37.16
-42.31
-47.77
-54.01
-61.40
-70.03
-79.56
-89.04
-96.95
-101.46
-101.01
-94.87
-83.45
-68.23
-51.23
-34.36
-18.97
-5.66
5.51
14.78
22.39
28.56
33.49
37.42
40.63
43.35
45.70
47.76
49.56
51.10
52.35
53.24
53.65
53.49
52.77
51.63
50.28
48.93
47.59
46.08
44.06
41.21
37.43
32.81
27.70
22.52
17.61
13.09
8.83
4.53
-0.23
-5.72
-11.98
-18.78
-25.64
-32.11
-37.85
-42.79
-47.14
-51.39
-56.14
-61.97
-69.23
-77.76
-86.76
-94.70
-99.64
-99.87
-94.45
-83.71
-69.05
-52.53
-36.08
-21.10
-8.16
2.74
11.77
19.08
24.66
28.47
30.61
31.40
31.20
30.38
29.14
27.62
25.94
24.33
23.06
22.33
22.21
22.43
22.52
21.98
20.46
17.94
14.65
11.00
7.28
3.58
-0.17
-4.12
-8.32
-12.71
-17.09
-21.27
-25.16
-28.73
-32.09
-35.41
-38.88
-42.83
-47.61
-53.32
-59.63
-65.58
-69.71
-70.47
-66.65
-57.92
-44.89
-29.03
-12.12
4.13
18.53
30.45
39.78
46.69
51.43
54.25
55.35
54.97
53.44
51.27
49.06
47.36
46.52
46.57
47.23
48.06
48.68
48.85
48.56
47.88
46.80
45.16
42.73
39.28
34.74
29.18
22.76
15.63
7.92
-0.22
-8.60
-16.93
-24.87
-32.14
-38.59
-44.36
-49.91
-55.90
-63.03
-71.52
-80.86
-89.61
-95.69
-97.00
-92.30
-81.63
-66.36
-48.69
-30.78
-14.27
0.05
12.02
21.78
29.48
35.29
39.45
42.30
44.33
45.92
47.24
48.26
48.83
48.82
48.23
47.23
46.01
44.71
43.32
41.59
39.22
35.93
31.71
26.76
21.52
16.44
11.74
7.32
2.84
-2.08
-7.64
-13.71
-19.91
-25.83
-31.24
-36.14
-40.83
-45.64
-51.00
-57.32
-64.85
-73.44
-82.35
-90.11
-94.81
-94.63
-88.45
-76.41
-59.88
-40.99
-21.97
-4.54
10.46
22.88
33.00
41.19
47.73
52.82
56.64
59.45
61.39
62.62
63.11
62.85
61.83
60.18
58.19
56.20
54.52
53.27
52.38
51.50
50.16
47.95
44.66
40.33
35.28
29.90
24.48
19.03
13.29
6.94
-0.22
-8.07
-16.13
-23.80
-30.61
-36.47
-41.66
-46.76
-52.49
-59.33
-67.36
-76.08
-84.39
-90.66
-93.18
-90.61
-82.51
-69.49
-53.08
-35.24
-17.78
-1.96
11.50
22.45
31.03
37.53
42.40
46.09
49.01
51.38
53.17
54.14
54.08
52.90
50.81
48.27
45.83
43.90
42.66
42.03
41.62
40.91
39.33
36.45
32.18
26.76
20.65
14.40
8.35
2.53
-3.31
-9.50
-16.27
-23.49
-30.87
-37.92
-44.24
-49.64
-54.23
-58.39
-62.76
-68.15
-75.16
-83.97
-93.88
-103.30
-110.02
-111.77
-107.13
-95.93
-79.42
-59.80
-39.50
-20.46
-3.74
10.32
21.93
31.38
38.90
44.72
49.03
52.10
54.20
55.54
56.19
56.10
55.19
53.44
51.00
48.16
45.31
42.74
40.67
39.10
37.91
36.93
36.06
35.32
34.74
34.36
33.96
32.97
30.74
26.60
20.27
11.90
2.19
-8.03
-17.88
-26.85
-34.82
-42.02
-48.97
-56.22
-64.33
-73.62
-83.94
-94.50
-103.76
-109.74
-110.50
-104.85
-92.77
-75.51
-55.22
-34.21
-14.41
3.03
17.60
29.30
38.25
44.74
49.14
52.00
53.94
55.49
57.00
58.49
59.79
60.73
61.17
61.09
60.64
59.95
59.09
58.04
56.63
54.64
51.75
47.79
42.79
36.97
30.73
24.45
18.30
12.20
5.90
-0.81
-8.02
-15.53
-22.94
-29.76
-35.63
-40.38
-44.14
-47.23
-50.22
-53.82
-58.69
-65.08
-72.61
-80.01
-85.39
-86.88
-83.14
-73.97
-60.26
-43.64
-25.92
-8.58
7.42
21.57
33.60
43.40
50.95
56.45
60.22
62.65
64.07
64.70
64.65
63.96
62.74
61.17
59.57
58.30
57.71
57.92
58.82
59.97
60.72
60.46
58.77
55.53
51.01
45.61
39.76
33.73
27.54
21.08
14.24
7.02
-0.41
-7.80
-14.92
-21.75
-28.50
-35.57
-43.44
-52.47
-62.76
-74.05
-85.58
-96.10
-103.93
-107.40
-105.18
-96.91
-83.41
-66.48
-48.38
-31.22
-16.36
-4.35
4.96
12.07
17.46
21.48
24.30
26.07
26.96
27.21
27.09
26.82
26.57
26.43
26.41
26.48
26.70
26.99
27.25
27.20
26.49
24.78
21.87
17.97
13.54
9.21
5.36
2.04
-1.16
-4.92
-9.91
-16.50
-24.57
-33.60
-42.76
-51.28
-58.70
-65.07
-70.93
-77.12
-84.44
-93.14
-102.59
-111.31
-117.22
-118.15
-112.58
-100.07
-81.35
-58.15
-32.81
-7.65
15.34
34.87
50.39
61.93
70.02
75.41
78.87
80.96
82.00
82.13
81.37
79.84
77.72
75.35
73.03
70.99
69.26
67.69
66.07
64.22
62.04
59.44
56.38
52.78
48.60
43.82
38.56
32.95
27.15
21.30
15.50
9.83
4.37
-0.80
-5.68
-10.37
-15.16
-20.45
-26.69
-34.19
-42.85
-51.98
-60.21
-65.79
-66.94
-62.44
-52.15
-37.08
-19.12
-0.50
16.86
31.69
43.47
52.22
58.19
61.62
62.79
62.00
59.73
56.59
53.27
50.29
47.97
46.27
44.88
43.44
41.65
39.45
36.99
34.57
32.39
30.42
28.39
25.88
22.45
17.92
12.35
6.09
-0.39
-6.63
-12.40
-17.66
-22.64
-27.64
-33.03
-39.22
-46.44
-54.79
-63.94
-72.98
-80.49
-84.75
-84.26
-78.29
-67.25
-52.47
-35.99
-19.72
-5.10
7.13
16.81
24.06
29.06
31.94
32.92
32.41
30.93
29.08
27.33
25.91
24.72
23.51
22.02
20.13
17.95
15.58
13.08
10.21
6.56
1.63
-4.75
-12.29
-20.28
-27.87
-34.38
-39.57
-43.76
-47.67
-52.13
-57.89
-65.28
-74.15
-83.59
-92.10
-97.77
-98.86
-94.28
-83.99
-69.05
-51.21
-32.48
-14.52
1.51
15.03
25.90
34.23
40.30
44.43
46.95
48.17
48.31
47.50
45.90
43.66
41.00
38.20
35.51
33.13
31.23
29.76
28.54
27.20
25.26
22.22
17.79
11.96
5.05
-2.36
-9.71
-16.64
-23.14
-29.64
-36.82
-45.27
-55.11
-65.80
-76.05
-84.13
-88.33
-87.50
-81.39
-70.59
-56.47
-40.76
-25.11
-10.86
1.13
10.59
17.78
23.27
27.77
31.85
35.72
39.27
42.17
44.05
44.77
44.43
43.34
41.82
40.14
38.29
36.20
33.78
31.00
27.88
24.47
20.71
16.45
11.55
6.02
0.06
-5.97
-11.73
-17.19
-22.67
-28.82
-36.26
-45.24
-55.30
-65.13
-72.85
-76.49
-74.65
-67.02
-54.52
-38.97
-22.54
-7.08
6.33
17.46
26.52
33.94
39.98
44.73
48.24
50.71
52.44
53.79
54.93
55.76
55.96
55.17
53.22
50.25
46.69
43.16
40.21
38.06
36.56
35.20
33.22
30.00
25.15
18.74
11.21
3.22
-4.60
-11.82
-18.31
-24.24
-29.96
-36.05
-43.03
-51.25
-60.64
-70.49
-79.46
-85.75
-87.72
-84.26
-75.36
-62.04
-46.07
-29.38
-13.51
0.59
12.59
22.54
30.65
37.15
42.29
46.43
49.93
53.08
55.97
58.42
60.16
61.02
61.07
60.72
60.50
60.86
61.90
63.32
64.45
64.57
63.12
59.87
54.96
48.81
41.91
34.56
26.89
18.84
10.32
1.31
-8.01
-17.22
-25.84
-33.48
-39.94
-45.28
-49.81
-54.12
-58.99
-65.21
-73.26
-83.00
-93.42
-102.66
-108.44
-108.76
-102.60
-90.27
-73.34
-54.04
-34.59
-16.51
-0.50
13.44
25.63
36.35
45.65
53.33
59.19
63.16
65.45
66.49
66.70
66.40
65.69
64.60
63.16
61.61
60.23
59.33
58.90
58.54
57.59
55.35
51.43
45.80
38.87
31.35
23.98
17.27
11.41
6.24
1.26
-4.10
-10.31
-17.46
-25.28
-33.19
-40.62
-47.10
-52.58
-57.41
-62.26
-67.93
-75.10
-83.98
-94.11
-104.17
-112.23
-116.10
-114.00
-105.07
-89.75
-69.65
-47.03
-24.18
-2.86
15.91
31.75
44.64
54.72
62.13
67.05
69.76
70.65
70.23
68.96
67.20
65.12
62.75
59.98
56.74
53.04
48.97
44.82
40.86
37.29
34.08
30.99
27.66
23.78
19.26
14.25
9.12
4.20
-0.35
-4.61
-8.86
-13.40
-18.41
-23.87
-29.55
-35.01
-39.85
-43.68
-46.33
-47.93
-48.92
-50.09
-52.32
-56.38
-62.48
-70.03
-77.50
-82.70
-83.41
-78.05
-66.28
-49.04
-28.30
-6.47
14.29
32.41
47.00
57.62
64.32
67.41
67.57
65.82
63.27
60.90
59.34
58.66
58.60
58.68
58.44
57.63
56.27
54.58
52.97
51.86
51.52
52.01
52.99
53.87
53.93
52.60
49.67
45.34
40.06
34.27
28.27
22.03
15.36
8.09
0.23
-7.91
-15.81
-22.92
-28.98
-34.01
-38.48
-43.07
-48.51
-55.27
-63.36
-72.10
-80.18
-85.95
-87.78
-84.61
-76.23
-63.38
-47.55
-30.53
-14.00
0.78
13.07
22.63
29.45
33.77
35.93
36.33
35.48
33.88
32.06
30.43
29.29
28.78
28.93
29.66
30.83
32.25
33.69
34.87
35.40
34.96
33.20
29.99
25.43
19.77
13.42
6.65
-0.42
-7.78
-15.43
-23.28
-31.11
-38.56
-45.40
-51.49
-57.00
-62.28
-67.83
-74.14
-81.55
-90.00
-98.86
-106.89
-112.31
-113.23
-108.19
-96.81
-79.94
-59.55
-38.09
-17.80
-0.21
14.08
25.18
33.60
39.84
44.31
47.27
48.99
49.73
49.77
49.34
48.58
47.53
46.27
44.87
43.46
42.13
40.90
39.74
38.55
37.18
35.50
33.41
30.77
27.48
23.45
18.61
12.83
6.09
-1.61
-10.12
-19.19
-28.40
-37.45
-46.16
-54.61
-63.12
-72.10
-81.80
-92.06
-102.24
-111.08
-117.03
-118.50
-114.37
-104.37
-89.17
-70.27
-49.62
-29.08
-10.01
6.83
21.26
33.45
43.72
52.41
59.78
65.97
71.04
74.98
77.74
79.29
79.75
79.29
78.17
76.58
74.63
72.37
69.73
66.66
63.07
58.92
54.15
48.73
42.57
35.60
27.72
18.95
9.35
-0.85
-11.33
-21.74
-31.77
-41.34
-50.56
-59.79
-69.46
-79.86
-90.82
-101.59
-110.72
-116.33
-116.71
-110.89
-99.00
-82.40
-63.25
-43.88
-26.17
-11.17
0.87
10.27
17.52
23.04
27.09
29.89
31.71
33.00
34.28
36.06
38.66
42.05
45.90
49.71
53.02
55.50
57.06
57.74
57.62
56.74
55.06
52.52
49.10
44.78
39.61
33.57
26.70
19.06
10.82
2.19
-6.65
-15.59
-24.70
-34.26
-44.69
-56.40
-69.53
-83.56
-97.25
-108.73
-115.84
-116.93
-111.44
-100.11
-84.87
-68.04
-51.63
-36.81
-23.84
-12.28
-1.63
8.47
18.10
27.13
35.41
42.95
49.86
56.20
61.96
66.92
70.71
73.01
73.59
72.56
70.30
67.33
64.05
60.71
57.24
53.42
49.06
44.05
38.43
32.36
26.01
19.49
12.92
6.32
-0.41
-7.54
-15.52
-24.87
-35.92
-48.62
-62.26
-75.46
-86.38
-93.05
-93.90
-88.24
-76.45
-59.96
-40.83
-21.13
-2.64
13.55
26.98
37.74
46.17
52.71
57.77
61.46
63.70
64.16
62.44
58.32
51.93
43.77
34.67
25.56
17.20
10.11
4.51
0.40
-2.34
-4.01
-5.02
-5.84
-6.94
-8.70
-11.44
-15.35
-20.63
-27.43
-35.85
-45.85
-57.15
-69.20
-81.34
-92.93
-103.58
-113.11
-121.46
-128.41
-133.34
-135.21
-132.74
-124.83
-110.88
-91.07
-66.34
-38.28
-8.85
19.95
46.35
69.03
87.30
101.05
110.65
116.69
119.71
120.10
118.18
114.37
109.25
103.53
97.84
92.50
87.46
82.45
77.21
71.75
66.37
61.44
57.09
53.04
48.65
43.24
36.41
28.25
19.29
10.23
1.60
-6.37
-13.81
-21.09
-28.55
-36.39
-44.68
-53.41
-62.46
-71.58
-80.16
-87.29
-91.81
-92.62
-89.10
-81.32
-70.11
-56.67
-42.29
-27.91
-14.04
-0.86
11.58
23.19
33.76
43.02
50.79
57.06
62.02
65.97
69.20
71.94
74.25
76.04
77.15
77.46
76.91
75.49
73.22
70.11
66.09
61.07
54.95
47.75
39.54
30.52
20.95
11.08
1.07
-9.00
-19.06
-29.07
-38.90
-48.46
-57.75
-66.99
-76.53
-86.74
-97.66
-108.72
-118.68
-125.82
-128.50
-125.62
-117.12
-103.88
-87.46
-69.54
-51.43
-33.99
-17.61
-2.50
11.16
23.14
33.26
41.44
47.82
52.66
56.31
59.10
61.30
63.12
64.71
66.20
67.74
69.36
71.00
72.35
73.04
72.64
70.87
67.68
63.25
57.81
51.57
44.59
36.91
28.81
20.65
12.94
6.07
-0.02
-5.78
-11.98
-19.35
-28.36
-38.98
-50.72
-62.62
-73.33
-81.27
-84.84
-82.79
-74.66
-61.02
-43.41
-23.97
-4.88
12.22
26.51
37.84
46.56
53.06
57.69
60.79
62.72
64.06
65.54
67.79
71.16
75.55
80.43
85.09
88.85
91.33
92.48
92.52
91.72
90.30
88.28
85.45
81.49
76.08
68.93
59.99
49.41
37.58
25.06
12.44
0.17
-11.50
-22.52
-33.08
-43.51
-54.23
-65.56
-77.42
-89.08
-99.22
-106.02
-107.88
-103.94
-94.39
-80.54
-64.27
-47.48
-31.51
-17.07
-4.38
6.51
15.44
22.19
26.59
28.64
28.65
27.12
24.62
21.58
18.25
14.74
11.19
7.79
4.88
2.85
1.94
2.07
2.79
3.32
2.76
0.47
-3.82
-9.87
-16.98
-24.37
-31.33
-37.53
-42.99
-48.12
-53.51
-59.77
-67.20
-75.61
-84.23
-91.65
-96.15
-96.14
-90.57
-79.32
-63.21
-43.85
-23.17
-3.03
15.17
30.46
42.36
50.65
55.42
56.89
55.64
52.48
48.38
44.27
40.66
37.54
34.39
30.48
25.19
18.46
10.87
3.43
-2.79
-7.24
-10.11
-12.36
-15.32
-20.09
-27.17
-36.19
-46.15
-55.80
-64.11
-70.59
-75.31
-78.84
-81.96
-85.33
-89.29
-93.59
-97.26
-98.91
-97.04
-90.55
-79.15
-63.49
-45.01
-25.52
-6.73
10.04
24.00
34.83
42.60
47.61
50.31
51.27
51.13
50.48
49.76
49.19
48.82
48.57
48.32
48.06
47.82
47.71
47.74
47.74
47.27
45.77
42.74
37.92
31.46
23.89
15.92
8.05
0.46
-7.19
-15.57
-25.39
-37.09
-50.53
-64.79
-78.25
-88.87
-94.65
-94.22
-87.26
-74.62
-58.00
-39.46
-20.88
-3.51
12.05
25.74
37.79
48.47
57.95
66.16
72.89
77.80
80.57
80.98
79.12
75.38
70.32
64.65
58.87
53.28
47.92
42.54
36.78
30.27
22.75
14.19
4.74
-5.34
-15.83
-26.61
-37.76
-49.44
-61.79
-74.79
-88.07
-100.74
-111.37
-118.13
-119.28
-113.68
-101.25
-83.04
-61.06
-37.64
-14.77
6.13
24.37
39.68
52.09
61.73
68.81
73.64
76.55
77.82
77.60
76.00
73.14
69.36
65.17
61.21
58.02
55.79
54.28
52.76
50.34
46.16
39.75
31.04
20.44
8.64
-3.59
-15.63
-27.15
-38.07
-48.65
-59.26
-70.22
-81.56
-92.68
-102.32
-108.68
-109.92
-104.81
-93.13
-75.97
-55.34
-33.68
-13.21
4.60
19.14
30.54
39.25
45.74
50.25
52.86
53.62
52.77
50.80
48.32
45.88
43.78
41.99
40.26
38.30
35.98
33.36
30.53
27.55
24.21
20.12
14.81
7.98
-0.32
-9.60
-19.15
-28.30
-36.65
-44.25
-51.57
-59.23
-67.81
-77.51
-87.97
-98.23
-106.81
-111.95
-112.02
-106.00
-93.84
-76.61
-56.18
-34.78
-14.41
3.58
18.61
30.67
40.09
47.32
52.66
56.45
58.97
60.55
61.51
62.17
62.70
63.12
63.35
63.18
62.39
60.93
58.91
56.54
54.04
51.39
48.33
44.37
39.02
32.00
23.48
13.99
4.31
-4.84
-13.02
-20.20
-26.73
-33.12
-39.97
-47.79
-57.03
-67.88
-80.05
-92.53
-103.44
-110.43
-111.29
-104.78
-91.06
-71.72
-49.19
-25.90
-3.62
16.81
35.25
51.84
66.60
79.31
89.65
97.40
102.68
105.91
107.67
108.44
108.32
107.14
104.55
100.32
94.49
87.56
80.17
72.90
65.95
59.11
51.89
43.76
34.45
24.05
12.91
1.49
-9.89
-21.05
-32.08
-43.19
-54.68
-66.86
-80.04
-94.17
-108.70
-122.39
-133.23
-138.87
-137.23
-127.26
-109.37
-85.46
-58.37
-31.03
-5.64
16.72
35.90
52.26
66.10
77.52
86.50
93.31
98.69
103.85
110.10
118.29
128.53
140.03
151.47
161.41
168.73
172.71
173.06
169.64
162.35
151.21
136.52
119.11
100.30
81.64
64.47
49.46
36.48
24.75
13.20
0.89
-12.85
-28.39
-45.86
-65.05
-85.19
-104.70
-121.35
-132.70
-136.83
-133.13
-122.53
-107.24
-89.92
-72.95
-57.81
-45.16
-35.06
-27.37
-21.98
-18.73
-17.26
-16.96
-17.07
-16.86
-15.96
-14.38
-12.49
-10.74
-9.56
-9.18
-9.79
-11.50
-14.50
-18.99
-25.06
-32.57
-41.17
-50.28
-59.34
-67.97
-76.10
-84.03
-92.34
-101.73
-112.57
-124.62
-136.76
-147.04
-153.13
-152.86
-144.95
-129.51
-107.97
-82.86
-57.06
-33.18
-12.96
2.82
14.34
22.34
27.70
31.10
32.92
33.18
31.81
28.92
24.91
20.49
16.53
13.72
12.45
12.62
13.78
15.34
16.79
17.85
18.41
18.43
17.75
16.14
13.27
8.86
2.76
-5.06
-14.58
-25.75
-38.43
-52.13
-65.77
-77.64
-85.69
-87.97
-83.38
-72.06
-55.42
-35.76
-15.55
3.17
19.22
32.19
42.35
50.18
56.19
60.74
64.05
66.21
67.19
67.04
65.80
63.64
60.79
57.53
54.19
51.04
48.25
45.77
43.39
40.74
37.45
33.32
28.37
22.87
17.20
11.60
6.06
0.33
-6.12
-13.85
-23.21
-34.19
-46.05
-57.37
-66.17
-70.41
-68.51
-59.96
-45.53
-27.11
-7.22
11.79
28.18
41.17
50.76
57.48
61.90
64.55
65.69
65.42
63.84
61.11
57.49
53.32
48.95
44.73
40.97
37.93
35.70
34.24
33.26
32.31
30.82
28.24
24.19
18.55
11.53
3.50
-5.07
-13.88
-22.81
-32.01
-41.69
-51.90
-62.35
-72.10
-79.73
-83.52
-82.08
-74.69
-61.64
-44.25
-24.42
-4.23
14.63
31.03
44.49
54.89
62.33
66.99
69.05
68.83
66.83
63.69
60.10
56.70
53.84
51.55
49.62
47.70
45.53
43.03
40.26
37.32
34.15
30.54
26.07
20.37
13.20
4.71
-4.57
-13.94
-22.69
-30.42
-37.16
-43.40
-49.98
-57.80
-67.45
-78.92
-91.42
-103.37
-112.75
-117.51
-116.19
-108.33
-94.69
-77.00
-57.48
-38.28
-20.98
-6.46
5.03
13.61
19.65
23.56
25.82
26.94
27.40
27.66
28.00
28.59
29.50
30.75
32.35
34.23
36.30
38.39
40.32
41.86
42.78
42.77
41.55
38.88
34.60
28.86
22.07
14.79
7.57
0.82
-5.40
-11.41
-17.74
-25.04
-33.81
-44.24
-56.05
-68.44
-80.06
-89.28
-94.47
-94.42
-88.68
-77.69
-62.67
-45.27
-27.21
-9.87
5.83
19.56
31.38
41.58
50.46
58.14
64.58
69.59
72.99
74.70
74.85
73.76
71.83
69.39
66.67
63.69
60.33
56.43
51.94
46.90
41.49
35.93
30.34
24.63
18.55
11.85
4.32
-3.94
-12.72
-21.61
-30.24
-38.31
-45.67
-52.28
-58.30
-64.14
-70.31
-77.43
-85.88
-95.47
-105.30
-113.70
-118.75
-118.70
-112.59
-100.54
-83.74
-64.07
-43.56
-24.02
-6.68
7.89
19.60
28.74
35.86
41.57
46.49
51.18
55.92
60.85
65.84
70.54
74.48
77.20
78.33
77.74
75.52
71.90
67.14
61.36
54.51
46.44
37.05
26.55
15.50
4.75
-4.84
-12.64
-18.43
-22.45
-25.27
-27.51
-29.68
-32.07
-34.65
-37.25
-39.58
-41.50
-43.11
-44.88
-47.64
-52.31
-59.53
-69.16
-80.07
-90.20
-97.05
-98.39
-93.08
-81.30
-64.57
-45.12
-25.16
-6.42
10.21
24.57
36.98
47.85
57.52
65.99
73.02
78.29
81.44
82.35
81.17
78.35
74.53
70.40
66.59
63.60
61.75
61.12
61.45
62.20
62.50
61.48
58.52
53.40
46.53
38.76
31.00
24.03
18.09
12.88
7.77
2.05
-4.74
-12.70
-21.43
-30.35
-38.78
-46.24
-52.60
-58.15
-63.53
-69.68
-77.50
-87.45
-99.20
-111.37
-121.67
-127.53
-126.82
-118.61
-103.41
-83.02
-59.83
-36.21
-13.90
6.01
22.99
36.84
47.56
55.30
60.42
63.53
65.35
66.57
67.63
68.69
69.66
70.29
70.39
69.85
68.71
66.96
64.69
61.94
58.72
55.13
51.28
47.27
43.15
38.92
34.55
30.14
25.90
22.06
18.75
15.79
12.81
9.23
4.60
-1.25
-8.11
-15.54
-23.18
-30.77
-38.31
-45.93
-53.79
-62.04
-70.69
-79.70
-88.78
-97.32
-104.23
-108.24
-108.16
-103.40
-94.23
-81.77
-67.67
-53.48
-40.28
-28.48
-18.10
-8.95
-1.03
5.43
10.11
12.82
13.79
13.58
13.01
12.83
13.52
15.21
17.73
20.79
24.11
27.50
30.75
33.56
35.62
36.60
36.23
34.30
30.71
25.46
18.69
10.74
2.12
-6.50
-14.54
-21.66
-27.84
-33.32
-38.48
-43.71
-49.38
-55.85
-63.30
-71.59
-79.97
-87.02
-90.93
-89.94
-82.97
-70.06
-52.38
-31.95
-10.88
9.01
26.58
41.42
53.48
62.94
69.98
74.73
77.37
78.25
77.85
76.73
75.38
74.04
72.69
71.09
68.98
66.19
62.79
58.94
54.92
50.90
46.85
42.60
37.85
32.40
26.14
19.20
11.80
4.23
-3.27
-10.55
-17.54
-24.30
-30.92
-37.70
-44.96
-53.06
-62.09
-71.71
-80.98
-88.40
-92.35
-91.46
-85.25
-74.21
-59.76
-43.69
-27.64
-12.76
0.42
11.72
21.08
28.40
33.57
36.68
38.11
38.45
38.24
37.82
37.23
36.31
34.91
33.09
31.21
29.73
28.99
28.96
29.21
29.04
27.67
24.57
19.57
12.95
5.25
-2.85
-10.87
-18.56
-25.96
-33.40
-41.40
-50.44
-60.79
-72.24
-83.86
-94.08
-100.96
-102.81
-98.75
-89.07
-75.15
-58.91
-42.23
-26.33
-11.69
1.77
14.19
25.56
35.64
44.15
50.95
56.14
60.00
62.78
64.60
65.39
65.02
63.47
60.84
57.49
53.80
50.12
46.64
43.28
39.68
35.29
29.61
22.38
13.81
4.46
-4.93
-13.74
-21.80
-29.42
-37.20
-45.85
-55.87
-67.28
-79.56
-91.65
-101.96
-108.76
-110.56
-106.59
-97.05
-83.13
-66.60
-49.22
-32.27
-16.35
-1.54
12.27
25.10
36.71
46.78
55.07
61.57
66.43
69.91
72.15
73.14
72.82
71.12
68.22
64.47
60.42
56.54
53.13
50.11
47.15
43.71
39.29
33.63
26.78
19.01
10.72
2.29
-6.10
-14.43
-22.86
-31.65
-41.07
-51.31
-62.34
-73.75
-84.65
-93.75
-99.63
-100.98
-97.14
-88.35
-75.67
-60.75
-45.27
-30.48
-16.95
-4.73
6.46
16.82
26.33
34.67
41.46
46.41
49.47
50.91
51.17
50.77
50.06
49.27
48.52
47.88
47.46
47.38
47.66
48.13
48.35
47.69
45.54
41.44
35.29
27.35
18.17
8.39
-1.42
-10.86
-19.90
-28.80
-37.99
-47.99
-59.15
-71.41
-84.21
-96.42
-106.45
-112.66
-113.72
-108.98
-98.63
-83.64
-65.44
-45.62
-25.62
-6.55
10.85
26.21
39.50
50.87
60.51
68.59
75.17
80.20
83.65
85.59
86.21
85.84
84.82
83.54
82.23
81.06
79.99
78.83
77.29
75.07
71.98
67.95
63.19
57.99
52.61
47.15
41.52
35.43
28.55
20.77
12.20
3.29
-5.47
-13.76
-21.61
-29.35
-37.59
-46.93
-57.72
-69.99
-83.21
-96.42
-108.21
-117.07
-121.62
-121.05
-115.33
-105.16
-91.73
-76.38
-60.28
-44.23
-28.64
-13.69
0.53
14.00
26.62
38.29
48.90
58.31
66.45
73.30
78.98
83.68
87.54
90.74
93.34
95.32
96.62
97.12
96.67
95.19
92.57
88.80
83.94
78.08
71.43
64.21
56.69
49.14
41.76
34.72
28.08
21.78
15.65
9.42
2.86
-4.19
-11.78
-19.76
-27.99
-36.19
-44.20
-51.99
-59.68
-67.60
-76.12
-85.60
-96.03
-106.98
-117.40
-125.79
-130.53
-130.32
-124.53
-113.37
-97.81
-79.26
-59.28
-39.27
-20.37
-3.32
11.53
24.19
34.94
44.20
52.34
59.50
65.64
70.55
74.11
76.45
77.85
78.76
79.55
80.38
81.24
81.94
82.23
81.87
80.72
78.74
75.98
72.61
68.74
64.49
59.90
54.93
49.52
43.64
37.34
30.80
24.20
17.67
11.28
4.90
-1.73
-8.82
-16.48
-24.61
-32.90
-41.01
-48.61
-55.57
-61.97
-68.15
-74.45
-81.36
-89.16
-97.89
-107.11
-115.82
-122.49
-125.39
-123.24
-115.51
-102.83
-86.68
-69.03
-51.60
-35.51
-21.17
-8.48
2.82
12.98
22.03
29.99
36.90
42.86
48.00
52.40
56.03
58.76
60.49
61.18
60.89
59.89
58.44
56.76
54.90
52.71
49.93
46.42
42.20
37.56
32.89
28.52
24.65
21.26
18.20
15.34
12.63
10.07
7.66
5.28
2.66
-0.47
-4.40
-9.21
-14.82
-20.91
-27.14
-33.14
-38.68
-43.75
-48.50
-53.26
-58.46
-64.53
-71.76
-80.17
-89.22
-97.67
-103.86
-105.98
-102.71
-93.62
-79.39
-61.56
-41.96
-22.21
-3.38
13.93
29.39
42.72
53.62
61.95
67.87
71.78
74.19
75.52
75.94
75.49
74.15
72.07
69.59
67.15
65.12
63.58
62.36
61.14
59.60
57.60
55.09
52.20
49.08
45.88
42.60
39.24
35.80
32.27
28.67
25.08
21.59
18.32
15.26
12.25
8.94
4.92
-0.18
-6.50
-13.85
-21.83
-29.90
-37.58
-44.69
-51.33
-57.85
-64.85
-72.88
-82.26
-92.74
-103.33
-112.26
-117.34
-116.58
-108.90
-94.61
-75.38
-53.79
-32.60
-13.88
1.29
12.89
21.50
27.85
32.44
35.49
37.13
37.47
36.82
35.64
34.28
33.02
31.85
30.56
29.04
27.33
25.74
24.72
24.61
25.41
26.70
27.80
27.91
26.52
23.54
19.23
14.15
8.83
3.65
-1.22
-5.72
-9.82
-13.35
-16.17
-18.11
-19.17
-19.49
-19.51
-19.87
-21.37
-24.76
-30.62
-39.17
-50.11
-62.44
-74.60
-84.59
-90.37
-90.41
-84.13
-72.17
-56.29
-38.86
-22.23
-8.14
2.64
10.25
15.34
18.64
20.68
21.78
22.08
21.85
21.43
21.22
21.60
22.68
24.40
26.56
28.94
31.41
33.83
35.98
37.50
37.91
36.73
33.70
28.94
22.90
16.23
9.50
3.04
-3.13
-9.27
-15.59
-22.22
-29.04
-35.74
-42.03
-47.62
-52.46
-56.63
-60.54
-64.83
-70.37
-77.94
-87.90
-99.78
-112.00
-122.22
-127.91
-127.29
-119.85
-106.52
-89.24
-70.16
-51.03
-32.83
-16.00
-0.60
13.34
25.80
36.84
46.67
55.60
63.80
71.25
77.66
82.65
85.97
87.66
88.07
87.70
87.06
86.37
85.58
84.37
82.32
79.14
74.76
69.37
63.30
56.89
50.30
43.51
36.31
28.44
19.74
10.26
0.34
-9.56
-18.92
-27.36
-34.67
-41.02
-46.83
-52.81
-59.75
-68.29
-78.53
-89.79
-100.54
-108.64
-112.05
-109.40
-100.58
-86.65
-69.55
-51.40
-33.88
-17.99
-4.13
7.66
17.42
25.14
30.87
34.78
37.23
38.62
39.44
39.97
40.48
41.07
41.76
42.54
43.34
44.16
44.95
45.69
46.28
46.52
46.08
44.61
41.86
37.69
32.20
25.55
18.02
9.92
1.57
-6.70
-14.66
-22.24
-29.71
-37.60
-46.60
-57.25
-69.56
-82.80
-95.41
-105.44
-110.94
-110.75
-104.61
-93.30
-78.23
-60.98
-42.99
-25.27
-8.54
6.70
20.13
31.57
40.99
48.51
54.32
58.57
61.46
63.14
63.85
63.90
63.58
63.09
62.56
61.99
61.38
60.74
60.06
59.30
58.36
56.99
54.88
51.67
47.11
41.11
33.77
25.38
16.32
7.06
-2.05
-10.79
-19.06
-26.97
-34.82
-43.11
-52.42
-63.18
-75.28
-87.86
-99.21
-107.20
-109.86
-106.04
-95.78
-80.29
-61.49
-41.40
-21.75
-3.65
12.29
25.85
37.07
46.19
53.53
59.45
64.25
68.12
71.13
73.31
74.68
75.32
75.36
74.87
73.99
72.89
71.72
70.63
69.59
68.31
66.37
63.30
58.74
52.66
45.28
36.95
28.16
19.33
10.80
2.83
-4.52
-11.44
-18.31
-25.67
-33.99
-43.39
-53.42
-62.99
-70.45
-74.11
-72.75
-65.96
-54.47
-39.86
-24.06
-8.78
4.92
16.68
26.60
34.88
41.57
46.45
49.22
49.74
48.12
44.77
40.26
35.09
29.48
23.45
16.88
9.84
2.79
-3.56
-8.37
-11.08
-11.71
-10.81
-9.30
-8.10
-7.90
-8.97
-11.39
-15.07
-19.91
-25.80
-32.53
-39.82
-47.34
-54.95
-62.71
-70.79
-79.15
-87.20
-93.74
-97.20
-96.29
-90.42
-80.12
-66.74
-52.02
-37.48
-23.97
-11.74
-0.58
9.77
19.45
28.40
36.37
43.00
47.95
50.98
52.05
51.44
49.63
47.30
45.07
43.34
42.19
41.39
40.58
39.36
37.57
35.22
32.49
29.59
26.60
23.41
19.65
14.94
8.96
1.77
-6.23
-14.36
-21.94
-28.55
-34.22
-39.48
-45.15
-52.15
-61.04
-71.89
-83.99
-95.84
-105.43
-110.65
-109.84
-102.30
-88.56
-70.20
-49.39
-28.27
-8.45
9.14
24.21
36.83
47.26
55.76
62.52
67.73
71.54
74.12
75.58
76.07
75.72
74.75
73.46
72.22
71.40
71.31
72.11
73.61
75.42
76.95
77.61
77.02
75.14
72.11
68.25
63.88
59.19
54.19
48.75
42.67
35.83
28.27
20.17
11.81
3.43
-4.94
-13.49
-22.65
-32.88
-44.59
-57.88
-72.41
-87.21
-100.69
-110.91
-115.87
-114.30
-105.99
-91.88
-73.86
-54.04
-34.24
-15.61
1.25
16.21
29.24
40.29
49.36
56.51
61.83
65.39
67.21
67.26
65.58
62.34
57.92
52.84
47.72
43.13
39.46
36.93
35.53
35.03
35.02
35.02
34.55
33.26
30.97
27.75
23.88
19.81
15.94
12.50
9.43
6.44
3.08
-1.02
-5.88
-11.31
-16.97
-22.56
-27.97
-33.32
-38.91
-45.12
-52.31
-60.82
-70.72
-81.70
-92.86
-102.59
-109.01
-110.39
-105.76
-95.21
-79.93
-61.81
-42.88
-24.75
-8.45
5.57
17.26
26.76
34.20
39.76
43.63
46.07
47.41
48.01
48.17
48.12
47.96
47.70
47.29
46.66
45.77
44.62
43.22
41.50
39.38
36.76
33.60
29.98
26.12
22.30
18.70
15.29
11.83
7.87
3.05
-2.83
-9.68
-17.21
-25.01
-32.81
-40.54
-48.42
-56.89
-66.37
-77.15
-88.97
-100.88
-111.32
-118.34
-120.17
-115.79
-105.29
-89.77
-71.10
-51.22
-31.77
-13.77
2.25
16.17
28.07
38.03
46.19
52.66
57.63
61.28
63.83
65.51
66.48
67.00
67.19
67.19
67.06
66.88
66.67
66.41
65.97
65.10
63.51
60.84
56.96
51.87
45.86
39.35
32.69
26.11
19.56
12.72
5.10
-3.72
-13.86
-25.06
-36.69
-47.96
-58.17
-66.99
-74.44
-80.97
-87.18
-93.71
-100.98
-108.91
-116.76
-123.16
-126.25
-124.24
-116.00
-101.49
-81.88
-59.27
-36.01
-14.07
5.31
21.66
35.10
46.01
54.83
62.01
67.97
73.06
77.52
81.32
84.30
86.13
86.56
85.58
83.48
80.70
77.78
75.11
72.85
70.96
69.27
67.53
65.51
62.96
59.68
55.55
50.67
45.29
39.81
34.59
29.73
25.02
19.95
14.06
7.11
-0.78
-9.17
-17.57
-25.61
-33.22
-40.52
-47.82
-55.43
-63.68
-72.79
-82.93
-93.86
-104.87
-114.61
-121.27
-123.05
-118.73
-108.14
-92.28
-73.07
-52.74
-33.14
-15.52
-0.29
12.64
23.53
32.60
39.96
45.69
49.95
52.98
55.08
56.51
57.41
57.79
57.65
57.01
56.02
54.99
54.29
54.21
54.90
56.21
57.70
58.74
58.66
56.94
53.42
48.24
41.83
34.73
27.43
20.19
13.08
5.95
-1.50
-9.55
-18.41
-28.09
-38.39
-48.94
-59.36
-69.36
-78.94
-88.43
-98.32
-109.17
-121.22
-134.17
-146.99
-158.04
-165.37
-167.29
-162.83
-151.98
-135.72
-115.65
-93.58
-71.15
-49.64
-29.90
-12.41
2.61
15.16
25.49
33.96
41.02
47.03
52.19
56.60
60.28
63.24
65.63
67.65
69.51
71.40
73.39
75.46
77.53
79.40
80.73
80.95
79.34
75.33
68.76
60.10
50.28
40.32
30.85
21.92
13.02
3.63
-6.30
-16.05
-24.36
-29.95
-32.15
-31.25
-28.48
-25.72
-24.90
-27.56
-34.58
-45.96
-60.75
-77.17
-92.65
-104.44
-110.32
-109.22
-101.72
-89.89
-76.47
-63.83
-53.19
-44.34
-36.01
-26.81
-15.88
-3.22
10.44
24.20
37.36
49.50
60.45
70.12
78.50
85.77
92.33
98.79
105.75
113.53
122.02
130.64
138.51
144.70
148.47
149.45
147.55
143.09
136.44
127.98
117.95
106.44
93.45
79.14
63.94
48.45
33.34
19.05
5.55
-7.64
-21.24
-35.87
-51.55
-67.56
-82.27
-93.62
-99.68
-99.24
-92.24
-79.75
-63.67
-46.14
-29.04
-13.73
-0.95
9.01
16.22
21.09
24.32
26.87
29.69
33.49
38.49
44.38
50.45
55.85
59.88
62.17
62.67
61.52
58.82
54.52
48.52
40.64
30.93
19.61
6.97
-6.76
-21.51
-37.42
-54.67
-73.27
-93.05
-113.53
-134.17
-154.38
-173.63
-191.34
-206.66
-218.32
-224.74
-224.35
-216.04
-199.58
-175.55
-145.03
-109.21
-69.14
-25.85
19.36
64.67
107.83
146.54
178.92
204.04
221.75
232.43
236.48
233.98
224.89
209.25
187.63
161.25
132.03
102.12
73.58
47.95
26.01
7.85
-7.00
-19.40
-30.36
-40.81
-51.56
-63.10
-75.54
-88.57
-101.63
-114.03
-125.26
-135.07
-143.59
-151.31
-158.80
-166.41
-174.00
-180.68
-184.86
-184.60
-178.08
-164.36
-143.71
-117.68
-88.74
-59.55
-32.31
-8.22
12.44
30.11
45.43
58.92
70.82
81.19
89.94
97.05
102.52
106.35
108.59
109.32
108.60
106.56
103.31
99.02
93.88
88.11
81.89
75.40
68.65
61.53
53.83
45.32
35.96
25.90
15.45
4.98
-5.14
-14.71
-23.75
-32.47
-41.23
-50.46
-60.64
-72.11
-84.98
-98.80
-112.47
-124.18
-131.75
-133.15
-127.16
-113.91
-94.87
-72.55
-49.66
-28.50
-10.41
4.27
15.82
24.84
31.73
36.66
39.53
40.09
38.06
33.34
26.13
17.05
7.18
-2.12
-9.48
-13.95
-15.30
-14.11
-11.57
-8.95
-7.24
-6.84
-7.52
-8.59
-9.14
-8.26
-5.14
0.72
9.39
20.36
32.64
44.93
55.96
64.77
70.84
73.85
73.40
69.15
60.93
49.33
36.00
23.51
14.76
11.90
15.62
24.86
37.35
50.50
62.43
72.44
80.91
88.74
96.56
104.23
110.70
114.47
114.05
108.55
97.91
82.88
64.59
44.35
23.41
3.00
-15.56
-30.98
-42.21
-48.80
-51.19
-50.61
-48.72
-47.08
-46.68
-47.67
-49.56
-51.56
-53.13
-54.20
-55.18
-56.67
-59.23
-62.97
-67.56
-72.34
-76.73
-80.41
-83.52
-86.69
-90.73
-96.38
-103.97
-113.05
-122.28
-129.61
-132.65
-129.43
-119.01
-101.80
-79.45
-54.37
-28.99
-5.29
15.64
33.48
48.44
60.97
71.52
80.46
87.99
94.20
99.04
102.40
104.25
104.56
103.45
101.16
98.05
94.55
91.08
87.93
85.26
83.02
80.89
78.32
74.73
69.63
62.82
54.54
45.38
36.07
27.27
19.15
11.45
3.55
-5.16
-14.93
-25.50
-36.16
-46.08
-54.70
-62.07
-68.75
-75.65
-83.67
-93.41
-104.91
-117.57
-130.07
-140.53
-146.78
-146.91
-139.82
-125.75
-106.19
-83.49
-60.18
-38.24
-18.69
-1.56
13.93
28.85
44.00
59.57
75.01
89.29
101.37
110.83
118.14
124.55
131.46
139.70
149.19
159.06
168.20
175.94
182.31
187.69
192.09
194.50
192.82
184.43
167.31
141.10
107.61
70.32
33.33
0.06
-27.67
-49.65
-66.74
-80.13
-90.77
-99.16
-105.68
-110.79
-115.18
-119.54
-124.31
-129.56
-135.03
-140.43
-145.70
-151.04
-156.80
-162.96
-168.81
-172.71
-172.44
-165.85
-151.55
-129.59
-101.48
-69.80
-37.47
-6.99
20.07
42.98
61.72
76.64
88.12
96.51
102.10
105.09
105.76
104.48
101.85
98.57
95.32
92.59
90.52
88.95
87.57
86.16
84.62
83.05
81.49
79.80
77.58
74.38
69.83
63.79
56.45
48.11
39.21
30.04
20.69
11.10
1.13
-9.26
-19.91
-30.35
-39.99
-48.15
-54.37
-58.52
-60.94
-62.33
-63.59
-65.66
-69.31
-74.94
-82.43
-90.85
-98.52
-103.19
-102.62
-95.32
-81.06
-61.06
-37.64
-13.47
9.08
28.41
43.82
55.25
62.97
67.46
69.23
68.93
67.22
64.80
62.18
59.66
57.36
55.26
53.34
51.67
50.39
49.61
49.36
49.44
49.45
48.94
47.49
44.92
41.28
36.83
31.90
26.74
21.46
15.95
10.10
3.84
-2.70
-9.31
-15.76
-21.91
-27.88
-33.98
-40.68
-48.46
-57.66
-68.23
-79.61
-90.54
-99.21
-103.64
-102.17
-94.16
-80.25
-62.35
-42.97
-24.54
-8.68
3.97
13.55
20.55
25.37
28.17
29.00
28.07
25.88
23.19
20.79
19.15
18.39
18.18
17.98
17.31
15.90
13.76
11.11
8.27
5.44
2.64
-0.31
-3.82
-8.25
-13.87
-20.66
-28.35
-36.55
-44.97
-53.60
-62.65
-72.51
-83.46
-95.57
-108.46
-121.32
-132.93
-141.71
-145.88
-143.84
-134.62
-118.20
-95.77
-69.54
-42.12
-15.98
7.16
26.41
41.70
53.28
61.57
66.98
69.82
70.47
69.41
67.21
64.42
61.63
59.18
57.25
55.74
54.40
52.91
51.06
48.93
46.70
44.55
42.47
40.19
37.12
32.64
26.34
18.14
8.44
-2.06
-12.60
-22.55
-31.60
-39.85
-47.75
-55.91
-64.93
-75.14
-86.40
-97.84
-107.95
-114.72
-116.16
-110.95
-98.79
-80.73
-58.83
-35.61
-13.35
6.37
22.84
36.08
46.54
54.72
61.03
65.77
69.10
71.22
72.30
72.53
72.03
70.93
69.25
66.97
64.05
60.58
56.74
52.81
49.04
45.61
42.47
39.35
35.85
31.52
26.05
19.35
11.63
3.33
-5.05
-13.06
-20.48
-27.42
-34.27
-41.62
-49.98
-59.65
-70.42
-81.46
-91.25
-97.86
-99.38
-94.46
-82.83
-65.52
-44.61
-22.65
-1.96
15.93
30.38
41.50
49.82
55.81
59.84
62.11
62.81
62.25
60.82
58.93
56.88
54.80
52.64
50.29
47.71
45.00
42.38
40.04
37.99
35.92
33.22
29.17
23.24
15.30
5.76
-4.61
-14.87
-24.29
-32.60
-39.98
-47.03
-54.43
-62.77
-72.34
-82.99
-93.97
-103.92
-111.07
-113.51
-109.83
-99.59
-83.57
-63.66
-42.25
-21.56
-3.07
12.65
25.65
36.23
44.54
50.50
53.95
54.92
53.84
51.49
48.88
46.87
45.92
45.91
46.33
46.43
45.65
43.82
41.20
38.30
35.46
32.67
29.46
25.18
19.24
11.53
2.45
-7.26
-16.77
-25.64
-33.81
-41.59
-49.44
-57.82
-67.10
-77.55
-89.28
-101.96
-114.67
-125.65
-132.60
-133.30
-126.37
-111.92
-91.59
-68.07
-44.21
-22.25
-3.24
12.73
26.18
37.84
48.15
57.31
65.25
71.82
76.86
80.30
82.16
82.59
81.87
80.39
78.50
76.50
74.55
72.61
70.53
68.05
64.90
60.88
55.87
49.87
42.98
35.32
27.02
18.23
9.08
-0.23
-9.51
-18.62
-27.55
-36.38
-45.37
-54.88
-65.38
-77.21
-90.40
-104.46
-118.12
-129.45
-136.22
-136.52
-129.42
-115.30
-95.75
-73.07
-49.63
-27.22
-6.93
10.77
25.90
38.54
48.91
57.33
64.18
69.92
74.92
79.36
83.19
86.22
88.33
89.54
90.07
90.26
90.39
90.60
90.75
90.50
89.44
87.15
83.37
78.08
71.51
64.07
56.25
48.43
40.72
32.93
24.63
15.43
5.27
-5.56
-16.42
-26.63
-35.82
-44.11
-52.13
-60.81
-70.98
-82.98
-96.41
-110.03
-121.88
-129.67
-131.40
-125.90
-113.29
-94.91
-73.01
-50.05
-28.11
-8.48
8.34
22.44
34.10
43.61
51.11
56.69
60.44
62.54
63.28
62.95
61.92
60.54
59.16
58.11
57.56
57.54
57.82
58.08
57.81
56.64
54.38
51.04
46.84
42.04
36.78
31.03
24.64
17.37
9.14
0.11
-9.30
-18.57
-27.19
-34.86
-41.69
-48.10
-54.77
-62.44
-71.57
-82.18
-93.52
-103.98
-111.40
-113.51
-108.66
-96.41
-77.84
-55.18
-31.22
-8.45
11.52
28.07
41.40
51.97
60.21
66.36
70.59
73.09
74.19
74.35
73.97
73.32
72.48
71.32
69.68
67.38
64.28
60.32
55.44
49.61
42.90
35.52
27.83
20.32
13.50
7.75
3.24
-0.07
-2.51
-4.47
-6.43
-8.87
-12.18
-16.58
-22.00
-28.12
-34.39
-40.31
-45.61
-50.46
-55.48
-61.55
-69.43
-79.33
-90.68
-102.00
-111.24
-116.15
-114.93
-106.71
-91.90
-71.98
-49.10
-25.62
-3.39
16.37
33.18
47.12
58.54
67.76
74.94
80.08
83.03
83.72
82.19
78.81
74.21
69.23
64.78
61.61
60.20
60.64
62.64
65.59
68.62
70.76
71.15
69.09
64.25
56.75
47.14
36.24
25.03
14.25
4.37
-4.55
-12.66
-20.16
-27.11
-33.50
-39.25
-44.46
-49.52
-55.01
-61.68
-70.18
-80.88
-93.58
-107.41
-120.67
-131.00
-135.85
-133.15
-122.00
-103.14
-78.78
-52.04
-26.10
-3.32
15.14
29.23
39.55
46.93
52.01
55.26
57.05
57.87
58.30
58.94
60.15
61.83
63.54
64.64
64.71
63.64
61.69
59.31
56.87
54.51
52.04
49.21
45.71
41.34
35.98
29.56
22.08
13.67
4.68
-4.51
-13.47
-21.95
-29.87
-37.36
-44.71
-52.29
-60.54
-69.76
-79.95
-90.46
-99.87
-106.13
-107.06
-101.18
-88.30
-69.82
-48.23
-26.45
-6.80
9.37
21.82
31.03
37.67
42.27
45.12
46.37
46.22
44.94
42.90
40.41
37.72
34.96
32.23
29.55
26.90
24.22
21.42
18.35
14.88
10.81
5.93
-0.01
-7.12
-15.39
-24.57
-34.23
-43.90
-53.09
-61.39
-68.50
-74.15
-78.10
-80.13
-80.20
-78.50
-75.56
-72.14
-69.05
-66.83
-65.51
-64.40
-62.34
-58.07
-50.78
-40.48
-28.04
-14.77
-1.88
9.99
20.89
31.25
41.48
51.66
61.39
70.10
77.24
82.50
85.83
87.38
87.35
85.94
83.44
80.20
76.60
72.99
69.59
66.49
63.59
60.76
57.84
54.69
51.18
47.19
42.57
37.17
30.90
23.69
15.64
6.78
-2.77
-12.90
-23.53
-34.55
-45.93
-57.69
-69.99
-83.03
-96.81
-110.79
-123.62
-133.17
-136.97
-133.05
-120.65
-100.67
-75.46
-48.19
-21.83
1.61
21.26
37.24
50.26
61.00
69.94
77.24
82.97
87.08
89.66
90.80
90.67
89.43
87.21
84.20
80.59
76.62
72.43
68.15
63.71
58.95
53.61
47.47
40.39
32.33
23.35
13.54
3.01
-8.06
-19.36
-30.50
-41.03
-50.49
-58.67
-65.65
-71.81
-77.77
-84.28
-91.97
-101.15
-111.48
-121.89
-130.50
-134.95
-133.02
-123.39
-106.21
-83.24
-57.30
-31.52
-8.33
10.94
26.16
37.92
47.08
54.30
59.89
63.98
66.62
67.95
68.19
67.69
66.74
65.58
64.32
62.97
61.43
59.60
57.40
54.75
51.60
47.85
43.37
38.07
31.91
24.88
17.12
8.74
-0.13
-9.43
-19.04
-28.83
-38.56
-47.91
-56.61
-64.47
-71.58
-78.33
-85.33
-93.24
-102.31
-111.94
-120.64
-126.25
-126.51
-119.83
-106.00
-86.26
-63.00
-38.90
-16.17
3.95
21.11
35.64
48.00
58.55
67.58
75.30
82.08
88.31
94.24
99.80
104.57
107.88
109.06
107.70
103.76
97.58
89.82
81.19
72.40
63.96
56.15
48.98
42.28
35.62
28.46
20.31
10.79
-0.16
-12.21
-24.80
-37.18
-48.76
-59.31
-69.01
-78.43
-88.19
-98.62
-109.44
-119.62
-127.39
-130.63
-127.50
-116.96
-99.18
-75.59
-48.51
-20.65
5.62
28.72
47.98
63.48
75.76
85.38
92.82
98.34
102.07
104.11
104.69
104.07
102.50
100.15
96.98
92.84
87.62
81.38
74.46
67.43
60.79
54.76
49.08
43.10
35.96
27.08
16.38
4.43
-7.78
-19.17
-29.02
-37.18
-44.11
-50.59
-57.44
-65.37
-74.74
-85.47
-96.97
-108.05
-117.04
-122.05
-121.51
-114.68
-101.95
-84.79
-65.27
-45.49
-27.02
-10.73
2.99
13.99
22.13
27.30
29.66
29.75
28.55
27.23
26.82
27.82
30.10
33.02
35.79
37.83
38.97
39.43
39.54
39.49
39.11
37.90
35.28
30.82
24.47
16.57
7.69
-1.63
-11.04
-20.52
-30.32
-40.87
-52.67
-66.07
-81.16
-97.41
-113.63
-127.90
-137.85
-141.26
-136.73
-124.18
-104.99
-81.67
-57.11
-33.80
-13.36
3.58
17.07
27.54
35.42
41.07
44.90
47.32
48.80
49.71
50.12
49.91
48.77
46.51
43.22
39.32
35.40
32.05
29.48
27.45
25.25
22.09
17.33
10.85
3.01
-5.47
-13.86
-21.79
-29.31
-36.93
-45.39
-55.43
-67.44
-81.24
-95.85
-109.40
-119.42
-123.45
-119.82
-108.31
-90.41
-68.78
-46.43
-25.86
-8.39
5.79
17.25
26.87
35.44
43.55
51.60
59.87
68.44
77.22
85.98
94.40
102.13
108.88
114.42
118.57
121.28
122.52
122.25
120.24
116.10
109.33
99.57
86.87
71.88
55.77
39.82
25.02
11.68
-0.60
-12.75
-25.91
-41.08
-58.64
-78.00
-97.49
-114.35
-125.39
-127.85
-120.37
-103.62
-80.12
-53.52
-27.44
-4.50
14.07
28.24
38.55
45.57
49.70
51.17
50.28
47.59
43.81
39.74
36.03
32.98
30.60
28.67
26.91
25.03
22.98
20.85
18.83
17.04
15.45
13.85
11.97
9.53
6.39
2.62
-1.61
-6.04
-10.53
-15.03
-19.66
-24.60
-30.11
-36.45
-43.83
-52.34
-61.70
-71.14
-79.28
-84.31
-84.43
-78.43
-66.16
-48.71
-28.16
-6.98
12.66
29.29
42.31
51.72
57.85
61.11
61.88
60.48
57.42
53.22
48.58
44.14
40.38
37.47
35.28
33.41
31.38
28.87
25.81
22.43
19.14
16.19
13.59
11.01
7.92
3.86
-1.33
-7.44
-13.93
-20.04
-25.16
-28.81
-30.97
-31.95
-32.48
-33.57
-36.37
-41.91
-50.56
-61.76
-73.75
-83.85
-89.17
-87.45
-77.82
-61.09
-39.43
-15.63
7.73
28.85
46.76
61.11
71.78
78.72
81.93
81.70
78.67
73.84
68.38
63.26
59.08
55.98
53.81
52.26
51.14
50.31
49.70
49.18
48.54
47.41
45.47
42.55
38.66
34.04
28.99
23.75
18.47
13.16
7.66
1.82
-4.41
-10.91
-17.38
-23.42
-28.85
-33.78
-38.73
-44.51
-51.94
-61.47
-72.68
-84.20
-93.86
-99.29
-98.54
-90.78
-76.54
-57.53
-36.12
-14.64
5.12
22.09
35.78
46.05
52.88
56.31
56.50
53.87
49.14
43.22
37.08
31.45
26.70
22.79
19.47
16.47
13.70
11.26
9.33
8.02
7.16
6.31
4.87
2.22
-1.98
-7.71
-14.56
-21.87
-28.92
-35.20
-40.57
-45.27
-49.80
-54.76
-60.73
-68.12
-77.05
-87.17
-97.37
-105.80
-110.05
-107.91
-98.05
-80.67
-57.53
-31.37
-5.11
18.99
39.74
56.84
70.44
80.79
88.00
92.13
93.51
92.73
90.65
88.14
85.79
83.78
81.83
79.51
76.38
72.29
67.38
61.95
56.27
50.35
43.90
36.40
27.41
16.70
4.50
-8.73
-22.39
-35.93
-49.06
-61.68
-73.90
-85.92
-98.03
-110.51
-123.28
-135.74
-146.53
-153.64
-154.92
-148.71
-134.55
-113.48
-87.83
-60.51
-34.28
-11.10
8.00
22.79
33.59
40.95
45.54
48.19
49.87
51.49
53.69
56.73
60.35
63.91
66.63
67.85
67.25
65.00
61.60
57.76
54.05
50.60
47.05
42.64
36.56
28.40
18.32
7.10
-4.12
-14.26
-22.69
-29.36
-34.74
-39.72
-45.29
-52.32
-61.13
-71.15
-80.69
-87.25
-88.13
-81.44
-66.95
-46.28
-22.49
1.04
21.65
38.09
50.35
59.27
65.68
70.17
72.93
73.96
73.38
71.57
69.09
66.41
63.91
61.60
59.34
56.93
54.27
51.49
48.92
46.85
45.37
44.24
42.88
40.53
36.57
30.70
23.10
14.38
5.27
-3.60
-11.97
-19.96
-28.07
-36.85
-46.81
-58.26
-71.16
-85.04
-98.73
-110.38
-117.72
-118.58
-111.61
-96.92
-76.15
-52.05
-27.66
-5.40
13.33
28.18
39.43
47.59
53.12
56.39
57.80
57.83
57.03
55.82
54.47
52.87
50.75
47.84
44.04
39.64
35.16
31.22
28.17
25.92
23.86
21.15
17.01
11.10
3.65
-4.65
-12.96
-20.59
-27.21
-32.98
-38.41
-44.26
-51.26
-59.83
-69.86
-80.45
-89.86
-95.93
-96.59
-90.53
-77.73
-59.55
-38.28
-16.49
3.61
20.70
34.26
44.34
51.20
55.10
56.30
55.23
52.59
49.24
46.00
43.33
41.27
39.53
37.65
35.36
32.67
29.87
27.34
25.24
23.40
21.32
18.28
13.67
7.24
-0.79
-9.82
-19.08
-27.91
-36.00
-43.53
-51.00
-59.14
-68.58
-79.66
-92.07
-104.70
-115.61
-122.42
-122.91
-115.74
-101.01
-80.18
-55.83
-30.76
-7.33
13.00
29.69
42.78
52.62
59.50
63.72
65.62
65.77
64.87
63.67
62.74
62.33
62.24
62.04
61.22
59.57
57.18
54.47
51.90
49.73
47.76
45.32
41.48
35.41
26.78
15.92
3.73
-8.61
-20.14
-30.41
-39.54
-48.14
-57.00
-66.79
-77.86
-89.97
-102.19
-112.92
-120.06
-121.48
-115.71
-102.47
-83.02
-59.75
-35.56
-13.00
6.31
21.84
33.81
42.71
48.95
52.78
54.44
54.30
52.94
50.96
48.84
46.70
44.42
41.79
38.76
35.59
32.70
30.50
29.06
28.04
26.66
24.05
19.68
13.49
6.00
-1.94
-9.54
-16.33
-22.36
-28.14
-34.51
-42.31
-52.11
-63.84
-76.56
-88.44
-97.06
-100.02
-95.65
-83.69
-65.42
-43.30
-20.17
1.48
20.14
35.29
47.04
55.74
61.52
64.21
63.57
59.57
52.58
43.50
33.51
23.89
15.63
9.30
5.00
2.54
1.58
1.79
2.88
4.47
6.03
6.86
6.20
3.44
-1.61
-8.69
-17.09
-25.87
-34.16
-41.40
-47.47
-52.79
-58.11
-64.35
-72.28
-82.21
-93.56
-104.78
-113.45
-116.79
-112.56
-99.84
-79.39
-53.52
-25.28
2.42
27.52
49.07
66.99
81.60
93.23
102.04
108.07
111.36
112.15
110.77
107.70
103.43
98.37
92.90
87.32
81.86
76.70
71.93
67.49
63.18
58.71
53.68
47.73
40.57
32.05
22.19
11.23
-0.48
-12.52
-24.44
-35.90
-46.70
-56.80
-66.26
-75.31
-84.27
-93.63
-103.88
-115.10
-126.80
-137.44
-144.63
-145.62
-138.19
-121.53
-96.61
-66.05
-33.18
-1.23
27.58
52.14
72.31
88.37
100.73
109.74
115.74
119.14
120.36
119.82
117.80
114.45
109.94
104.47
98.51
92.61
87.32
82.97
79.56
76.73
73.84
70.25
65.43
59.16
51.50
42.74
33.23
23.26
13.07
2.83
-7.28
-17.11
-26.50
-35.36
-43.74
-51.76
-59.76
-68.19
-77.72
-88.94
-102.23
-117.24
-132.65
-146.08
-154.48
-155.00
-145.76
-126.65
-99.38
-67.00
-33.03
-0.58
28.09
51.82
70.19
83.23
91.13
94.22
93.05
88.54
81.87
74.26
66.83
60.30
54.93
50.65
47.18
44.37
42.17
40.71
40.04
40.08
40.42
40.53
39.92
38.36
35.99
33.23
30.57
28.33
26.51
24.73
22.45
19.18
14.60
8.68
1.67
-6.05
-14.15
-22.39
-30.79
-39.69
-49.65
-61.32
-75.13
-90.81
-107.17
-122.01
-132.53
-136.05
-130.93
-116.98
-95.71
-69.78
-42.24
-15.76
7.81
27.62
43.43
55.45
64.11
69.84
73.14
74.53
74.52
73.57
71.99
70.00
67.69
65.14
62.47
59.81
57.38
55.39
53.96
53.01
52.26
51.22
49.36
46.26
41.72
35.90
29.19
22.16
15.28
8.79
2.53
-3.92
-11.02
-19.01
-27.69
-36.49
-44.72
-51.84
-57.78
-62.98
-68.28
-74.58
-82.55
-92.35
-103.40
-114.33
-123.07
-127.25
-124.82
-114.70
-97.19
-74.01
-47.84
-21.59
2.32
22.41
38.09
49.52
57.15
61.60
63.50
63.57
62.55
61.19
60.11
59.58
59.58
59.84
59.99
59.78
59.16
58.30
57.43
56.72
56.14
55.45
54.25
52.14
48.86
44.37
38.94
32.96
26.89
21.00
15.30
9.51
3.23
-3.86
-11.83
-20.33
-28.80
-36.60
-43.36
-49.16
-54.56
-60.52
-67.98
-77.58
-89.17
-101.60
-112.80
-120.16
-121.22
-114.39
-99.55
-78.05
-52.47
-25.74
-0.54
21.25
38.68
51.50
60.05
64.82
66.51
65.81
63.53
60.43
57.13
54.05
51.35
48.98
46.80
44.68
42.65
40.86
39.58
38.92
38.79
38.77
38.27
36.71
33.77
29.47
24.22
18.55
12.89
7.44
2.03
-3.66
-9.96
-16.97
-24.50
-32.14
-39.27
-45.44
-50.43
-54.47
-58.19
-62.49
-68.28
-76.15
-85.93
-96.46
-105.63
-110.81
-109.65
-100.84
-84.69
-63.03
-38.76
-14.85
6.35
23.58
36.59
45.77
51.64
54.66
55.12
53.41
50.09
45.98
41.97
38.77
36.73
35.71
35.19
34.58
33.41
31.59
29.38
27.11
25.02
23.01
20.62
17.26
12.39
5.86
-2.07
-10.73
-19.29
-27.00
-33.49
-38.81
-43.34
-47.72
-52.68
-58.89
-66.75
-76.12
-86.12
-95.05
-100.64
-100.64
-93.61
-79.45
-59.61
-36.59
-13.26
7.93
25.56
39.08
48.73
54.93
58.19
58.91
57.50
54.47
50.47
46.20
42.30
39.18
36.90
35.22
33.68
31.88
29.62
26.95
24.17
21.48
18.92
16.20
12.83
8.24
2.13
-5.52
-14.43
-24.03
-33.72
-42.98
-51.47
-59.22
-66.51
-73.90
-82.10
-91.76
-103.16
-115.94
-128.88
-139.90
-146.54
-146.52
-138.59
-123.02
-101.60
-77.11
-52.51
-30.04
-10.79
5.27
18.82
30.82
42.06
53.11
64.27
75.52
86.59
96.97
105.88
112.57
116.48
117.40
115.60
111.59
105.99
99.40
92.25
84.77
76.87
68.15
57.94
45.58
30.69
13.48
-5.11
-23.68
-40.76
-55.32
-67.02
-76.32
-84.11
-91.44
-99.26
-108.09
-118.00
-128.28
-137.46
-143.47
-144.02
-137.32
-122.78
-101.29
-75.07
-47.03
-19.90
4.44
25.12
42.20
56.15
67.42
76.27
82.75
86.87
88.79
88.90
87.66
85.55
82.84
79.57
75.64
71.01
65.76
60.30
55.14
50.70
47.09
43.97
40.56
36.00
29.61
21.19
11.09
0.13
-10.77
-20.90
-29.90
-37.91
-45.36
-52.86
-61.04
-70.42
-81.25
-93.14
-104.91
-114.49
-119.41
-117.38
-107.17
-89.16
-65.28
-38.50
-11.90
12.19
32.55
49.00
61.94
71.92
79.30
84.34
87.21
88.22
87.79
86.41
84.50
82.33
80.07
77.74
75.34
72.74
69.86
66.55
62.75
58.46
53.67
48.36
42.41
35.65
27.89
19.06
9.34
-0.92
-11.16
-20.90
-29.81
-37.93
-45.57
-53.32
-61.89
-71.90
-83.66
-96.86
-110.41
-122.39
-130.41
-132.19
-126.24
-112.46
-92.25
-68.11
-42.82
-18.83
2.41
20.37
35.28
47.67
57.99
66.43
73.02
77.76
80.76
82.36
83.00
83.00
82.50
81.44
79.65
77.03
73.65
69.76
65.62
61.27
56.46
50.71
43.39
34.12
22.81
9.78
-4.29
-18.55
-32.21
-44.76
-56.09
-66.57
-76.86
-87.76
-99.81
-113.05
-126.75
-139.37
-148.72
-152.38
-148.40
-135.89
-115.42
-88.93
-59.23
-29.24
-1.32
23.11
43.57
60.10
73.01
82.53
88.83
92.17
92.90
91.55
88.75
85.06
80.89
76.50
72.02
67.60
63.39
59.60
56.39
53.77
51.55
49.23
46.15
41.67
35.36
27.18
17.53
7.12
-3.27
-13.10
-22.21
-30.81
-39.39
-48.51
-58.65
-70.07
-82.68
-95.71
-107.69
-116.50
-119.76
-115.66
-103.53
-84.26
-60.08
-33.90
-8.41
14.50
33.92
49.67
61.91
70.75
76.34
78.91
78.92
77.10
74.23
70.96
67.55
64.01
60.21
56.19
52.31
49.23
47.63
47.90
49.79
52.43
54.44
54.49
51.65
45.77
37.48
27.79
17.76
8.00
-1.45
-11.16
-21.96
-34.62
-49.46
-66.06
-83.17
-98.71
-110.12
-114.91
-111.42
-99.28
-79.74
-55.37
-29.35
-4.76
16.20
32.48
44.14
51.93
56.91
60.03
61.96
63.05
63.44
63.14
62.15
60.50
58.33
55.88
53.39
51.08
49.07
47.24
45.31
42.85
39.34
34.45
28.05
20.34
11.77
2.93
-5.68
-13.86
-21.86
-30.33
-40.01
-51.37
-64.03
-76.57
-86.59
-91.38
-88.88
-78.41
-61.02
-39.13
-15.72
6.56
26.03
42.01
54.46
63.58
69.49
72.31
72.29
70.03
66.41
62.37
58.70
55.76
53.53
51.64
49.64
47.25
44.45
41.47
38.57
35.89
33.25
30.18
26.06
20.33
12.79
3.63
-6.60
-17.19
-27.45
-36.91
-45.43
-53.27
-61.03
-69.57
-79.59
-91.35
-104.29
-116.81
-126.57
-131.01
-128.08
-117.03
-98.61
-74.87
-48.60
-22.45
1.54
22.27
39.39
53.04
63.54
71.21
76.37
79.39
80.69
80.71
79.80
78.18
75.99
73.31
70.33
67.27
64.38
61.86
59.69
57.61
55.30
52.43
48.81
44.43
39.33
33.53
26.96
19.55
11.27
2.31
-6.94
-16.03
-24.62
-32.68
-40.45
-48.44
-57.17
-67.10
-78.43
-90.98
-104.07
-116.29
-125.67
-129.96
-127.24
-116.61
-98.70
-75.52
-50.04
-25.18
-3.07
15.32
30.08
41.89
51.37
58.86
64.37
67.80
69.27
69.18
68.08
66.56
64.92
63.21
61.32
59.08
56.54
53.83
51.26
48.96
46.90
44.79
42.23
38.84
34.31
28.50
21.42
13.17
3.97
-5.82
-15.73
-25.26
-33.95
-41.60
-48.29
-54.45
-60.69
-67.66
-75.70
-84.62
-93.44
-100.45
-103.58
-100.90
-91.38
-75.30
-54.31
-30.97
-7.95
12.58
29.47
42.47
51.93
58.37
62.18
63.71
63.24
61.19
58.06
54.47
50.97
47.90
45.33
43.18
41.23
39.27
37.12
34.68
31.92
28.81
25.41
21.73
17.77
13.47
8.58
2.83
-4.04
-11.97
-20.62
-29.32
-37.41
-44.50
-50.61
-56.25
-62.13
-68.98
-77.29
-87.19
-98.21
-109.23
-118.44
-123.57
-122.42
-113.59
-97.08
-74.43
-48.42
-22.18
1.62
21.38
36.70
48.10
56.57
62.99
67.97
71.70
74.09
74.90
73.93
71.14
66.64
60.75
53.85
46.45
39.17
32.68
27.64
24.46
23.16
23.25
23.89
24.19
23.48
21.57
18.59
14.91
10.70
5.82
-0.14
-7.57
-16.56
-26.71
-37.21
-47.21
-56.07
-63.71
-70.54
-77.36
-84.95
-93.89
-104.17
-115.01
-124.87
-131.53
-132.62
-126.31
-111.99
-90.60
-64.42
-36.48
-9.67
13.90
33.25
48.31
59.56
67.70
73.29
76.81
78.63
79.12
78.59
77.36
75.69
73.74
71.55
69.07
66.34
63.40
60.49
57.87
55.72
54.00
52.31
50.09
46.75
42.03
36.01
29.15
22.07
15.27
8.88
2.65
-3.88
-11.15
-19.31
-28.08
-36.82
-44.87
-51.75
-57.40
-62.21
-66.83
-72.04
-78.51
-86.59
-96.11
-106.13
-114.99
-120.42
-120.20
-112.78
-98.02
-77.25
-53.03
-28.28
-5.50
13.74
28.93
40.35
48.60
54.31
58.01
60.11
61.03
61.14
60.79
60.18
59.31
58.12
56.42
54.19
51.63
49.07
46.86
45.15
43.73
42.06
39.49
35.55
30.19
23.79
16.85
9.80
2.87
-4.00
-10.95
-18.00
-25.00
-31.70
-37.87
-43.38
-48.38
-53.27
-58.61
-65.00
-72.76
-81.72
-91.05
-99.12
-103.84
-103.09
-95.46
-80.82
-60.44
-36.66
-12.31
10.11
29.06
44.01
55.22
63.30
68.78
72.00
73.21
72.72
71.02
68.71
66.30
64.08
62.03
59.94
57.52
54.64
51.35
47.82
44.26
40.74
37.19
33.38
29.04
23.94
18.04
11.46
4.50
-2.56
-9.61
-16.76
-24.20
-32.08
-40.29
-48.43
-56.01
-62.57
-68.04
-72.70
-77.20
-82.29
-88.65
-96.51
-105.51
-114.44
-121.29
-123.69
-119.50
-107.68
-88.62
-64.34
-37.77
-12.07
10.42
28.39
41.75
51.10
57.22
60.83
62.37
62.19
60.61
58.06
55.05
52.03
49.42
47.41
46.07
45.31
45.00
44.88
44.70
44.16
42.90
40.66
37.26
32.72
27.17
20.85
14.02
6.80
-0.84
-9.07
-18.02
-27.67
-37.75
-47.75
-57.16
-65.64
-73.24
-80.51
-88.34
-97.52
-108.42
-120.43
-131.82
-140.06
-142.34
-136.60
-122.24
-100.42
-73.68
-45.25
-18.07
5.87
25.60
41.09
52.72
61.02
66.54
69.82
71.45
71.96
71.76
70.98
69.67
67.82
65.55
63.16
60.92
58.96
57.19
55.32
53.02
50.14
46.73
42.93
38.80
34.09
28.36
21.19
12.44
2.40
-8.25
-18.67
-28.21
-36.56
-43.87
-50.65
-57.49
-65.07
-73.93
-84.38
-96.29
-108.78
-120.09
-127.78
-129.29
-122.77
-107.83
-85.81
-59.45
-32.05
-6.50
15.41
33.13
47.06
58.02
66.80
73.86
79.30
83.06
85.07
85.42
84.38
82.31
79.60
76.50
73.16
69.66
66.04
62.42
58.91
55.55
52.25
48.76
44.78
40.04
34.40
27.83
20.42
12.27
3.58
-5.39
-14.33
-23.00
-31.28
-39.30
-47.42
-56.19
-66.14
-77.62
-90.60
-104.43
-117.72
-128.38
-134.02
-132.56
-122.90
-105.41
-81.88
-55.04
-27.76
-2.36
19.73
38.02
52.64
64.05
72.76
79.26
83.94
87.10
88.99
89.76
89.62
88.78
87.56
86.27
85.15
84.28
83.59
82.92
81.98
80.53
78.27
74.98
70.51
64.85
58.08
50.32
41.77
32.57
22.79
12.47
1.65
-9.53
-20.76
-31.61
-41.70
-50.77
-58.95
-66.74
-74.92
-84.33
-95.41
-107.82
-120.18
-130.18
-135.12
-132.73
-121.93
-103.32
-79.05
-52.20
-25.83
-2.20
17.59
33.41
45.71
55.02
61.67
65.98
68.22
68.86
68.42
67.46
66.34
65.27
64.34
63.63
63.20
63.11
63.29
63.48
63.33
62.41
60.41
57.20
52.78
47.33
41.05
34.10
26.58
18.60
10.25
1.72
-6.69
-14.71
-22.14
-29.00
-35.57
-42.30
-49.81
-58.64
-69.06
-80.79
-92.76
-103.11
-109.46
-109.67
-102.44
-87.88
-67.52
-43.93
-19.87
2.38
21.46
36.97
49.11
58.48
65.63
70.99
74.90
77.62
79.35
80.26
80.47
80.03
78.93
77.19
74.84
72.08
69.19
66.53
64.32
62.57
60.95
58.92
55.85
51.31
45.26
38.09
30.41
22.78
15.49
8.40
1.09
-6.91
-15.85
-25.56
-35.54
-45.14
-53.77
-61.19
-67.61
-73.60
-79.99
-87.61
-97.00
-108.10
-119.97
-130.79
-138.15
-139.60
-133.46
-119.41
-98.65
-73.56
-47.00
-21.48
1.38
20.90
37.17
50.53
61.35
69.89
76.36
80.99
84.12
86.11
87.25
87.75
87.71
87.11
86.01
84.53
82.78
80.90
78.92
76.78
74.35
71.42
67.82
63.46
58.28
52.31
45.64
38.43
30.93
23.45
16.24
9.40
2.90
-3.47
-9.98
-16.81
-23.94
-31.12
-37.94
-44.07
-49.42
-54.26
-59.18
-64.93
-72.19
-81.29
-92.04
-103.46
-113.89
-121.11
-122.89
-117.63
-104.89
-85.70
-62.35
-37.63
-14.13
6.45
23.44
37.03
47.79
56.25
62.75
67.39
70.24
71.48
71.40
70.42
68.87
66.99
64.84
62.45
59.82
57.10
54.53
52.36
50.77
49.74
48.98
48.00
46.24
43.24
38.96
33.68
27.95
22.43
17.47
13.10
8.91
4.36
-1.15
-7.82
-15.55
-23.87
-32.17
-39.94
-46.84
-52.94
-58.56
-64.33
-70.82
-78.49
-87.46
-97.19
-106.56
-113.75
-116.67
-113.56
-103.60
-87.24
-66.27
-43.26
-20.75
-0.73
15.86
28.94
38.89
46.15
51.04
53.77
54.58
54.03
52.79
51.59
50.96
50.97
51.42
51.88
51.99
51.60
50.84
49.89
48.87
47.73
46.20
43.94
40.68
36.28
30.78
24.48
17.74
10.91
4.33
-1.86
-7.63
-13.15
-18.67
-24.41
-30.42
-36.66
-42.93
-48.94
-54.46
-59.45
-64.16
-69.05
-74.75
-81.78
-90.36
-100.11
-109.88
-117.89
-121.98
-120.27
-111.76
-96.77
-76.80
-54.21
-31.47
-10.51
7.54
22.32
34.02
43.10
50.02
55.28
59.28
62.40
64.83
66.65
67.78
68.13
67.71
66.65
65.22
63.69
62.24
60.89
59.54
57.98
55.98
53.40
50.24
46.52
42.24
37.37
31.84
25.66
19.05
12.42
6.22
0.71
-4.11
-8.58
-13.20
-18.39
-24.30
-30.76
-37.38
-43.79
-49.73
-55.19
-60.31
-65.31
-70.56
-76.54
-83.74
-92.38
-102.08
-111.56
-118.70
-121.01
-116.40
-104.05
-84.78
-60.87
-35.32
-10.95
10.28
27.56
40.98
51.10
58.61
63.98
67.52
69.50
70.24
70.13
69.53
68.73
67.82
66.75
65.39
63.60
61.28
58.39
54.84
50.51
45.34
39.40
33.02
26.73
21.11
16.55
13.12
10.58
8.63
7.03
5.81
5.10
5.01
5.36
5.72
5.50
4.27
1.93
-1.21
-4.56
-7.60
-10.02
-12.05
-14.30
-17.69
-23.14
-31.31
-42.44
-55.99
-70.66
-84.43
-94.78
-99.29
-96.34
-85.61
-68.35
-47.11
-25.01
-4.85
11.49
23.31
30.90
35.04
36.56
36.12
34.22
31.35
28.03
24.77
21.97
19.78
18.07
16.58
15.14
13.76
12.66
12.17
12.49
13.51
14.74
15.44
14.89
12.68
8.82
3.80
-1.67
-6.97
-11.80
-16.22
-20.66
-25.58
-31.30
-37.88
-44.99
-52.13
-58.75
-64.54
-69.52
-74.07
-78.79
-84.35
-91.30
-99.80
-109.38
-118.80
-126.11
-128.95
-125.22
-113.74
-94.83
-70.39
-43.37
-16.93
6.40
25.24
39.32
49.10
55.34
58.84
60.28
60.33
59.65
58.80
58.08
57.42
56.41
54.54
51.47
47.22
42.25
37.25
32.91
29.64
27.41
25.75
24.00
21.52
17.98
13.52
8.59
3.77
-0.49
-4.12
-7.46
-11.13
-15.75
-21.71
-29.01
-37.34
-46.20
-55.18
-64.22
-73.54
-83.64
-95.12
-108.42
-123.51
-139.62
-155.11
-167.51
-173.91
-171.64
-159.09
-136.38
-105.43
-69.61
-32.71
1.95
32.15
56.98
76.51
91.41
102.54
110.84
117.21
122.54
127.55
132.63
137.76
142.56
146.37
148.69
149.29
148.37
146.46
144.22
142.16
140.39
138.56
135.91
131.61
125.04
115.89
104.30
90.72
75.66
59.61
42.84
25.55
8.00
-9.38
-25.92
-40.91
-53.67
-63.89
-71.70
-77.74
-82.95
-88.36
-94.83
-102.77
-111.83
-120.80
-127.78
-130.52
-127.17
-116.83
-100.01
-78.53
-55.06
-32.25
-12.20
4.02
16.31
25.23
31.52
35.85
38.59
39.99
40.27
39.83
39.19
38.90
39.35
40.47
41.86
42.76
42.44
40.40
36.54
31.23
25.00
18.35
11.52
4.51
-2.92
-10.91
-19.43
-28.15
-36.47
-43.73
-49.47
-53.53
-56.13
-57.81
-59.26
-61.24
-64.47
-69.46
-76.37
-84.67
-93.06
-99.40
-101.31
-96.77
-85.00
-66.84
-44.54
-21.07
0.82
19.34
33.88
44.72
52.58
58.14
61.88
64.12
65.15
65.36
65.07
64.47
63.51
61.91
59.47
56.13
52.17
48.08
44.31
41.09
38.23
35.20
31.26
25.86
18.76
10.14
0.66
-8.87
-17.65
-25.14
-31.23
-36.31
-41.10
-46.53
-53.38
-62.08
-72.40
-83.28
-92.86
-98.75
-98.65
-91.00
-75.65
-54.00
-28.66
-2.74
21.08
41.10
56.75
68.31
76.35
81.44
83.99
84.40
83.17
80.95
78.43
76.05
73.95
71.91
69.56
66.60
63.02
59.01
54.92
51.02
47.28
43.44
38.94
33.26
26.04
17.29
7.38
-3.13
-13.59
-23.57
-32.87
-41.55
-49.92
-58.39
-67.29
-76.73
-86.27
-94.76
-100.48
-101.46
-96.16
-84.03
-65.84
-43.48
-19.51
3.55
23.80
40.12
52.28
60.58
65.72
68.49
69.77
70.28
70.71
71.51
72.96
75.07
77.60
80.05
81.85
82.50
81.69
79.49
76.15
71.99
67.22
61.88
55.72
48.45
39.83
29.81
18.70
7.09
-4.24
-14.49
-23.15
-30.13
-35.83
-41.13
-47.06
-54.63
-64.48
-76.60
-90.07
-103.07
-113.10
-117.60
-114.65
-103.70
-85.74
-63.06
-38.61
-15.08
5.66
22.77
36.27
46.64
54.41
60.11
64.14
66.94
68.85
70.13
70.88
71.14
70.94
70.40
69.76
69.29
69.19
69.39
69.53
69.01
67.20
63.67
58.28
51.26
43.07
34.20
25.03
15.66
6.07
-3.88
-14.19
-24.69
-34.99
-44.58
-52.95
-59.92
-65.64
-70.73
-76.16
-82.90
-91.51
-101.65
-111.86
-119.71
-122.43
-117.81
-105.03
-85.07
-60.45
-34.49
-10.32
9.92
25.36
36.28
43.64
48.54
51.87
54.20
55.73
56.49
56.45
55.67
54.34
52.76
51.28
50.12
49.44
49.15
49.02
48.65
47.53
45.08
40.93
35.02
27.71
19.81
12.32
6.12
1.77
-0.66
-1.55
-1.53
-1.32
-1.59
-2.81
-5.29
-9.24
-14.85
-22.31
-31.81
-43.49
-57.18
-72.19
-87.10
-99.82
-107.96
-109.40
-103.04
-89.17
-69.54
-46.87
-24.11
-3.63
13.26
26.31
35.99
42.95
47.65
50.22
50.72
49.35
46.59
43.24
40.03
37.47
35.63
34.38
33.64
33.50
34.21
35.92
38.50
41.38
43.80
45.05
44.74
42.91
39.87
36.05
31.62
26.61
20.85
14.17
6.60
-1.55
-9.84
-17.71
-24.74
-30.85
-36.29
-41.70
-47.75
-54.87
-62.95
-71.14
-77.94
-81.57
-80.49
-73.91
-62.13
-46.40
-28.63
-10.81
5.46
19.25
30.25
38.58
44.47
48.05
49.39
48.64
46.17
42.74
39.33
36.79
35.55
35.53
36.14
36.68
36.57
35.62
33.98
31.98
29.86
27.70
25.46
22.99
20.22
17.13
13.73
10.02
5.99
1.69
-2.72
-6.96
-10.75
-13.94
-16.67
-19.44
-23.08
-28.50
-36.31
-46.48
-58.01
-68.99
-76.97
-79.67
-75.55
-64.42
-47.37
-26.46
-4.12
17.38
36.28
51.46
62.40
69.17
72.27
72.57
71.02
68.58
66.01
63.77
62.03
60.78
59.92
59.41
59.28
59.75
61.09
63.55
67.01
70.76
73.40
73.10
68.14
57.51
41.33
20.86
-1.95
-25.06
-46.90
-66.64
-84.16
-99.80
-114.06
-127.31
-139.58
-150.38
-158.70
-163.11
-162.19
-155.08
-141.79
-123.45
-101.96
-79.55
-58.22
-39.41
-23.91
-12.02
-3.65
1.54
4.02
4.52
3.83
2.72
1.75
1.19
0.97
0.83
0.39
-0.62
-2.25
-4.33
-6.54
-8.61
-10.57
-12.90
-16.33
-21.59
-29.09
-38.60
-49.39
-60.45
-70.93
-80.46
-89.42
-98.59
-109.00
-121.39
-135.84
-151.65
-167.26
-180.54
-189.16
-191.17
-185.45
-172.03
-152.05
-127.43
-100.11
-71.38
-41.51
-9.76
24.80
62.49
102.30
141.81
177.98
208.06
230.56
245.49
254.04
257.78
258.09
255.79
251.35
245.15
237.60
229.01
219.31
207.83
193.36
174.54
150.39
120.88
87.19
51.42
16.10
-16.64
-45.58
-70.66
-92.54
-111.88
-128.85
-142.66
-151.82
-154.64
-149.94
-137.73
-119.30
-97.02
-73.68
-51.72
-32.66
-16.81
-3.37
9.02
21.72
35.48
50.06
64.25
76.17
83.89
86.00
82.05
72.63
59.03
42.77
25.24
7.56
-9.28
-24.30
-36.59
-45.54
-51.14
-54.23
-56.22
-58.66
-62.65
-68.48
-75.62
-82.98
-89.47
-94.45
-98.02
-101.01
-104.60
-109.92
-117.63
-127.61
-138.92
-149.91
-158.54
-162.80
-161.18
-152.96
-138.55
-119.38
-97.57
-75.39
-54.68
-36.55
-21.27
-8.61
1.95
10.73
18.00
23.94
28.81
32.88
36.41
39.54
42.28
44.55
46.26
47.53
48.63
49.94
51.83
54.39
57.44
60.37
62.39
62.70
60.84
56.86
51.29
45.00
38.84
33.32
28.45
23.70
18.28
11.37
2.40
-8.55
-20.58
-32.03
-40.68
-44.31
-41.37
-31.50
-15.78
3.51
23.62
42.12
57.50
69.34
78.05
84.30
88.64
91.17
91.62
89.61
84.91
77.66
68.38
57.85
46.98
36.62
27.47
19.96
14.28
10.40
8.14
7.17
7.06
7.23
6.98
5.67
2.73
-2.02
-8.39
-15.75
-23.26
-30.20
-36.21
-41.40
-46.29
-51.63
-58.08
-66.06
-75.62
-86.21
-96.67
-105.25
-109.89
-108.73
-100.67
-85.73
-65.13
-40.97
-15.65
8.71
30.55
49.01
63.85
75.24
83.73
89.96
94.59
98.09
100.64
102.16
102.54
101.76
100.17
98.41
97.29
97.45
99.08
101.79
104.69
106.83
107.54
106.76
105.05
103.35
102.42
102.51
103.21
103.62
102.85
100.49
96.78
92.52
88.66
86.00
85.04
85.95
88.40
91.14
91.80
87.32
75.22
55.10
29.70
4.40
-14.63
-23.07
-20.27
-9.43
4.03
14.89
20.04
19.04
13.29
4.72
-5.38
-16.56
-28.93
-42.68
-57.79
-74.01
-90.78
-107.37
-122.72
-135.58
-144.61
-148.74
-147.38
-140.65
-129.22
-114.18
-96.80
-78.40
-60.22
-43.33
-28.38
-15.52
-4.38
5.77
15.52
25.07
34.14
42.31
49.31
55.24
60.18
63.72
64.64
61.03
51.06
34.04
11.18
-14.13
-36.86
-51.41
-53.08
-39.28
-10.53
29.53
74.99
119.12
156.24
182.99
198.72
205.04
204.79
200.97
196.14
192.05
189.34
187.49
184.70
178.38
165.92
145.74
117.96
84.42
47.89
11.05
-24.14
-56.77
-86.46
-112.88
-135.39
-153.06
-165.09
-171.22
-171.96
-168.40
-161.98
-154.01
-145.51
-137.16
-129.41
-122.50
-116.55
-111.50
-107.13
-103.21
-99.88
-97.77
-98.07
-102.01
-110.07
-121.32
-133.24
-142.32
-145.36
-140.71
-129.01
-112.98
-96.35
-82.51
-73.34
-69.00
-68.23
-69.27
-70.53
-71.01
-70.28
-68.16
-64.66
-59.83
-53.95
-47.56
-41.31
-35.85
-31.40
-27.77
-24.37
-20.62
-16.29
-11.76
-7.94
-6.06
-7.17
-11.70
-19.51
-29.86
-41.72
-54.06
-66.08
-77.24
-87.40
-96.79
-105.88
-115.30
-125.58
-136.91
-148.98
-161.23
-173.06
-184.18
-194.79
-205.18
-215.12
-223.26
-226.98
-223.00
-208.60
-182.61
-145.84
-100.71
-50.47
1.62
52.49
99.21
138.94
169.26
188.84
198.04
198.79
193.90
185.98
176.63
166.33
154.97
142.62
129.77
117.41
106.46
97.44
90.38
84.89
80.42
76.49
72.81
69.23
65.66
62.00
58.05
53.60
48.41
42.27
35.13
27.08
18.44
9.61
1.08
-6.75
-13.60
-19.47
-24.75
-30.08
-36.27
-43.97
-53.37
-63.86
-73.97
-81.50
-84.10
-79.94
-68.24
-49.77
-26.49
-1.14
23.45
45.09
62.48
75.25
83.76
88.71
90.90
91.04
89.78
87.62
85.01
82.33
79.88
77.89
76.45
75.50
74.82
74.11
72.93
70.91
67.74
63.26
57.54
50.88
43.71
36.48
29.50
22.83
16.31
9.58
2.22
-6.00
-15.05
-24.61
-34.13
-43.08
-51.09
-58.18
-64.79
-71.70
-79.77
-89.55
-100.85
-112.39
-121.88
-126.57
-123.93
-112.68
-93.26
-67.79
-39.45
-11.55
13.37
33.86
49.49
60.59
67.84
72.09
74.26
75.21
75.72
76.22
76.80
77.25
77.24
76.57
75.22
73.40
71.37
69.31
67.25
65.05
62.44
59.15
54.96
49.74
43.59
36.71
29.40
21.84
14.11
6.10
-2.39
-11.52
-21.22
-31.22
-41.11
-50.52
-59.29
-67.52
-75.65
-84.27
-93.96
-104.91
-116.66
-127.81
-136.10
-138.93
-134.13
-120.70
-99.38
-72.40
-43.00
-14.38
11.00
31.83
47.84
59.50
67.56
72.79
75.81
77.13
77.17
76.31
74.95
73.44
72.08
71.09
70.55
70.45
70.73
71.28
71.93
72.33
72.01
70.43
67.23
62.35
56.11
49.09
41.76
34.42
26.95
19.04
10.44
1.07
-8.78
-18.63
-28.01
-36.66
-44.60
-52.24
-60.24
-69.46
-80.74
-94.46
-110.19
-126.39
-140.46
-149.31
-150.21
-141.74
-124.33
-100.15
-72.45
-44.48
-18.72
3.53
21.94
36.72
48.23
56.82
62.83
66.69
69.03
70.49
71.62
72.67
73.66
74.41
74.77
74.81
74.75
74.94
75.56
76.53
77.41
77.58
76.58
74.33
71.28
68.14
65.51
63.56
61.81
59.35
55.10
48.33
38.92
27.37
14.59
1.50
-11.36
-23.96
-36.78
-50.71
-66.64
-85.09
-105.70
-127.02
-146.44
-160.74
-166.96
-163.30
-149.83
-128.45
-102.28
-74.63
-48.09
-24.16
-3.35
14.29
28.75
39.93
47.75
52.39
54.48
55.07
55.28
55.95
57.40
59.43
61.51
63.07
63.77
63.64
62.91
61.83
60.40
58.27
54.85
49.50
41.91
32.20
21.02
9.29
-2.04
-12.36
-21.49
-29.79
-38.05
-47.31
-58.60
-72.64
-89.40
-107.63
-124.87
-137.75
-142.94
-138.25
-123.48
-100.52
-72.73
-43.86
-16.98
6.10
24.82
39.46
50.63
58.94
64.95
69.07
71.72
73.27
74.03
74.18
73.77
72.77
71.11
68.77
65.89
62.76
59.78
57.24
55.20
53.46
51.53
48.85
44.94
39.56
32.71
24.72
16.05
7.21
-1.31
-9.25
-16.59
-23.63
-30.90
-39.08
-48.75
-60.22
-73.10
-86.13
-97.23
-103.83
-103.64
-95.38
-79.37
-57.41
-32.35
-7.16
15.75
34.98
50.07
61.23
68.85
73.38
75.19
74.70
72.43
69.11
65.52
62.39
60.31
59.52
59.95
61.18
62.59
63.55
63.59
62.47
60.21
56.91
52.61
47.16
40.21
31.39
20.50
7.79
-6.07
-20.10
-33.35
-45.23
-55.58
-64.64
-72.93
-81.02
-89.54
-99.19
-110.62
-123.94
-138.27
-151.31
-159.68
-159.86
-149.59
-128.87
-100.21
-67.80
-36.04
-8.23
14.12
31.09
43.59
52.63
58.88
62.67
64.30
64.21
63.04
61.47
59.99
58.79
57.75
56.53
54.77
52.32
49.38
46.35
43.72
41.75
40.28
38.65
36.02
31.63
25.12
16.71
7.11
-2.71
-11.88
-19.84
-26.61
-32.59
-38.52
-45.25
-53.60
-64.17
-77.05
-91.57
-105.91
-117.33
-122.73
-119.62
-107.10
-86.22
-59.74
-31.10
-3.44
21.12
41.64
58.04
70.62
79.74
85.86
89.52
91.44
92.34
92.65
92.56
91.96
90.71
88.75
86.30
83.74
81.45
79.59
77.96
76.06
73.26
69.06
63.28
56.11
48.00
39.48
30.83
22.01
12.72
2.57
-8.58
-20.54
-32.77
-44.59
-55.42
-65.06
-73.73
-82.04
-90.93
-101.38
-114.24
-129.77
-147.13
-164.06
-177.04
-182.13
-176.27
-158.53
-130.62
-96.47
-60.89
-28.05
-0.47
21.22
37.67
49.99
59.17
65.81
70.29
72.98
74.31
74.68
74.42
73.66
72.44
70.74
68.63
66.26
63.81
61.45
59.25
57.13
54.89
52.24
48.89
44.58
39.09
32.37
24.52
15.82
6.74
-2.16
-10.40
-17.67
-24.02
-29.86
-35.78
-42.50
-50.62
-60.58
-72.49
-85.82
-99.27
-110.63
-117.14
-116.28
-106.69
-88.75
-64.65
-37.66
-11.12
12.54
32.19
47.77
59.78
68.75
75.02
78.89
80.70
80.98
80.30
79.15
77.80
76.32
74.59
72.60
70.48
68.49
66.93
66.02
65.60
65.21
64.09
61.51
57.04
50.75
43.17
35.07
27.10
19.45
11.85
3.70
-5.57
-16.11
-27.58
-39.32
-50.48
-60.41
-68.89
-76.12
-82.78
-89.83
-98.35
-109.18
-122.33
-136.54
-149.09
-156.38
-154.96
-142.82
-120.37
-90.29
-56.75
-23.94
5.14
29.15
48.09
62.65
73.54
81.23
86.11
88.65
89.56
89.61
89.33
88.88
88.10
86.66
84.34
81.22
77.68
74.23
71.39
69.41
68.21
67.29
65.87
63.10
58.34
51.44
42.78
33.22
23.77
15.23
7.92
1.53
-4.72
-11.71
-20.05
-29.76
-40.32
-50.88
-60.66
-69.19
-76.53
-83.21
-90.12
-98.32
-108.75
-121.89
-137.25
-152.93
-165.71
-171.65
-167.37
-151.36
-124.74
-90.90
-54.44
-19.61
10.77
35.65
55.25
70.32
81.45
88.97
93.07
94.14
92.85
90.09
86.69
83.24
80.07
77.23
74.62
72.20
70.03
68.35
67.46
67.52
68.27
69.13
69.16
67.48
63.54
57.36
49.51
40.87
32.33
24.37
16.96
9.57
1.42
-8.11
-19.23
-31.54
-44.17
-56.02
-66.16
-74.18
-80.32
-85.47
-90.91
-98.17
-108.51
-122.43
-139.12
-155.98
-169.03
-173.81
-167.00
-147.70
-117.99
-82.26
-45.72
-12.74
14.26
34.83
49.79
60.24
67.14
71.13
72.88
73.20
72.91
72.58
72.28
71.59
69.92
66.92
62.71
57.92
53.53
50.38
48.93
48.93
49.55
49.60
47.93
43.98
37.87
30.39
22.64
15.49
9.20
3.39
-2.75
-10.01
-18.69
-28.48
-38.55
-47.95
-56.00
-62.55
-68.03
-73.38
-79.79
-88.43
-99.98
-114.12
-129.14
-141.89
-148.48
-145.47
-131.16
-106.43
-74.54
-40.04
-7.24
20.99
43.58
60.87
73.81
83.21
89.57
93.25
94.64
94.38
93.14
91.36
89.13
86.25
82.43
77.60
72.04
66.41
61.55
58.12
56.37
55.99
56.12
55.68
53.63
49.45
43.22
35.54
27.25
19.13
11.56
4.41
-2.81
-10.67
-19.50
-29.24
-39.35
-49.00
-57.39
-64.04
-69.09
-73.28
-77.88
-84.43
-94.30
-108.01
-124.72
-141.82
-155.26
-160.57
-154.38
-135.81
-106.89
-71.93
-36.00
-3.26
24.01
45.47
62.01
74.78
84.58
91.78
96.57
99.28
100.35
100.25
99.30
97.59
95.06
91.65
87.45
82.78
78.17
74.13
71.07
69.05
67.61
65.95
63.05
58.01
50.41
40.49
29.16
17.68
7.29
-1.27
-8.00
-13.62
-19.24
-25.91
-34.11
-43.59
-53.47
-62.62
-70.16
-75.85
-80.13
-84.05
-88.88
-95.87
-106.01
-119.68
-136.23
-153.56
-168.13
-175.67
-172.36
-156.39
-128.74
-93.09
-54.52
-17.82
13.86
39.44
59.34
74.64
86.12
94.21
99.11
101.18
101.13
99.83
98.06
96.30
94.60
92.71
90.39
87.47
84.15
80.87
78.17
76.49
75.89
75.95
75.74
74.23
70.56
64.39
56.06
46.36
36.36
26.88
18.20
9.94
1.30
-8.58
-20.20
-33.33
-47.16
-60.51
-72.35
-82.13
-89.97
-96.55
-102.95
-110.34
-119.90
-132.43
-147.83
-164.53
-179.31
-187.73
-185.62
-170.65
-143.47
-107.67
-68.55
-31.19
1.08
27.17
47.68
63.75
76.16
85.13
90.65
92.99
92.92
91.47
89.52
87.50
85.40
82.92
79.89
76.39
72.91
70.08
68.44
68.16
68.81
69.43
68.79
65.82
60.02
51.75
42.03
32.20
23.37
16.01
9.78
3.80
-3.00
-11.33
-21.31
-32.37
-43.50
-53.67
-62.21
-69.10
-74.98
-80.93
-88.23
-98.07
-111.14
-127.19
-144.54
-160.02
-169.40
-168.75
-155.79
-131.03
-97.73
-60.87
-25.34
5.48
30.31
49.57
64.32
75.42
83.24
87.89
89.72
89.49
88.18
86.64
85.24
83.84
82.02
79.46
76.15
72.55
69.36
67.21
66.29
66.32
66.48
65.76
63.46
59.39
54.03
48.27
43.04
38.83
35.50
32.21
27.74
21.03
11.58
-0.30
-13.55
-26.75
-38.69
-48.71
-56.95
-64.22
-71.67
-80.58
-91.88
-105.78
-121.20
-135.62
-145.33
-146.49
-136.50
-115.15
-84.93
-50.24
-15.90
14.36
38.66
56.82
69.64
78.05
82.77
84.30
83.13
79.87
75.16
69.54
63.40
56.97
50.58
44.60
39.46
35.40
32.47
30.39
28.78
27.20
25.27
22.70
19.32
15.01
9.65
3.16
-4.55
-13.48
-23.58
-34.58
-46.13
-57.84
-69.31
-80.25
-90.55
-100.24
-109.58
-119.07
-129.33
-140.86
-153.54
-166.16
-176.36
-181.20
-178.04
-165.66
-144.86
-118.20
-89.09
-60.75
-35.35
-13.85
3.63
17.26
27.13
33.16
35.29
33.66
28.63
20.75
10.65
-0.97
-13.37
-25.79
-37.69
-48.68
-58.68
-67.83
-76.32
-84.31
-91.89
-99.09
-105.99
-112.75
-119.58
-126.62
-133.83
-140.88
-147.29
-152.57
-156.33
-158.39
-158.77
-157.62
-155.22
-151.88
-148.00
-143.98
-140.08
-136.06
-131.05
-123.51
-111.67
-94.16
-70.71
-42.36
-11.36
19.64
48.38
73.55
94.88
112.94
128.52
142.32
154.78
166.18
176.69
186.51
195.79
204.59
212.80
220.24
226.70
232.00
236.24
239.72
242.98
246.65
251.17
256.43
261.77
265.97
267.63
265.55
259.08
248.21
233.47
215.63
195.36
173.04
148.64
121.90
92.47
60.28
25.92
-9.12
-42.39
-70.83
-91.42
-102.05
-102.21
-93.25
-77.99
-59.97
-42.34
-27.20
-15.33
-6.43
0.21
5.24
8.97
11.42
12.57
12.58
11.85
10.91
10.17
9.79
9.70
9.73
9.75
9.84
10.18
10.94
12.14
13.49
14.43
14.31
12.57
8.92
3.52
-3.04
-9.85
-15.99
-20.78
-24.07
-26.23
-28.14
-30.96
-35.67
-42.84
-52.29
-62.95
-72.95
-80.00
-81.93
-77.35
-66.09
-49.29
-29.05
-7.79
12.38
30.12
44.94
57.00
66.74
74.58
80.76
85.36
88.37
89.90
90.22
89.67
88.65
87.50
86.32
85.00
83.32
81.07
78.16
74.72
71.02
67.29
63.60
59.81
55.56
50.41
44.05
36.44
27.82
18.63
9.35
0.29
-8.49
-17.21
-26.18
-35.80
-46.32
-57.83
-70.12
-82.55
-94.04
-103.06
-107.83
-106.80
-99.19
-85.29
-66.55
-45.17
-23.44
-3.22
14.50
29.52
42.16
52.85
61.83
69.12
74.64
78.41
80.69
81.93
82.63
83.16
83.68
84.12
84.37
84.30
83.90
83.18
82.19
80.84
79.00
76.51
73.22
69.01
63.79
57.48
50.09
41.78
32.91
23.94
15.42
7.79
1.30
-4.10
-8.80
-13.53
-19.14
-26.12
-34.11
-41.55
-45.87
-44.34
-35.17
-18.68
2.25
22.71
37.03
40.38
29.99
5.94
-28.47
-67.10
-101.93
-124.63
-128.52
-110.39
-71.51
-17.43
43.40
101.86
150.19
183.32
199.65
200.51
189.25
170.01
146.72
122.14
97.39
72.30
46.20
18.80
-9.47
-37.59
-64.08
-87.02
-104.17
-113.46
-113.84
-106.44
-95.27
-86.61
-86.98
-100.45
-126.80
-161.34
-196.96
-227.07
-248.26
-260.92
-268.04
-272.94
-277.62
-282.62
-287.75
-293.30
-300.15
-309.14
-319.82
-329.71
-334.81
-331.26
-316.79
-291.57
-257.74
-217.93
-173.97
-126.41
-75.09
-20.23
36.75
93.45
147.11
195.70
238.32
275.13
306.59
332.77
353.08
366.55
372.50
371.06
363.41
351.29
336.39
319.86
302.01
282.63
261.28
237.76
212.37
186.04
160.30
136.96
117.73
103.69
94.72
89.51
85.83
81.30
74.16
63.75
50.37
35.06
18.95
2.99
-12.09
-25.71
-37.30
-46.42
-52.90
-56.99
-59.25
-60.33
-60.66
-60.34
-59.20
-56.98
-53.65
-49.50
-45.16
-41.36
-38.70
-37.42
-37.35
-38.01
-38.80
-39.22
-39.16
-38.84
-38.80
-39.54
-41.34
-43.96
-46.88
-49.52
-51.54
-53.28
-55.72
-60.39
-68.76
-81.52
-97.81
-114.84
-128.17
-132.63
-123.94
-100.27
-63.11
-17.00
31.92
77.87
116.68
146.12
165.21
173.28
169.57
153.82
127.13
92.46
54.06
16.16
-18.36
-48.34
-73.86
-94.94
-110.80
-119.93
-120.98
-113.68
-99.34
-80.32
-59.28
-38.79
-21.30
-9.63
-6.84
-15.36
-35.28
-62.96
-90.84
-109.15
-109.39
-87.86
-47.77
1.24
46.33
76.03
84.19
71.63
45.02
13.66
-13.94
-32.49
-40.38
-38.76
-30.15
-17.53
-4.14
6.69
12.08
10.90
4.76
-1.90
-3.55
3.92
20.71
42.45
62.02
72.58
70.81
58.13
39.54
21.08
7.19
-0.58
-3.05
-2.04
0.84
4.51
7.91
9.33
6.68
-1.63
-15.47
-32.54
-49.05
-61.44
-67.83
-68.70
-66.31
-63.26
-61.16
-60.12
-59.13
-56.83
-52.29
-45.27
-36.14
-25.85
-15.73
-7.62
-3.47
-4.87
-12.34
-24.94
-40.34
-55.54
-67.83
-75.57
-78.45
-77.33
-73.78
-69.55
-66.15
-64.60
-65.14
-67.24
-69.72
-71.19
-70.70
-68.09
-63.98
-59.34
-54.89
-50.80
-46.68
-42.08
-36.80
-31.10
-25.50
-20.46
-16.21
-12.66
-9.75
-7.44
-5.93
-5.41
-5.89
-7.14
-8.68
-10.15
-11.31
-12.31
-13.45
-15.10
-17.50
-20.61
-24.31
-28.37
-32.65
-36.95
-41.04
-44.70
-47.79
-50.44
-53.01
-56.15
-60.45
-66.37
-74.01
-83.09
-92.90
-102.26
-109.56
-112.90
-110.61
-101.77
-86.63
-66.68
-44.19
-21.61
-0.87
16.90
31.40
42.77
51.38
57.57
61.65
63.97
64.92
64.90
64.34
63.56
62.79
62.13
61.61
61.11
60.52
59.76
58.75
57.46
55.81
53.71
51.04
47.65
43.46
38.45
32.71
26.33
19.48
12.29
4.99
-2.20
-9.03
-15.32
-21.03
-26.28
-31.42
-36.95
-43.42
-51.20
-60.23
-69.85
-78.77
-85.28
-87.68
-84.79
-76.35
-63.14
-46.70
-28.89
-11.41
4.63
18.69
30.65
40.64
48.82
55.34
60.30
63.88
66.27
67.71
68.46
68.80
68.96
69.11
69.38
69.72
70.07
70.33
70.37
70.09
69.33
67.86
65.49
62.05
57.51
52.07
46.07
39.82
33.53
27.17
20.57
13.55
6.10
-1.55
-9.01
-15.88
-22.04
-27.67
-33.25
-39.42
-46.74
-55.47
-65.38
-75.52
-84.33
-89.95
-90.67
-85.55
-74.82
-59.73
-42.24
-24.38
-7.70
6.83
18.83
28.28
35.41
40.55
44.19
46.83
48.89
50.57
51.88
52.76
53.22
53.44
53.65
54.14
54.97
56.00
56.95
57.55
57.59
56.96
55.61
53.48
50.40
46.24
40.85
34.29
26.79
18.73
10.55
2.62
-4.85
-11.79
-18.28
-24.50
-30.71
-37.29
-44.63
-52.98
-62.20
-71.57
-79.71
-84.79
-85.05
-79.44
-67.93
-51.64
-32.45
-12.47
6.48
23.16
36.95
47.75
55.75
61.30
64.87
66.95
68.03
68.43
68.35
67.82
66.82
65.40
63.64
61.83
60.27
59.24
58.86
58.96
59.04
58.50
56.76
53.60
49.16
43.95
38.57
33.46
28.77
24.31
19.70
14.60
8.85
2.53
-4.10
-10.73
-17.09
-23.06
-28.76
-34.51
-40.79
-48.14
-56.93
-67.00
-77.42
-86.52
-92.14
-92.32
-86.00
-73.40
-56.10
-36.43
-16.79
1.07
16.34
28.96
39.30
47.76
54.55
59.76
63.49
65.92
67.36
68.06
68.19
67.81
66.99
65.80
64.43
63.07
61.85
60.71
59.46
57.83
55.54
52.46
48.60
44.09
39.12
33.81
28.15
22.06
15.52
8.49
1.15
-6.24
-13.40
-20.20
-26.71
-33.17
-40.02
-47.64
-56.28
-65.84
-75.62
-84.33
-90.26
-91.67
-87.39
-77.35
-62.59
-45.04
-26.93
-10.12
4.28
15.96
25.22
32.54
38.35
42.89
46.30
48.67
50.15
50.85
50.94
50.54
49.75
48.72
47.65
46.78
46.31
46.31
46.65
47.04
47.10
46.47
44.87
42.21
38.58
34.22
29.40
24.36
19.10
13.45
7.17
0.10
-7.64
-15.68
-23.50
-30.74
-37.34
-43.71
-50.51
-58.42
-67.78
-78.25
-88.74
-97.44
-102.33
-101.70
-94.66
-81.52
-63.69
-43.22
-22.32
-2.74
14.46
28.95
40.86
50.60
58.57
65.10
70.36
74.41
77.22
78.73
78.92
77.80
75.56
72.41
68.72
64.87
61.40
58.71
57.02
56.17
55.59
54.51
52.12
48.08
42.50
35.90
28.91
21.92
14.87
7.31
-1.26
-11.17
-22.25
-33.94
-45.45
-56.08
-65.38
-73.31
-80.10
-86.25
-92.31
-98.82
-106.06
-113.92
-121.67
-127.95
-131.03
-129.33
-121.98
-109.22
-92.47
-73.79
-55.32
-38.54
-24.11
-11.94
-1.69
6.94
14.13
20.02
25.04
29.75
34.82
40.59
47.06
53.98
61.21
68.98
77.94
88.97
102.75
119.26
137.73
156.71
174.38
189.12
199.70
205.59
206.94
204.40
198.85
191.02
181.39
170.11
157.30
143.15
128.20
113.10
98.42
84.15
69.49
52.98
32.84
7.55
-23.72
-60.73
-101.90
-144.24
-183.36
-214.16
-231.79
-232.97
-216.94
-185.75
-143.60
-95.58
-46.34
0.87
44.42
83.84
119.22
150.67
178.02
200.65
217.59
227.62
229.71
223.32
208.56
186.08
156.83
121.86
82.48
40.47
-1.76
-41.36
-75.76
-103.41
-124.29
-139.72
-151.71
-161.97
-171.29
-179.47
-185.65
-189.07
-189.49
-187.50
-184.35
-181.55
-180.40
-181.51
-184.57
-188.25
-190.49
-188.88
-181.36
-166.82
-145.57
-119.25
-90.34
-61.33
-33.92
-8.67
14.62
36.18
55.37
70.63
80.07
82.64
79.19
72.77
67.74
68.31
77.08
93.98
116.36
139.42
157.16
163.60
154.31
128.22
88.99
45.02
7.18
-15.10
-17.99
-5.55
11.50
20.23
11.16
-17.62
-60.05
-105.65
-144.57
-171.67
-187.54
-196.47
-203.01
-209.28
-214.20
-214.86
-208.74
-195.41
-176.80
-156.20
-136.56
-119.34
-104.15
-89.52
-74.18
-58.18
-43.17
-31.79
-26.49
-28.05
-35.04
-44.32
-52.29
-56.36
-55.75
-51.37
-45.04
-38.52
-32.75
-27.71
-22.96
-18.12
-13.23
-8.77
-5.39
-3.54
-3.28
-4.38
-6.45
-9.38
-13.42
-19.02
-26.50
-35.59
-45.42
-54.68
-62.12
-67.07
-69.71
-70.85
-71.47
-72.16
-72.69
-72.05
-68.74
-61.37
-49.15
-32.20
-11.53
11.28
34.40
56.20
75.45
91.43
103.84
112.85
118.87
122.55
124.59
125.53
125.74
125.31
124.18
122.33
119.92
117.26
114.74
112.66
111.04
109.72
108.31
106.43
103.74
100.02
95.16
89.22
82.46
75.24
67.97
60.68
52.84
43.23
30.26
12.55
-10.53
-38.45
-69.68
-102.12
-133.68
-162.55
-187.26
-206.40
-218.42
-221.74
-215.19
-198.63
-173.33
-142.06
-108.53
-76.40
-48.38
-25.52
-7.22
8.20
22.60
37.24
52.31
67.15
80.80
92.52
102.18
110.13
116.91
122.87
127.96
131.85
134.22
134.79
133.47
130.19
124.75
117.09
107.46
96.69
86.15
77.40
71.52
68.64
67.84
67.28
64.76
58.21
46.20
28.24
4.93
-22.25
-51.24
-79.96
-106.86
-131.08
-152.28
-170.11
-183.72
-191.62
-192.20
-184.41
-168.39
-145.68
-118.73
-90.37
-63.10
-38.70
-18.30
-2.40
8.88
15.75
18.73
18.68
16.64
13.72
10.94
8.96
8.08
8.13
8.56
8.76
8.24
6.97
5.32
3.95
3.39
3.78
4.71
5.33
4.76
2.47
-1.54
-6.82
-12.59
-18.19
-23.18
-27.53
-31.50
-35.56
-40.23
-45.90
-52.59
-59.82
-66.49
-70.95
-71.54
-67.01
-57.02
-42.32
-24.54
-5.72
12.24
27.98
40.80
50.60
57.73
62.80
66.47
69.35
71.90
74.28
76.36
77.93
78.76
78.79
78.18
77.25
76.32
75.67
75.30
74.91
73.97
71.82
68.02
62.49
55.62
48.31
41.60
36.20
32.29
29.35
26.47
22.81
18.06
12.59
7.09
2.33
-1.42
-4.33
-6.77
-8.94
-10.73
-11.93
-12.55
-12.75
-12.37
-10.48
-5.33
4.96
21.21
42.42
65.76
87.65
105.25
117.39
124.35
126.82
124.66
116.69
101.50
78.87
50.89
21.60
-4.32
-23.44
-34.72
-39.64
-41.40
-43.27
-47.44
-54.50
-63.62
-73.31
-82.15
-89.32
-94.75
-98.88
-102.28
-105.28
-107.84
-109.63
-110.38
-110.04
-109.14
-108.47
-108.89
-110.99
-114.77
-119.61
-124.36
-127.36
-126.79
-121.05
-109.25
-91.55
-69.33
-44.72
-20.00
3.14
23.85
42.07
58.04
71.85
83.25
91.72
97.02
99.39
99.61
98.78
97.85
97.30
97.07
96.71
95.67
93.67
90.78
87.30
83.66
80.11
76.59
72.89
68.71
63.82
58.22
52.03
45.37
38.25
30.41
21.25
10.06
-3.81
-20.61
-40.15
-61.78
-84.38
-106.40
-125.83
-140.26
-147.27
-145.01
-133.00
-112.46
-86.26
-58.08
-31.37
-8.49
9.66
23.38
33.54
41.02
46.44
50.21
52.67
54.21
55.21
56.00
56.74
57.44
57.99
58.31
58.34
58.10
57.65
57.02
56.20
55.03
53.22
50.36
45.98
39.74
31.61
21.97
11.59
1.43
-7.74
-15.56
-22.26
-28.54
-35.33
-43.44
-53.30
-64.78
-77.20
-89.35
-99.60
-106.06
-107.05
-101.47
-89.33
-71.76
-50.83
-28.93
-8.05
10.56
26.58
40.23
51.91
61.72
69.46
74.79
77.52
77.80
76.17
73.36
69.99
66.45
62.80
58.96
54.86
50.68
46.71
43.33
40.63
38.42
36.19
33.35
29.41
24.24
18.03
11.21
4.22
-2.64
-9.30
-15.83
-22.34
-28.92
-35.68
-42.72
-50.22
-58.33
-66.92
-75.36
-82.35
-86.19
-85.22
-78.43
-65.89
-48.80
-29.18
-9.20
9.26
25.13
37.99
47.95
55.29
60.27
63.10
64.07
63.49
61.86
59.71
57.53
55.61
54.06
52.78
51.59
50.26
48.66
46.62
44.11
41.09
37.54
33.54
29.15
24.39
19.18
13.40
6.87
-0.44
-8.36
-16.51
-24.45
-31.81
-38.45
-44.56
-50.54
-56.88
-64.02
-72.13
-81.04
-90.07
-97.97
-103.00
-103.46
-98.06
-86.54
-69.86
-50.04
-29.51
-10.42
5.83
18.86
28.97
36.74
42.71
47.15
50.23
52.11
52.96
53.05
52.65
51.98
51.20
50.43
49.68
48.94
48.13
47.13
45.85
44.24
42.21
39.67
36.46
32.35
27.17
20.85
13.59
5.82
-1.92
-9.11
-15.40
-20.73
-25.42
-29.91
-34.72
-40.29
-46.89
-54.62
-63.35
-72.49
-80.91
-87.02
-89.06
-85.71
-76.53
-62.35
-44.99
-26.76
-9.65
5.05
16.89
26.07
33.03
38.18
41.85
44.28
45.65
46.13
45.92
45.16
44.00
42.64
41.33
40.36
39.87
39.81
39.93
39.84
39.14
37.65
35.31
32.22
28.46
24.09
18.98
12.93
5.73
-2.75
-12.49
-23.27
-34.75
-46.47
-57.91
-68.52
-77.96
-86.09
-93.10
-99.41
-105.43
-111.29
-116.46
-119.74
-119.39
-113.73
-101.76
-83.71
-61.06
-36.25
-11.92
9.83
27.84
41.94
52.60
60.48
66.12
69.86
71.95
72.67
72.40
71.45
69.99
67.96
65.21
61.65
57.43
52.97
48.83
45.48
43.07
41.40
39.88
37.85
34.82
30.66
25.70
20.50
15.60
11.16
6.81
1.86
-4.46
-12.46
-21.86
-31.82
-41.28
-49.45
-56.08
-61.47
-66.29
-71.26
-76.86
-83.16
-89.63
-95.22
-98.50
-97.93
-92.33
-81.32
-65.52
-46.52
-26.39
-7.12
9.81
23.59
34.09
41.50
46.19
48.61
49.30
48.89
48.02
47.25
46.78
46.50
46.08
45.20
43.77
41.93
40.12
38.76
38.16
38.31
38.91
39.44
39.38
38.29
36.03
32.72
28.70
24.41
20.25
16.44
12.95
9.49
5.64
0.94
-4.84
-11.62
-19.01
-26.45
-33.43
-39.68
-45.28
-50.45
-55.48
-60.44
-65.01
-68.49
-69.86
-68.04
-62.28
-52.49
-39.44
-24.59
-9.73
3.64
14.72
23.56
30.65
36.56
41.53
45.37
47.75
48.46
47.63
45.59
42.77
39.47
35.77
31.73
27.46
23.29
19.70
17.21
16.14
16.54
18.12
20.32
22.51
24.15
24.96
25.05
24.84
24.86
25.60
27.20
29.40
31.73
33.60
34.58
34.56
33.61
31.87
29.37
25.88
20.95
14.16
5.17
-5.98
-18.86
-32.53
-45.54
-56.19
-62.71
-63.78
-58.88
-48.64
-34.69
-19.24
-4.49
7.97
17.39
23.81
27.77
29.88
30.61
30.21
28.86
26.68
23.92
20.87
17.72
14.61
11.59
8.60
5.63
2.76
0.00
-2.63
-5.28
-8.18
-11.54
-15.58
-20.26
-25.50
-31.01
-36.50
-41.74
-46.72
-51.69
-57.08
-63.40
-70.92
-79.51
-88.54
-97.08
-104.31
-110.02
-114.67
-119.01
-123.55
-128.03
-131.19
-130.96
-125.29
-113.22
-95.49
-74.28
-52.43
-32.53
-16.33
-4.56
3.16
7.69
9.59
8.76
4.82
-2.20
-11.57
-21.98
-31.87
-39.38
-42.94
-41.98
-37.31
-30.34
-22.27
-13.67
-4.64
4.98
16.07
30.11
48.44
71.53
98.86
128.92
158.97
185.20
198.46
190.72
161.65
120.74
80.99
51.49
34.29
26.03
21.12
15.32
5.82
-8.06
-26.25
-48.58
-73.81
-98.61
-117.81
-126.28
-118.04
-91.05
-47.86
5.29
60.92
113.34
160.18
201.47
237.57
267.35
288.14
297.57
295.01
282.01
261.80
237.89
212.64
186.73
159.46
130.02
98.81
67.58
38.58
13.62
-6.62
-22.71
-36.05
-48.18
-60.34
-72.86
-85.27
-96.69
-106.36
-114.13
-120.67
-127.41
-136.03
-147.81
-162.84
-179.77
-195.86
-207.88
-212.96
-209.51
-197.50
-178.41
-154.63
-128.68
-102.59
-77.55
-54.00
-31.86
-11.07
8.25
25.68
40.70
52.98
62.48
69.50
74.42
77.49
78.64
77.54
73.93
67.84
59.85
50.96
42.33
34.90
29.03
24.55
20.84
17.11
12.69
7.17
0.48
-7.20
-15.58
-24.44
-33.64
-43.20
-53.17
-63.59
-74.41
-85.50
-96.58
-107.07
-116.02
-122.03
-123.44
-118.79
-107.32
-89.44
-66.71
-41.43
-16.03
7.55
28.21
45.66
60.04
71.65
80.63
86.93
90.40
91.01
88.92
84.53
78.32
70.83
62.65
54.45
46.98
41.08
37.43
36.34
37.56
40.24
43.21
45.39
46.01
44.78
41.73
37.02
30.82
23.34
14.83
5.72
-3.51
-12.53
-21.33
-30.31
-40.15
-51.62
-65.14
-80.47
-96.56
-111.60
-123.35
-129.74
-129.42
-122.12
-108.82
-91.27
-71.56
-51.47
-32.24
-14.53
1.32
15.16
26.84
36.17
43.10
47.77
50.49
51.73
51.98
51.71
51.26
50.88
50.70
50.72
50.82
50.83
50.52
49.63
47.95
45.37
41.94
37.71
32.78
27.12
20.69
13.44
5.51
-2.81
-11.09
-18.91
-26.07
-32.56
-38.60
-44.58
-50.94
-58.15
-66.58
-76.26
-86.56
-96.09
-102.68
-104.05
-98.51
-85.65
-66.62
-43.74
-19.80
2.80
22.51
38.77
51.70
61.60
68.80
73.56
76.16
76.96
76.44
75.02
73.08
70.77
68.21
65.51
62.91
60.64
58.93
57.86
57.26
56.82
56.14
54.81
52.57
49.24
44.75
39.10
32.34
24.59
16.00
6.81
-2.67
-12.09
-21.09
-29.48
-37.29
-44.85
-52.73
-61.51
-71.63
-83.02
-94.89
-105.81
-113.84
-117.04
-114.01
-104.38
-88.92
-69.45
-48.33
-27.86
-9.86
4.65
15.40
22.71
27.12
29.30
29.74
28.87
27.07
24.74
22.34
20.31
18.96
18.26
18.01
17.91
17.82
17.90
18.50
19.82
21.73
23.61
24.59
23.99
21.65
18.09
14.15
10.55
7.41
4.20
0.09
-5.63
-13.02
-21.45
-29.78
-36.65
-40.74
-40.89
-36.21
-26.12
-10.71
9.12
31.63
54.51
75.55
93.09
106.30
115.00
119.25
118.95
113.77
103.49
88.39
69.69
49.40
29.89
13.21
0.50
-8.15
-13.52
-16.62
-18.33
-18.95
-18.36
-16.18
-12.10
-6.24
0.69
7.45
12.53
14.56
12.73
6.90
-2.54
-14.88
-29.45
-45.67
-62.90
-80.19
-96.34
-109.80
-119.15
-123.19
-121.12
-112.70
-98.23
-78.78
-56.16
-32.84
-11.39
6.06
18.39
25.74
29.20
30.35
30.57
30.75
31.18
31.67
31.91
31.64
30.77
29.38
27.61
25.56
23.27
20.85
18.44
16.40
15.08
14.72
15.19
15.89
15.87
14.04
9.56
2.22
-7.48
-18.42
-29.23
-38.73
-46.27
-51.87
-56.18
-60.26
-65.21
-71.84
-80.35
-90.08
-99.44
-106.21
-108.05
-103.23
-91.28
-73.24
-51.32
-28.23
-6.36
12.78
28.63
41.38
51.57
59.65
65.91
70.43
73.19
74.23
73.72
71.99
69.46
66.58
63.66
60.91
58.41
56.22
54.43
53.22
52.72
52.88
53.45
53.99
54.00
53.04
50.87
47.40
42.88
37.72
32.56
28.19
25.28
24.25
24.98
26.81
28.56
28.87
26.48
20.75
11.93
1.22
-9.47
-18.22
-23.65
-25.43
-24.31
-21.70
-18.98
-16.98
-15.90
-15.44
-15.28
-15.36
-15.91
-17.23
-19.38
-22.08
-24.70
-26.61
-27.39
-26.93
-25.53
-23.75
-22.27
-21.60
-22.03
-23.56
-25.95
-28.81
-31.81
-34.77
-37.76
-41.04
-44.79
-49.05
-53.51
-57.66
-60.99
-63.20
-64.49
-65.42
-66.86
-69.60
-74.19
-80.68
-88.58
-96.89
-103.98
-107.85
-106.43
-98.24
-82.98
-61.80
-36.98
-11.20
13.25
35.00
53.59
69.02
81.27
90.10
95.14
96.37
94.34
90.15
85.14
80.49
76.91
74.43
72.57
70.51
67.38
62.50
55.62
46.90
36.68
25.30
12.87
-0.63
-15.24
-30.70
-46.44
-61.66
-75.71
-88.29
-99.56
-110.08
-120.49
-131.20
-142.13
-152.48
-160.68
-164.58
-162.07
-151.74
-133.56
-109.08
-81.02
-52.47
-25.90
-2.64
17.02
33.40
46.79
57.31
64.96
69.90
72.70
74.20
75.21
76.19
77.12
77.72
77.62
76.64
74.83
72.31
69.12
65.14
60.08
53.62
45.61
36.20
25.94
15.66
6.31
-1.40
-7.29
-11.82
-15.94
-20.84
-27.57
-36.70
-48.10
-60.82
-73.19
-83.12
-88.60
-88.39
-82.43
-71.96
-59.19
-46.56
-36.01
-28.49
-24.10
-22.49
-23.39
-26.85
-33.22
-42.66
-54.84
-68.84
-83.35
-96.98
-108.74
-118.10
-124.79
-128.60
-129.03
-125.27
-116.42
-101.84
-81.46
-56.04
-27.03
3.70
34.09
62.34
86.97
106.99
121.96
131.93
137.37
138.97
137.45
133.39
127.24
119.41
110.61
102.03
95.24
91.89
93.06
98.80
107.96
118.49
128.08
134.89
138.08
137.77
134.80
130.17
124.66
118.60
112.03
104.95
97.51
90.03
82.77
75.75
68.64
60.84
51.83
41.54
30.54
19.82
10.41
2.78
-3.35
-8.95
-15.20
-22.94
-32.38
-42.99
-53.90
-64.15
-73.08
-80.46
-86.56
-92.11
-98.08
-105.52
-114.98
-126.22
-137.77
-147.02
-150.94
-146.90
-133.79
-112.40
-85.38
-56.30
-28.58
-4.59
14.75
29.61
40.80
49.04
54.83
58.31
59.60
58.84
56.28
52.23
46.92
40.56
33.43
25.99
18.95
13.13
9.24
7.46
7.44
8.19
8.41
6.83
2.62
-4.35
-13.46
-23.55
-33.41
-42.12
-49.52
-56.14
-63.11
-71.60
-82.39
-95.40
-109.41
-122.21
-131.00
-133.10
-126.75
-111.75
-89.57
-63.03
-35.46
-9.77
12.26
30.13
44.27
55.48
64.43
71.31
76.02
78.42
78.70
77.37
75.25
73.04
71.12
69.46
67.71
65.49
62.59
59.04
54.99
50.55
45.59
39.82
32.91
24.68
15.33
5.28
-4.88
-14.74
-24.06
-32.93
-41.46
-49.79
-57.91
-65.80
-73.55
-81.52
-90.26
-100.31
-111.73
-123.66
-134.17
-140.64
-140.42
-131.76
-114.47
-90.04
-61.12
-30.70
-1.33
25.32
48.50
68.02
84.03
96.90
107.11
115.26
121.94
127.51
131.97
135.03
136.23
135.31
132.44
128.27
123.81
120.09
117.81
117.06
117.25
117.22
115.65
111.40
103.79
92.73
78.64
62.20
44.30
25.80
7.61
-9.30
-23.91
-35.31
-42.74
-45.82
-44.69
-40.06
-33.16
-25.80
-20.15
-18.39
-22.13
-31.71
-45.69
-60.85
-72.80
-77.30
-71.61
-55.28
-30.24
0.14
32.26
63.39
92.11
118.07
141.38
161.93
179.27
192.69
201.65
206.07
206.43
203.55
198.36
191.64
183.91
175.51
166.65
157.50
148.13
138.43
127.98
116.00
101.69
84.40
64.00
40.96
16.37
-8.33
-31.66
-52.40
-69.85
-83.89
-94.98
-103.98
-111.84
-119.41
-127.02
-134.55
-141.50
-147.26
-151.50
-154.38
-156.66
-159.36
-163.53
-169.56
-176.77
-183.25
-186.26
-183.05
-171.89
-152.81
-127.61
-99.30
-71.03
-45.10
-22.63
-3.64
12.37
25.91
37.24
46.40
53.43
58.57
62.19
64.66
66.25
67.03
66.93
65.90
64.02
61.56
58.95
56.72
55.18
54.38
53.98
53.35
51.83
48.92
44.47
38.76
32.34
25.83
19.71
14.09
8.67
2.86
-3.97
-12.11
-21.37
-30.99
-39.92
-47.26
-52.61
-56.31
-59.27
-62.76
-68.05
-76.11
-87.41
-101.63
-117.45
-132.43
-143.36
-146.93
-140.83
-124.72
-100.33
-71.19
-41.33
-14.16
8.33
25.70
38.53
47.72
54.01
57.83
59.44
59.21
57.60
55.15
52.25
49.15
45.97
42.81
39.87
37.41
35.70
34.78
34.42
34.04
32.95
30.53
26.46
20.88
14.22
7.11
0.04
-6.80
-13.53
-20.36
-27.44
-34.66
-41.62
-47.85
-53.02
-57.15
-60.60
-64.10
-68.45
-74.44
-82.47
-92.22
-102.43
-110.89
-114.83
-111.71
-100.18
-80.70
-55.52
-28.00
-1.48
21.61
40.17
54.24
64.41
71.25
75.13
76.29
75.05
72.02
68.01
63.82
60.00
56.71
53.87
51.25
48.73
46.45
44.75
43.87
43.80
44.04
43.67
41.73
37.61
31.38
23.73
15.69
8.06
1.06
-5.78
-13.25
-21.99
-31.96
-42.34
-51.89
-59.48
-64.70
-68.09
-70.98
-75.14
-82.28
-93.64
-109.61
-129.31
-150.32
-168.77
-179.90
-179.52
-165.30
-137.83
-100.55
-58.72
-17.77
18.14
46.81
67.90
82.13
90.58
94.34
94.41
91.82
87.59
82.67
77.66
72.87
68.31
63.87
59.57
55.60
52.30
49.99
48.76
48.38
48.29
47.74
46.05
42.81
37.94
31.70
24.44
16.39
7.59
-2.02
-12.44
-23.41
-34.36
-44.62
-53.62
-61.15
-67.51
-73.45
-80.00
-88.07
-98.17
-109.85
-121.55
-130.62
-134.01
-129.18
-115.12
-92.80
-65.05
-35.59
-7.97
15.44
33.73
47.21
56.83
63.51
67.94
70.51
71.43
70.89
69.18
66.71
63.89
61.09
58.53
56.20
53.95
51.60
49.04
46.39
43.81
41.46
39.27
36.83
33.47
28.58
21.75
13.06
3.05
-7.43
-17.56
-26.76
-34.82
-42.05
-48.93
-56.07
-63.94
-72.91
-83.03
-93.81
-104.07
-111.80
-114.69
-110.65
-98.83
-79.94
-56.30
-31.03
-7.13
13.33
29.53
41.66
50.50
56.77
61.00
63.45
64.32
63.86
62.38
60.27
57.79
55.09
52.13
48.76
44.95
40.86
36.93
33.62
31.22
29.58
28.07
25.77
21.81
15.79
7.88
-1.21
-10.58
-19.46
-27.56
-35.00
-42.31
-50.25
-59.56
-70.76
-83.70
-97.35
-109.74
-118.31
-120.58
-114.94
-101.42
-81.68
-58.66
-35.65
-15.37
0.60
11.85
18.85
22.51
23.76
23.37
21.97
19.98
17.58
14.64
10.74
5.32
-1.92
-10.73
-20.10
-28.52
-34.38
-36.54
-34.73
-29.60
-22.54
-15.17
-8.85
-4.34
-1.69
-0.41
0.30
1.28
3.07
5.85
9.41
13.32
17.07
20.23
22.55
24.29
26.35
30.42
38.74
53.44
75.76
105.35
140.18
177.09
212.60
243.73
268.42
285.41
293.82
292.74
281.31
258.97
226.05
183.93
134.92
81.84
27.67
-24.69
-72.54
-113.42
-145.41
-167.44
-179.56
-183.04
-180.09
-173.23
-164.86
-156.79
-150.15
-145.50
-142.96
-142.32
-143.04
-144.45
-145.92
-147.12
-148.16
-149.60
-152.23
-156.67
-162.88
-169.73
-174.91
-175.41
-168.47
-152.50
-127.91
-96.95
-63.05
-29.73
0.50
26.49
48.21
66.23
81.15
93.36
103.04
110.39
115.65
119.10
121.05
121.70
121.19
119.68
117.47
114.88
112.33
110.20
108.70
107.88
107.62
107.73
107.94
108.02
107.72
106.83
105.15
102.50
98.76
93.81
87.55
79.87
70.85
60.81
50.43
40.53
31.82
24.83
20.05
18.26
20.65
28.78
43.88
66.22
94.61
126.56
158.84
188.19
212.05
228.66
237.10
237.15
229.23
214.44
194.30
170.59
144.86
118.33
92.00
66.84
44.09
25.09
10.94
1.80
-3.37
-6.75
-11.05
-18.44
-29.88
-44.81
-61.58
-78.07
-92.66
-104.56
-113.98
-121.83
-129.39
-137.84
-147.83
-159.39
-171.73
-183.69
-194.10
-202.22
-207.92
-211.50
-213.44
-213.98
-213.26
-211.35
-208.48
-204.89
-200.48
-194.59
-186.26
-174.88
-160.83
-145.64
-131.33
-119.38
-109.87
-101.38
-91.94
-80.11
-65.96
-50.94
-37.10
-26.03
-18.14
-12.52
-7.50
-1.29
7.31
18.49
31.29
43.89
54.42
62.05
67.96
75.45
88.93
112.11
146.00
188.19
233.32
274.84
306.88
325.36
328.10
314.55
285.75
244.65
196.35
147.66
105.28
73.74
53.61
41.53
31.82
18.99
-0.29
-26.67
-59.05
-96.01
-136.69
-180.49
-225.83
-269.12
-304.81
-326.96
-331.41
-317.79
-289.81
-253.81
-216.11
-180.63
-147.86
-115.97
-82.71
-47.56
-12.28
19.77
45.43
63.24
73.90
79.65
82.94
85.43
87.47
88.65
88.44
86.78
84.31
81.89
80.01
78.38
75.77
70.54
61.23
47.22
29.00
7.94
-14.20
-36.03
-56.82
-76.65
-95.90
-114.96
-133.77
-151.81
-168.36
-182.87
-195.26
-206.14
-216.60
-227.98
-241.39
-257.19
-274.50
-291.09
-303.71
-309.00
-304.80
-291.16
-270.51
-246.79
-223.83
-203.48
-185.04
-165.73
-142.25
-112.57
-76.67
-35.99
7.80
53.52
99.97
144.63
183.02
209.47
219.58
212.62
192.61
167.07
144.20
130.07
127.49
136.77
157.26
188.17
227.91
272.63
315.56
348.15
362.87
355.93
328.56
285.85
234.22
179.24
124.28
70.90
20.14
-26.55
-67.22
-99.98
-124.06
-140.09
-149.65
-154.32
-154.62
-149.51
-136.67
-113.62
-78.85
-32.93
21.30
79.23
135.69
186.14
227.46
258.15
277.81
286.67
285.32
274.72
256.42
232.58
205.83
178.58
152.67
129.08
108.16
89.98
74.62
62.35
53.31
47.35
43.76
41.27
38.32
33.51
25.94
15.50
2.80
-11.12
-25.17
-38.54
-50.91
-62.39
-73.22
-83.62
-93.50
-102.70
-110.94
-118.16
-124.41
-129.84
-134.57
-138.75
-142.59
-146.50
-151.00
-156.50
-162.86
-168.99
-172.84
-171.83
-163.77
-147.73
-124.54
-96.57
-67.00
-38.72
-13.57
7.88
25.96
41.37
54.64
66.00
75.44
83.03
88.86
93.09
95.71
96.50
95.19
91.61
85.98
78.90
71.42
64.70
59.85
57.54
57.80
59.98
62.85
64.99
65.15
62.66
57.48
50.04
41.01
30.97
20.35
9.39
-1.60
-12.22
-21.98
-30.41
-37.16
-42.05
-45.20
-46.97
-48.06
-49.46
-52.35
-57.86
-66.59
-78.27
-91.37
-103.24
-110.70
-110.88
-102.12
-84.67
-60.64
-33.30
-6.12
18.20
38.23
53.68
64.98
72.68
77.23
78.89
78.07
75.38
71.67
67.85
64.55
62.05
60.24
58.82
57.57
56.43
55.53
55.04
55.04
55.29
55.35
54.62
52.53
48.72
43.11
35.83
27.21
17.80
8.11
-1.38
-10.27
-18.31
-25.26
-30.90
-35.10
-37.78
-39.04
-39.38
-39.63
-40.88
-44.26
-50.54
-59.84
-71.29
-83.16
-93.03
-98.49
-97.79
-90.23
-76.47
-58.12
-37.31
-16.03
4.13
22.23
37.88
50.99
61.76
70.41
77.15
82.16
85.48
87.05
86.78
84.58
80.51
74.69
67.28
58.59
49.04
39.26
30.06
22.31
16.68
13.44
12.45
13.09
14.55
16.01
16.71
16.10
13.84
9.85
4.11
-3.26
-12.17
-22.50
-34.06
-46.59
-59.71
-73.02
-86.04
-98.12
-108.18
-114.69
-115.79
-109.81
-95.99
-75.00
-49.08
-21.45
4.46
25.96
41.62
51.29
55.77
56.30
54.18
50.53
46.27
42.11
38.61
36.16
34.96
34.98
35.98
37.45
38.75
39.33
38.76
36.96
34.06
