1553290138.00
64.000000
-0.00
-0.00
-0.00
-0.00
-0.00
-0.00
-0.00
-0.00
-0.00
-0.00
0.00
0.01
0.01
-0.00
-0.03
-0.05
-0.05
0.00
0.13
0.36
0.66
1.01
1.37
1.72
2.06
2.40
2.79
3.24
3.80
4.42
5.06
5.66
6.20
6.68
7.15
7.68
8.31
9.14
10.09
11.04
11.88
12.56
13.14
13.76
14.65
15.96
17.91
20.32
22.90
25.38
27.58
29.57
31.68
34.32
37.81
42.54
48.15
54.10
59.83
64.97
69.58
74.14
79.34
85.71
93.76
103.00
112.62
121.73
129.77
136.75
143.30
150.75
157.77
166.64
177.95
191.79
206.97
220.57
228.25
225.36
208.53
176.87
132.76
80.05
23.07
-34.94
-92.44
-149.16
-205.23
-260.37
-313.74
-363.87
-409.83
-450.91
-486.50
-515.74
-537.23
-549.22
-549.96
-538.37
-514.21
-478.67
-433.88
-382.45
-327.02
-269.84
-212.63
-156.66
-102.95
-52.37
-5.90
35.58
71.43
101.35
125.50
144.38
158.69
169.15
176.37
180.75
182.57
182.07
179.51
175.23
169.65
163.18
156.15
148.81
141.30
133.69
126.02
118.33
110.69
103.16
95.80
88.68
81.83
75.25
68.95
62.95
57.25
51.86
46.78
42.03
37.59
33.45
29.61
26.07
22.81
19.83
17.11
14.67
12.48
10.54
8.83
7.35
6.07
4.97
4.05
3.27
2.62
2.09
1.65
1.30
1.01
0.79
0.61
0.48
0.37
0.29
0.22
0.18
0.16
0.15
0.16
0.18
0.19
0.19
0.15
0.09
0.03
-0.02
-0.03
0.01
0.07
0.13
0.16
0.15
0.10
0.03
-0.02
-0.01
0.06
0.17
0.26
0.30
0.25
0.14
0.01
-0.06
0.01
0.23
0.53
0.78
0.86
0.70
0.36
-0.03
-0.27
-0.18
0.27
0.91
1.50
1.73
1.46
0.76
-0.08
-0.64
-0.62
0.07
1.17
2.20
2.69
2.35
1.31
0.00
-0.95
-1.11
-0.35
1.03
2.45
3.28
2.94
1.00
-2.79
-8.21
-14.37
-19.63
-22.00
-20.02
-13.49
-3.89
6.07
13.48
16.53
15.14
10.80
5.67
1.59
-0.57
-0.96
-0.16
1.21
2.85
4.62
6.36
7.71
8.19
7.46
5.42
2.51
-0.52
-2.84
-3.91
-3.68
-2.56
-1.19
-0.15
0.27
0.13
-0.30
-0.74
-1.03
-1.14
-1.10
-1.04
-1.07
-1.30
-1.79
-2.56
-3.53
-4.50
-5.19
-5.40
-5.06
-4.32
-3.43
-2.75
-2.54
-2.96
-3.94
-5.25
-6.55
-7.45
-7.57
-6.62
-4.40
-0.96
3.41
8.20
12.81
16.69
19.53
20.93
20.85
19.55
17.48
15.03
12.55
10.27
8.37
7.00
6.28
6.30
7.00
8.18
9.47
10.49
10.96
10.71
9.80
8.40
6.81
5.27
3.85
2.45
0.87
-1.04
-3.30
-5.75
-8.14
-10.31
-12.25
-14.11
-16.12
-18.45
-21.22
-24.43
-28.03
-31.79
-35.24
-37.66
-38.24
-36.35
-31.86
-25.21
-17.29
-9.16
-1.69
4.56
9.38
12.77
14.80
15.60
15.37
14.42
13.12
11.86
10.99
10.74
11.21
12.28
13.72
15.18
16.32
16.93
16.99
16.60
15.89
14.91
13.60
11.89
9.75
7.31
4.79
2.43
0.38
-1.33
-2.78
-4.06
-5.20
-6.27
-7.42
-8.93
-11.14
-14.28
-18.19
-22.20
-25.29
-26.35
-24.64
-20.10
-13.34
-5.47
2.34
9.22
14.70
18.70
21.28
22.53
22.49
21.27
19.21
16.85
14.85
13.78
13.85
14.88
16.36
17.66
18.30
18.05
17.00
15.40
13.47
11.35
9.05
6.57
3.92
1.22
-1.39
-3.78
-5.89
-7.76
-9.39
-10.80
-11.93
-12.73
-13.28
-13.83
-14.77
-16.47
-19.09
-22.30
-25.42
-27.50
-27.70
-25.58
-21.18
-15.06
-8.04
-0.97
5.44
10.70
14.44
16.45
16.61
14.99
11.94
8.05
4.07
0.74
-1.50
-2.54
-2.61
-2.15
-1.54
-1.00
-0.61
-0.31
-0.07
0.08
0.08
-0.17
-0.75
-1.69
-2.96
-4.48
-6.13
-7.71
-8.99
-9.80
-10.18
-10.35
-10.82
-12.12
-14.54
-17.91
-21.57
-24.49
-25.67
-24.49
-20.93
-15.52
-9.11
-2.57
3.45
8.50
12.31
14.67
15.48
14.81
12.99
10.58
8.27
6.62
5.90
5.99
6.55
7.14
7.48
7.53
7.42
7.25
6.95
6.26
4.87
2.60
-0.42
-3.78
-7.00
-9.79
-12.14
-14.29
-16.52
-18.99
-21.68
-24.47
-27.33
-30.31
-33.44
-36.48
-38.83
-39.52
-37.59
-32.53
-24.48
-14.43
-3.79
5.96
13.78
19.23
22.46
23.89
24.01
23.18
21.70
19.84
17.99
16.53
15.78
15.85
16.60
17.68
18.71
19.38
19.52
19.12
18.23
16.95
15.33
13.36
11.04
8.39
5.50
2.59
-0.08
-2.34
-4.23
-6.04
-8.24
-11.21
-15.06
-19.45
-23.66
-26.82
-28.19
-27.30
-24.13
-18.99
-12.50
-5.43
1.42
7.32
11.77
14.55
15.74
15.62
14.56
12.97
11.22
9.64
8.56
8.17
8.49
9.31
10.21
10.82
10.91
10.52
9.94
9.47
9.24
9.12
8.73
7.68
5.74
3.02
-0.10
-3.14
-5.72
-7.77
-9.55
-11.53
-14.14
-17.60
-21.68
-25.81
-29.20
-31.04
-30.83
-28.37
-23.85
-17.72
-10.57
-3.09
4.01
10.07
14.55
17.16
17.93
17.23
15.65
13.82
12.21
11.07
10.42
10.19
10.25
10.48
10.75
10.91
10.82
10.45
9.83
9.16
8.56
8.02
7.37
6.34
4.78
2.72
0.45
-1.68
-3.41
-4.75
-5.91
-7.29
-9.29
-12.14
-15.81
-19.92
-23.82
-26.67
-27.70
-26.52
-23.21
-18.27
-12.46
-6.46
-0.79
4.27
8.50
11.67
13.53
13.97
13.13
11.44
9.52
8.01
7.33
7.65
8.82
10.48
12.22
13.63
14.44
14.55
14.07
13.13
11.87
10.34
8.52
6.36
3.93
1.37
-1.08
-3.20
-4.89
-6.21
-7.41
-8.83
-10.76
-13.39
-16.62
-20.11
-23.23
-25.24
-25.48
-23.54
-19.46
-13.68
-6.96
-0.12
6.12
11.26
15.06
17.44
18.44
18.20
17.03
15.36
13.70
12.53
12.12
12.44
13.20
14.02
14.63
14.91
14.93
14.80
14.52
14.01
13.08
11.60
9.59
7.19
4.63
2.10
-0.31
-2.55
-4.68
-6.71
-8.72
-10.88
-13.44
-16.62
-20.45
-24.55
-28.19
-30.38
-30.30
-27.53
-22.34
-15.53
-8.15
-1.12
5.01
10.06
14.07
17.04
18.81
19.25
18.31
16.36
14.01
12.08
11.21
11.64
13.12
15.03
16.64
17.46
17.32
16.41
15.07
13.56
11.98
10.28
8.37
6.29
4.22
2.41
1.02
-0.00
-0.92
-2.06
-3.66
-5.77
-8.28
-11.07
-14.07
-17.29
-20.66
-23.89
-26.41
-27.48
-26.47
-23.13
-17.75
-11.11
-4.18
2.17
7.40
11.33
14.01
15.56
16.03
15.49
14.07
12.19
10.44
9.51
9.83
11.37
13.64
15.88
17.39
17.85
17.35
16.29
15.08
13.97
12.90
11.69
10.12
8.16
5.89
3.50
1.14
-1.09
-3.16
-5.06
-6.77
-8.35
-9.92
-11.70
-13.93
-16.78
-20.14
-23.64
-26.61
-28.29
-28.05
-25.58
-20.98
-14.72
-7.52
-0.17
6.57
12.11
16.07
18.34
19.07
18.66
17.62
16.45
15.51
14.96
14.79
14.92
15.19
15.48
15.67
15.62
15.23
14.39
13.10
11.39
9.43
7.39
5.44
3.65
2.01
0.41
-1.27
-3.09
-5.00
-6.82
-8.40
-9.70
-10.87
-12.26
-14.20
-16.89
-20.20
-23.70
-26.75
-28.74
-29.24
-28.01
-25.02
-20.42
-14.51
-7.76
-0.79
5.71
11.10
14.90
16.95
17.37
16.51
14.90
13.08
11.56
10.66
10.51
11.03
11.92
12.75
13.13
12.79
11.68
9.97
7.89
5.66
3.37
1.02
-1.44
-3.97
-6.45
-8.72
-10.65
-12.22
-13.54
-14.75
-15.98
-17.32
-18.88
-20.81
-23.25
-26.22
-29.47
-32.46
-34.47
-34.79
-33.00
-29.09
-23.44
-16.70
-9.63
-2.92
2.89
7.50
10.80
12.79
13.61
13.45
12.58
11.35
10.17
9.44
9.45
10.22
11.52
12.89
13.89
14.23
13.94
13.27
12.56
12.04
11.68
11.21
10.25
8.52
5.96
2.75
-0.65
-3.81
-6.38
-8.25
-9.62
-10.87
-12.36
-14.38
-17.07
-20.39
-24.19
-28.14
-31.69
-34.09
-34.56
-32.56
-28.00
-21.36
-13.56
-5.64
1.57
7.61
12.35
15.78
17.90
18.69
18.24
16.87
15.17
13.79
13.29
13.87
15.35
17.21
18.88
19.93
20.21
19.86
19.17
18.38
17.54
16.55
15.20
13.35
11.05
8.47
5.87
3.42
1.16
-1.02
-3.21
-5.44
-7.66
-9.78
-11.78
-13.84
-16.31
-19.50
-23.50
-27.94
-31.98
-34.58
-34.79
-32.18
-26.93
-19.86
-12.02
-4.39
2.35
7.90
12.16
15.11
16.67
16.79
15.55
13.27
10.53
7.97
6.18
5.44
5.68
6.58
7.68
8.64
9.29
9.68
9.90
10.04
10.10
10.00
9.66
9.02
8.08
6.91
5.55
4.04
2.38
0.58
-1.32
-3.30
-5.35
-7.57
-10.10
-13.09
-16.71
-20.91
-25.43
-29.72
-33.06
-34.64
-33.90
-30.62
-25.06
-17.89
-10.01
-2.36
4.30
9.47
12.98
14.89
15.44
15.00
13.94
12.70
11.61
10.95
10.87
11.38
12.37
13.64
14.96
16.14
17.08
17.72
18.08
18.15
17.94
17.35
16.32
14.81
12.84
10.51
7.96
5.36
2.87
0.57
-1.60
-3.78
-6.24
-9.25
-12.91
-17.06
-21.30
-25.01
-27.49
-28.17
-26.70
-23.03
-17.42
-10.44
-2.87
4.44
10.69
15.27
17.93
18.74
18.03
16.31
14.15
12.09
10.57
9.85
9.98
10.77
11.85
12.83
13.39
13.36
12.71
11.57
10.08
8.39
6.60
4.77
2.87
0.86
-1.29
-3.59
-5.92
-8.14
-10.08
-11.71
-13.16
-14.77
-16.87
-19.66
-22.99
-26.35
-28.93
-29.88
-28.60
-24.96
-19.31
-12.37
-4.99
2.08
8.30
13.34
17.01
19.13
19.66
18.71
16.62
13.96
11.44
9.64
8.91
9.20
10.19
11.38
12.33
12.75
12.56
11.87
10.82
9.51
7.91
5.92
3.43
0.48
-2.72
-5.83
-8.50
-10.57
-12.11
-13.51
-15.23
-17.65
-20.91
-24.78
-28.69
-31.93
-33.77
-33.69
-31.49
-27.28
-21.40
-14.36
-6.73
0.88
7.84
13.57
17.67
19.91
20.45
19.70
18.26
16.72
15.50
14.79
14.58
14.79
15.30
16.02
16.85
17.63
18.11
18.03
17.20
15.62
13.47
11.03
8.55
6.12
3.67
1.12
-1.57
-4.28
-6.81
-9.09
-11.29
-13.83
-17.15
-21.40
-26.16
-30.55
-33.45
-33.96
-31.76
-27.17
-20.98
-14.08
-7.20
-0.81
4.80
9.37
12.62
14.31
14.43
13.27
11.49
9.81
8.81
8.69
9.32
10.34
11.40
12.29
12.99
13.53
13.90
14.02
13.73
12.92
11.59
9.86
7.87
5.73
3.48
1.08
-1.45
-4.00
-6.44
-8.64
-10.64
-12.68
-15.10
-18.17
-21.85
-25.68
-28.78
-30.19
-29.16
-25.47
-19.51
-12.11
-4.26
3.24
9.86
15.35
19.56
22.36
23.62
23.36
21.85
19.66
17.54
16.15
15.87
16.67
18.20
19.87
21.18
21.78
21.59
20.77
19.61
18.37
17.22
16.12
14.91
13.42
11.57
9.46
7.27
5.23
3.44
1.90
0.48
-1.06
-2.95
-5.42
-8.63
-12.54
-16.87
-21.03
-24.20
-25.60
-24.68
-21.35
-16.01
-9.41
-2.41
4.16
9.65
13.66
15.96
16.60
15.81
14.05
11.88
9.87
8.43
7.77
7.82
8.31
8.88
9.22
9.13
8.57
7.58
6.23
4.57
2.63
0.43
-1.94
-4.30
-6.47
-8.26
-9.58
-10.44
-10.94
-11.25
-11.55
-12.11
-13.18
-15.05
-17.87
-21.52
-25.48
-28.93
-30.85
-30.43
-27.32
-21.80
-14.70
-7.07
0.10
6.11
10.64
13.64
15.20
15.47
14.70
13.24
11.54
10.09
9.27
9.21
9.83
10.85
11.98
12.99
13.73
14.13
14.11
13.61
12.60
11.12
9.26
7.12
4.77
2.21
-0.52
-3.32
-6.00
-8.35
-10.24
-11.75
-13.18
-15.00
-17.63
-21.24
-25.63
-30.17
-34.03
-36.29
-36.27
-33.70
-28.70
-21.83
-13.82
-5.52
2.28
9.00
14.21
17.77
19.69
20.18
19.51
18.06
16.24
14.54
13.40
13.18
13.94
15.46
17.22
18.63
19.23
18.86
17.66
15.99
14.23
12.59
11.09
9.55
7.77
5.62
3.21
0.75
-1.47
-3.36
-4.99
-6.61
-8.52
-10.91
-13.85
-17.30
-21.11
-25.10
-28.92
-32.00
-33.62
-33.06
-29.88
-24.18
-16.58
-8.12
0.05
7.03
12.33
15.85
17.83
18.57
18.35
17.39
15.88
14.14
12.61
11.79
11.97
13.10
14.78
16.32
17.12
16.90
15.80
14.22
12.57
11.07
9.67
8.12
6.18
3.73
0.86
-2.18
-5.14
-7.81
-10.15
-12.24
-14.28
-16.52
-19.16
-22.37
-26.15
-30.28
-34.25
-37.36
-38.82
-37.99
-34.63
-28.97
-21.71
-13.76
-6.02
0.85
6.49
10.72
13.52
14.91
15.01
14.05
12.45
10.75
9.50
9.06
9.46
10.45
11.57
12.39
12.74
12.69
12.44
12.21
11.99
11.53
10.49
8.59
5.83
2.54
-0.75
-3.49
-5.38
-6.43
-6.95
-7.42
-8.31
-10.03
-12.75
-16.45
-20.81
-25.27
-28.99
-31.07
-30.72
-27.57
-21.88
-14.41
-6.28
1.47
8.08
13.23
16.88
19.07
19.88
19.36
17.73
15.44
13.10
11.34
10.58
10.85
11.82
13.01
13.98
14.50
14.58
14.34
13.90
13.24
12.22
10.62
8.30
5.29
1.83
-1.70
-4.90
-7.50
-9.44
-10.92
-12.31
-14.04
-16.48
-19.81
-23.92
-28.37
-32.43
-35.21
-35.89
-33.98
-29.48
-22.90
-15.13
-7.16
0.14
6.20
10.74
13.72
15.16
15.21
14.07
12.11
9.84
7.82
6.53
6.23
6.77
7.76
8.66
9.00
8.59
7.50
5.96
4.19
2.26
0.01
-2.75
-6.18
-10.21
-14.59
-18.97
-23.07
-26.80
-30.27
-33.72
-37.38
-41.40
-45.91
-50.95
-56.46
-62.15
-67.39
-71.26
-72.71
-70.88
-65.39
-56.45
-44.77
-31.33
-17.12
-2.97
10.38
22.35
32.39
40.12
45.46
48.65
50.22
50.79
50.94
51.02
51.14
51.19
51.00
50.39
49.25
47.58
45.42
42.81
39.78
36.31
32.36
27.96
23.19
18.25
13.45
9.01
5.08
1.66
-1.41
-4.40
-7.66
-11.47
-16.01
-21.19
-26.52
-31.23
-34.33
-34.92
-32.45
-26.92
-18.92
-9.49
0.12
8.75
15.57
20.14
22.36
22.46
20.83
18.01
14.63
11.35
8.78
7.33
7.09
7.92
9.45
11.23
12.86
14.07
14.66
14.50
13.48
11.59
8.92
5.73
2.37
-0.75
-3.34
-5.32
-6.83
-8.21
-9.84
-12.12
-15.25
-19.25
-23.79
-28.24
-31.72
-33.23
-31.93
-27.40
-19.82
-10.00
0.81
11.30
20.38
27.43
32.22
34.82
35.39
34.19
31.56
28.04
24.36
21.25
19.26
18.49
18.62
19.01
19.08
18.44
17.06
15.13
12.86
10.43
7.87
5.21
2.53
-0.02
-2.29
-4.24
-5.92
-7.51
-9.25
-11.31
-13.81
-16.80
-20.21
-23.74
-26.89
-28.91
-29.02
-26.66
-21.73
-14.73
-6.65
1.34
8.22
13.40
16.71
18.32
18.55
17.66
15.93
13.63
11.10
8.84
7.30
6.75
7.20
8.34
9.71
10.87
11.53
11.58
10.98
9.76
7.88
5.35
2.27
-1.16
-4.62
-7.80
-10.51
-12.76
-14.77
-16.90
-19.53
-22.98
-27.32
-32.32
-37.38
-41.56
-43.82
-43.27
-39.46
-32.59
-23.47
-13.32
-3.43
5.13
11.68
15.98
18.13
18.47
17.50
15.79
13.93
12.41
11.55
11.50
12.18
13.38
14.86
16.36
17.69
18.67
19.13
18.89
17.78
15.73
12.78
9.18
5.27
1.45
-1.97
-4.80
-7.05
-8.91
-10.65
-12.68
-15.40
-19.09
-23.68
-28.65
-32.89
-35.09
-34.08
-29.31
-21.13
-10.73
0.29
10.41
18.58
24.38
27.84
29.22
28.87
27.16
24.63
21.92
19.73
18.64
18.87
20.21
22.10
23.85
24.92
25.02
24.21
22.75
20.95
19.05
17.09
14.96
12.49
9.58
6.24
2.68
-0.81
-3.97
-6.73
-9.29
-12.03
-15.38
-19.55
-24.37
-29.19
-32.99
-34.72
-33.61
-29.47
-22.74
-14.38
-5.65
2.30
8.57
12.68
14.51
14.27
12.41
9.51
6.21
3.10
0.65
-0.86
-1.35
-0.93
0.17
1.69
3.34
4.92
6.28
7.29
7.82
7.67
6.67
4.74
1.93
-1.50
-5.13
-8.57
-11.51
-13.86
-15.77
-17.56
-19.61
-22.22
-25.47
-29.08
-32.35
-34.28
-33.87
-30.40
-23.82
-14.73
-4.26
6.30
15.84
23.64
29.36
32.93
34.39
33.90
31.79
28.70
25.47
23.00
21.91
22.31
23.73
25.39
26.51
26.68
25.98
24.82
23.64
22.63
21.58
20.08
17.73
14.42
10.46
6.36
2.74
-0.08
-2.11
-3.70
-5.38
-7.68
-10.97
-15.35
-20.64
-26.28
-31.47
-35.18
-36.45
-34.63
-29.64
-22.05
-12.92
-3.57
4.84
11.53
16.19
18.89
19.88
19.48
18.04
15.96
13.73
11.89
10.87
10.85
11.69
12.99
14.24
15.04
15.24
14.95
14.32
13.47
12.30
10.65
8.32
5.33
1.88
-1.69
-5.02
-7.93
-10.40
-12.60
-14.75
-17.06
-19.71
-22.81
-26.44
-30.50
-34.73
-38.49
-40.93
-41.11
-38.31
-32.41
-23.93
-14.03
-4.06
4.73
11.55
16.11
18.52
19.15
18.38
16.66
14.46
12.28
10.63
9.86
10.13
11.31
13.08
14.96
16.50
17.38
17.45
16.76
15.43
13.63
11.42
8.85
5.91
2.77
-0.31
-3.02
-5.16
-6.74
-8.10
-9.70
-11.98
-15.22
-19.36
-24.00
-28.45
-31.84
-33.24
-31.94
-27.73
-20.92
-12.42
-3.47
4.75
11.34
15.86
18.26
18.75
17.64
15.28
12.14
8.76
5.76
3.69
2.87
3.26
4.47
5.82
6.70
6.76
6.01
4.83
3.65
2.78
2.17
1.56
0.57
-1.02
-3.14
-5.46
-7.55
-9.12
-10.07
-10.55
-10.92
-11.59
-12.92
-15.12
-18.10
-21.53
-24.73
-26.93
-27.39
-25.66
-21.74
-16.02
-9.27
-2.36
3.88
8.78
11.96
13.22
12.65
10.49
7.27
3.69
0.51
-1.60
-2.29
-1.63
-0.06
1.75
3.24
4.04
4.14
3.79
3.32
3.03
3.07
3.41
3.88
4.28
4.42
4.21
3.68
2.92
2.03
0.98
-0.37
-2.32
-5.19
-9.20
-14.37
-20.38
-26.57
-32.03
-35.72
-36.76
-34.67
-29.55
-22.07
-13.32
-4.51
3.29
9.37
13.43
15.52
15.93
15.09
13.45
11.46
9.56
8.15
7.55
7.94
9.26
11.18
13.20
14.75
15.48
15.33
14.54
13.50
12.40
11.18
9.46
6.86
3.17
-1.41
-6.33
-10.96
-14.85
-17.95
-20.55
-23.18
-26.38
-30.58
-35.90
-42.19
-48.88
-55.09
-59.74
-61.83
-60.73
-56.40
-49.49
-41.13
-32.62
-25.07
-19.25
-15.51
-13.90
-14.33
-16.64
-20.56
-25.66
-31.38
-37.04
-41.98
-45.72
-47.99
-48.67
-47.70
-44.98
-40.42
-34.07
-26.23
-17.50
-8.69
-0.65
5.93
10.66
13.50
14.71
14.77
14.17
13.20
11.90
9.97
6.93
2.32
-4.00
-11.66
-19.65
-26.52
-30.70
-31.00
-26.94
-18.94
-8.14
3.91
15.71
26.05
34.19
39.81
42.99
44.09
43.72
42.54
41.06
39.57
38.03
36.31
34.37
32.40
30.83
30.03
30.10
30.71
31.25
31.06
29.74
27.28
24.02
20.48
17.09
14.08
11.36
8.71
5.82
2.51
-1.20
-5.06
-8.60
-11.18
-12.08
-10.68
-6.60
0.15
9.04
19.13
29.27
38.41
45.86
51.38
55.05
57.06
57.58
56.69
54.54
51.39
47.69
43.93
40.56
37.77
35.54
33.72
32.11
30.56
28.96
27.26
25.36
23.14
20.47
17.26
13.56
9.53
5.43
1.48
-2.14
-5.47
-8.68
-12.05
-15.85
-20.27
-25.25
-30.51
-35.43
-39.17
-40.84
-39.75
-35.62
-28.79
-20.14
-10.83
-2.02
5.39
10.91
14.34
15.76
15.41
13.69
11.18
8.59
6.53
5.42
5.32
5.98
7.04
8.17
9.20
10.09
10.84
11.33
11.29
10.47
8.68
6.01
2.78
-0.56
-3.58
-6.06
-8.05
-9.86
-11.95
-14.79
-18.74
-23.78
-29.48
-34.98
-39.10
-40.65
-38.75
-33.17
-24.41
-13.59
-2.11
8.67
17.75
24.55
28.90
30.87
30.73
28.89
25.95
22.59
19.54
17.34
16.26
16.19
16.73
17.38
17.69
17.44
16.65
15.49
14.19
12.87
11.50
9.90
7.86
5.23
2.04
-1.52
-5.12
-8.44
-11.29
-13.72
-16.05
-18.75
-22.30
-26.94
-32.45
-38.11
-42.76
-45.15
-44.34
-40.02
-32.59
-23.05
-12.61
-2.44
6.55
13.76
18.79
21.46
21.83
20.29
17.56
14.58
12.20
10.99
11.02
11.99
13.43
14.92
16.26
17.43
18.44
19.21
19.47
18.91
17.31
14.73
11.44
7.88
4.46
1.46
-1.07
-3.18
-5.01
-6.70
-8.47
-10.57
-13.30
-16.86
-21.23
-25.97
-30.26
-33.04
-33.36
-30.66
-25.02
-17.07
-7.84
1.51
10.00
16.89
21.80
24.55
25.22
24.12
21.77
18.84
15.98
13.69
12.21
11.53
11.44
11.72
12.13
12.49
12.65
12.50
11.95
11.03
9.76
8.20
6.36
4.17
1.58
-1.34
-4.39
-7.27
-9.70
-11.69
-13.49
-15.65
-18.73
-23.04
-28.42
-34.17
-39.20
-42.30
-42.50
-39.39
-33.18
-24.71
-15.16
-5.76
2.49
9.00
13.68
16.68
18.39
19.17
19.35
19.18
18.87
18.63
18.61
18.88
19.39
20.01
20.56
20.89
20.96
20.77
20.38
19.74
18.74
17.16
14.82
11.62
7.65
3.15
-1.55
-6.15
-10.48
-14.54
-18.45
-22.46
-26.77
-31.51
-36.58
-41.63
-46.05
-49.10
-50.14
-48.77
-45.04
-39.30
-32.17
-24.24
-16.07
-8.16
-0.97
5.01
9.40
12.08
13.26
13.47
13.37
13.49
14.13
15.35
17.04
19.09
21.43
23.96
26.46
28.62
30.11
30.68
30.31
29.19
27.55
25.58
23.33
20.76
17.85
14.71
11.56
8.69
6.21
4.03
1.88
-0.64
-3.79
-7.61
-11.89
-16.20
-19.99
-22.69
-23.78
-22.91
-20.01
-15.30
-9.32
-2.81
3.49
8.93
13.10
15.76
16.85
16.45
14.84
12.48
10.01
8.11
7.28
7.69
9.14
11.15
13.14
14.65
15.48
15.68
15.47
15.09
14.65
14.03
12.99
11.31
8.90
5.93
2.73
-0.35
-3.10
-5.50
-7.65
-9.73
-11.87
-14.27
-17.11
-20.53
-24.53
-28.81
-32.76
-35.56
-36.46
-35.03
-31.36
-25.98
-19.69
-13.35
-7.65
-3.07
0.13
1.90
2.40
1.91
0.84
-0.33
-1.17
-1.33
-0.64
0.79
2.71
4.78
6.74
8.53
10.20
11.85
13.44
14.77
15.45
15.10
13.53
10.82
7.33
3.57
0.02
-3.01
-5.44
-7.47
-9.43
-11.73
-14.69
-18.40
-22.68
-27.07
-30.95
-33.65
-34.59
-33.38
-29.91
-24.44
-17.52
-9.99
-2.79
3.34
7.96
10.99
12.67
13.26
12.98
11.94
10.30
8.41
6.78
5.94
6.20
7.38
8.94
10.17
10.54
9.99
8.82
7.53
6.48
5.67
4.81
3.48
1.45
-1.15
-3.95
-6.49
-8.47
-9.93
-11.14
-12.44
-14.04
-16.00
-18.22
-20.62
-23.09
-25.55
-27.77
-29.33
-29.64
-28.12
-24.40
-18.57
-11.17
-3.09
4.66
11.27
16.24
19.49
21.19
21.63
21.13
19.89
18.19
16.30
14.61
13.47
13.11
13.49
14.35
15.32
16.05
16.39
16.36
16.06
15.59
14.93
14.03
12.77
11.12
9.10
6.82
4.41
2.03
-0.17
-2.02
-3.44
-4.49
-5.37
-6.47
-8.17
-10.72
-14.06
-17.77
-21.14
-23.35
-23.72
-21.89
-17.95
-12.30
-5.58
1.53
8.41
14.55
19.50
22.91
24.56
24.46
22.92
20.44
17.72
15.35
13.77
13.15
13.43
14.47
16.05
17.99
20.09
22.13
23.89
25.14
25.73
25.61
24.88
23.69
22.20
20.51
18.66
16.61
14.40
12.06
9.63
7.03
4.00
0.19
-4.77
-11.01
-18.34
-26.19
-33.78
-40.34
-45.21
-48.03
-48.69
-47.31
-44.16
-39.67
-34.36
-28.82
-23.61
-19.24
-16.06
-14.20
-13.63
-14.09
-15.18
-16.45
-17.44
-17.82
-17.43
-16.32
-14.72
-12.90
-11.12
-9.55
-8.26
-7.32
-6.84
-6.98
-7.81
-9.28
-11.16
-13.06
-14.59
-15.45
-15.62
-15.35
-15.08
-15.32
-16.45
-18.60
-21.58
-24.92
-27.98
-30.11
-30.79
-29.70
-26.82
-22.31
-16.49
-9.82
-2.78
4.08
10.21
15.09
18.34
19.77
19.38
17.45
14.41
10.82
7.24
4.22
2.15
1.22
1.35
2.24
3.41
4.33
4.58
3.92
2.34
0.03
-2.74
-5.70
-8.70
-11.73
-14.86
-18.18
-21.73
-25.47
-29.31
-33.26
-37.31
-41.53
-45.84
-49.97
-53.46
-55.77
-56.52
-55.64
-53.38
-50.18
-46.50
-42.71
-39.10
-36.08
-34.26
-34.41
-37.18
-42.76
-50.66
-59.60
-67.73
-73.06
-74.01
-69.69
-60.26
-46.79
-31.00
-14.88
-0.16
11.88
20.57
25.74
27.63
26.76
23.87
19.83
15.50
11.47
7.93
4.66
1.26
-2.56
-6.83
-11.37
-15.92
-20.44
-25.08
-29.97
-34.92
-39.24
-41.81
-41.49
-37.58
-30.18
-20.15
-8.82
2.48
12.77
21.54
28.64
34.08
37.85
39.94
40.43
39.67
38.27
36.98
36.48
37.16
39.06
41.85
45.02
48.00
50.26
51.44
51.33
49.94
47.50
44.33
40.76
36.91
32.72
28.03
22.78
17.16
11.62
6.74
2.86
-0.09
-2.64
-5.63
-9.87
-15.84
-23.45
-32.03
-40.41
-47.14
-50.81
-50.38
-45.46
-36.49
-24.60
-11.38
1.51
12.77
21.63
27.88
31.74
33.59
33.86
32.92
31.17
29.11
27.29
26.26
26.42
27.85
30.23
32.97
35.38
36.93
37.39
36.88
35.70
34.23
32.69
31.11
29.39
27.34
24.85
21.96
18.85
15.76
12.91
10.40
8.19
6.07
3.72
0.78
-3.10
-8.15
-14.34
-21.26
-28.11
-33.70
-36.77
-36.31
-31.92
-23.94
-13.41
-1.73
9.67
19.71
27.75
33.56
37.21
38.90
38.93
37.70
35.67
33.42
31.49
30.35
30.17
30.87
32.11
33.42
34.37
34.69
34.33
33.43
32.19
30.77
29.22
27.42
25.18
22.37
18.97
15.20
11.40
7.99
5.31
3.48
2.30
1.35
0.02
-2.24
-5.79
-10.58
-16.16
-21.62
-25.78
-27.41
-25.57
-19.91
-10.91
0.19
11.63
21.64
28.93
32.97
34.03
32.91
30.54
27.65
24.69
21.94
19.60
17.96
17.24
17.56
18.75
20.37
21.89
22.88
23.14
22.70
21.77
20.55
19.14
17.53
15.60
13.19
10.27
6.93
3.43
0.08
-2.80
-5.08
-6.84
-8.37
-10.06
-12.32
-15.46
-19.66
-24.87
-30.79
-36.82
-42.09
-45.53
-46.21
-43.53
-37.49
-28.68
-18.16
-7.12
3.31
12.32
19.40
24.34
27.15
28.00
27.21
25.31
22.93
20.67
19.06
18.30
18.27
18.68
19.17
19.57
19.86
20.17
20.58
21.05
21.32
21.08
20.09
18.30
15.86
13.02
10.02
6.97
3.89
0.75
-2.42
-5.47
-8.27
-10.78
-13.15
-15.68
-18.75
-22.63
-27.33
-32.60
-37.88
-42.43
-45.39
-45.93
-43.43
-37.63
-28.81
-17.79
-5.75
6.05
16.57
25.17
31.55
35.67
37.54
37.30
35.23
31.84
27.91
24.24
21.49
19.98
19.64
20.05
20.72
21.18
21.13
20.51
19.40
17.94
16.27
14.42
12.34
9.93
7.17
4.16
1.14
-1.56
-3.72
-5.30
-6.49
-7.57
-8.84
-10.44
-12.38
-14.66
-17.33
-20.60
-24.73
-29.81
-35.55
-41.12
-45.32
-46.90
-45.05
-39.62
-31.25
-21.06
-10.31
-0.02
9.18
16.92
22.99
27.19
29.35
29.45
27.86
25.25
22.50
20.41
19.43
19.63
20.71
22.23
23.73
24.88
25.51
25.49
24.79
23.40
21.37
18.79
15.77
12.42
8.78
4.90
0.86
-3.19
-7.06
-10.51
-13.39
-15.66
-17.46
-19.06
-20.75
-22.80
-25.42
-28.77
-32.85
-37.53
-42.32
-46.44
-48.83
-48.48
-44.71
-37.48
-27.47
-15.93
-4.35
5.96
14.13
19.87
23.32
24.86
25.00
24.19
22.85
21.41
20.31
19.98
20.67
22.40
24.88
27.64
30.18
32.17
33.52
34.31
34.64
34.48
33.66
31.96
29.29
25.72
21.56
17.16
12.85
8.87
5.35
2.34
-0.19
-2.35
-4.34
-6.46
-9.03
-12.32
-16.43
-21.21
-26.19
-30.61
-33.56
-34.18
-31.93
-26.82
-19.46
-10.88
-2.19
5.63
12.02
16.81
20.08
21.96
22.57
22.00
20.42
18.17
15.71
13.54
12.04
11.34
11.26
11.40
11.34
10.75
9.52
7.77
5.73
3.65
1.67
-0.22
-2.17
-4.35
-6.91
-9.90
-13.22
-16.70
-20.12
-23.33
-26.22
-28.85
-31.34
-33.97
-37.00
-40.69
-45.13
-50.12
-55.09
-59.15
-61.26
-60.58
-56.71
-49.84
-40.73
-30.46
-20.15
-10.75
-2.91
2.99
6.81
8.60
8.65
7.42
5.50
3.47
1.81
0.75
0.35
0.50
1.08
1.92
2.91
3.92
4.80
5.36
5.38
4.74
3.35
1.27
-1.38
-4.44
-7.75
-11.18
-14.63
-17.96
-21.04
-23.75
-26.07
-28.17
-30.39
-33.17
-36.84
-41.39
-46.37
-50.86
-53.78
-54.13
-51.30
-45.25
-36.51
-25.98
-14.77
-3.90
5.73
13.49
18.98
22.02
22.71
21.41
18.73
15.43
12.32
10.06
9.10
9.58
11.31
13.85
16.61
19.00
20.57
21.09
20.63
19.47
17.97
16.38
14.80
13.06
10.92
8.20
4.90
1.27
-2.34
-5.61
-8.38
-10.70
-12.78
-14.88
-17.30
-20.28
-23.96
-28.34
-33.11
-37.64
-40.97
-42.04
-39.99
-34.52
-26.07
-15.65
-4.60
5.87
14.90
22.04
27.11
30.08
30.95
29.83
27.12
23.53
19.96
17.30
16.11
16.52
18.21
20.65
23.26
25.58
27.35
28.41
28.68
28.12
26.73
24.56
21.76
18.52
15.07
11.61
8.26
5.13
2.23
-0.40
-2.75
-4.87
-6.90
-9.21
-12.21
-16.26
-21.43
-27.31
-33.02
-37.40
-39.33
-38.10
-33.58
-26.29
-17.18
-7.37
2.10
10.48
17.30
22.34
25.55
26.91
26.52
24.64
21.76
18.58
15.86
14.25
14.08
15.26
17.41
19.96
22.35
24.13
25.06
25.04
24.13
22.46
20.22
17.56
14.62
11.45
8.10
4.63
1.18
-2.01
-4.76
-6.97
-8.74
-10.30
-12.05
-14.37
-17.54
-21.63
-26.43
-31.39
-35.66
-38.24
-38.20
-35.02
-28.70
-19.89
-9.66
0.76
10.30
18.24
24.17
27.96
29.59
29.16
26.95
23.48
19.50
15.91
13.48
12.63
13.28
14.92
16.85
18.42
19.32
19.53
19.21
18.51
17.44
15.87
13.64
10.69
7.13
3.23
-0.72
-4.43
-7.68
-10.36
-12.48
-14.16
-15.70
-17.54
-20.19
-24.00
-28.95
-34.51
-39.58
-42.80
-42.91
-39.26
-32.04
-22.24
-11.38
-0.96
7.96
14.85
19.65
22.54
23.69
23.24
21.41
18.63
15.55
12.88
11.22
10.86
11.74
13.54
15.82
18.13
20.12
21.51
22.06
21.66
20.34
18.32
15.92
13.51
11.43
9.93
9.16
9.16
9.75
10.49
10.74
9.85
7.38
3.26
-2.16
-8.37
-14.80
-20.95
-26.27
-30.02
-31.23
-28.97
-22.72
-12.77
-0.29
12.92
24.93
34.17
39.85
41.97
41.12
38.22
34.16
29.65
25.12
20.84
16.96
13.71
11.31
9.93
9.50
9.61
9.63
8.88
7.02
4.15
0.79
-2.38
-4.82
-6.47
-7.71
-9.18
-11.45
-14.72
-18.69
-22.69
-26.04
-28.31
-29.56
-30.30
-31.22
-32.94
-35.77
-39.63
-44.06
-48.33
-51.57
-52.87
-51.46
-46.92
-39.35
-29.45
-18.38
-7.42
2.34
10.28
16.19
20.12
22.18
22.52
21.36
19.16
16.58
14.39
13.22
13.34
14.59
16.52
18.57
20.29
21.41
21.83
21.47
20.27
18.15
15.07
11.13
6.55
1.64
-3.32
-8.20
-12.99
-17.83
-22.80
-27.88
-32.87
-37.41
-41.23
-44.22
-46.63
-48.89
-51.40
-54.16
-56.60
-57.64
-56.13
-51.26
-43.01
-32.09
-19.75
-7.30
4.11
13.71
20.94
25.47
27.09
25.89
22.37
17.39
12.05
7.37
4.07
2.39
2.15
2.88
4.02
5.14
5.94
6.37
6.45
6.25
5.69
4.64
2.86
0.18
-3.42
-7.79
-12.63
-17.55
-22.17
-26.25
-29.71
-32.63
-35.27
-37.98
-41.11
-44.94
-49.51
-54.58
-59.53
-63.42
-65.11
-63.60
-58.23
-48.96
-36.42
-21.74
-6.25
8.80
22.47
34.11
43.29
49.71
53.23
54.00
52.54
49.70
46.47
43.73
41.98
41.34
41.57
42.23
42.80
42.89
42.20
40.65
38.27
35.19
31.55
27.43
22.95
18.24
13.57
9.32
5.81
3.15
1.16
-0.59
-2.65
-5.37
-8.85
-12.90
-17.12
-21.08
-24.30
-26.32
-26.70
-25.11
-21.42
-15.86
-8.94
-1.40
6.00
12.64
18.15
22.30
24.97
26.04
25.45
23.28
19.90
15.94
12.24
9.53
8.23
8.31
9.31
10.64
11.79
12.60
13.12
13.47
13.63
13.30
12.06
9.65
6.11
1.93
-2.20
-5.63
-8.00
-9.46
-10.51
-11.76
-13.67
-16.43
-19.93
-23.90
-27.98
-31.77
-34.72
-36.18
-35.43
-32.00
-25.87
-17.61
-8.28
0.84
8.69
14.58
18.32
20.04
20.02
18.63
16.24
13.29
10.29
7.74
6.06
5.51
6.05
7.41
9.21
11.01
12.49
13.45
13.80
13.46
12.33
10.34
7.58
4.35
1.14
-1.57
-3.54
-4.98
-6.43
-8.65
-12.16
-17.04
-22.79
-28.45
-32.85
-34.90
-33.90
-29.68
-22.65
-13.71
-4.03
5.19
13.01
18.85
22.47
23.96
23.58
21.71
18.85
15.52
12.26
9.53
7.70
6.96
7.33
8.61
10.42
12.28
13.62
14.05
13.34
11.58
9.06
6.16
3.21
0.41
-2.19
-4.65
-7.05
-9.50
-12.15
-15.17
-18.78
-23.04
-27.73
-32.21
-35.50
-36.53
-34.50
-29.24
-21.31
-11.80
-2.02
6.93
14.29
19.73
23.16
24.64
24.35
22.63
19.99
17.05
14.44
12.61
11.75
11.81
12.59
13.78
15.03
16.03
16.51
16.28
15.29
13.61
11.38
8.74
5.88
2.91
0.04
-2.58
-4.82
-6.73
-8.52
-10.60
-13.44
-17.33
-22.16
-27.31
-31.72
-34.20
-33.80
-30.14
-23.58
-15.06
-5.77
3.14
10.90
17.09
21.54
24.22
25.13
24.36
22.23
19.33
16.40
14.19
13.18
13.43
14.60
16.09
17.32
17.87
17.65
16.81
15.57
14.08
12.36
10.28
7.74
4.72
1.38
-2.02
-5.15
-7.81
-10.00
-11.93
-13.97
-16.58
-20.05
-24.39
-29.16
-33.52
-36.40
-36.87
-34.39
-29.03
-21.44
-12.60
-3.62
4.57
11.32
16.26
19.24
20.32
19.76
18.01
15.72
13.55
12.06
11.56
12.05
13.23
14.70
16.07
17.09
17.70
17.93
17.85
17.47
16.66
15.29
13.28
10.66
7.60
4.39
1.35
-1.29
-3.44
-5.20
-6.86
-8.78
-11.28
-14.64
-18.92
-23.96
-29.31
-34.21
-37.71
-38.87
-37.03
-32.10
-24.62
-15.68
-6.52
1.79
8.61
13.68
17.04
18.76
18.90
17.61
15.28
12.59
10.34
9.21
9.50
11.00
13.10
15.16
16.69
17.57
17.93
17.93
17.64
16.93
15.56
13.33
10.29
6.73
3.12
-0.08
-2.60
-4.43
-5.79
-7.00
-8.38
-10.24
-12.80
-16.21
-20.36
-24.85
-28.88
-31.42
-31.52
-28.61
-22.86
-15.08
-6.55
1.48
8.09
12.85
15.72
16.83
16.35
14.44
11.44
7.89
4.56
2.18
1.21
1.59
2.86
4.34
5.47
5.98
5.92
5.48
4.78
3.77
2.29
0.21
-2.45
-5.50
-8.64
-11.60
-14.22
-16.47
-18.43
-20.21
-22.00
-24.05
-26.65
-30.02
-34.22
-38.92
-43.37
-46.57
-47.48
-45.42
-40.22
-32.34
-22.69
-12.39
-2.48
6.16
12.95
17.61
20.09
20.60
19.59
17.68
15.50
13.65
12.51
12.28
12.90
14.18
15.78
17.36
18.59
19.26
19.29
18.69
17.57
15.98
13.98
11.55
8.73
5.60
2.30
-1.00
-4.15
-7.06
-9.73
-12.19
-14.53
-16.98
-19.84
-23.47
-28.00
-33.23
-38.38
-42.27
-43.63
-41.59
-35.99
-27.51
-17.38
-7.03
2.41
10.27
16.33
20.63
23.24
24.22
23.64
21.76
19.08
16.31
14.21
13.33
13.84
15.48
17.69
19.83
21.43
22.24
22.30
21.75
20.73
19.29
17.35
14.80
11.60
7.85
3.79
-0.23
-3.89
-6.98
-9.48
-11.59
-13.64
-16.03
-19.08
-23.03
-27.84
-33.21
-38.50
-42.79
-45.01
-44.26
-40.11
-32.76
-23.10
-12.40
-1.97
7.19
14.54
19.95
23.49
25.28
25.44
24.14
21.76
18.91
16.30
14.57
14.10
14.86
16.52
18.55
20.45
21.85
22.59
22.59
21.81
20.22
17.72
14.33
10.25
5.83
1.56
-2.09
-4.92
-6.98
-8.59
-10.20
-12.21
-14.89
-18.38
-22.63
-27.41
-32.22
-36.26
-38.53
-38.08
-34.39
-27.50
-18.21
-7.73
2.60
11.65
18.74
23.59
26.23
26.80
25.53
22.77
19.08
15.21
11.94
9.93
9.44
10.27
11.86
13.54
14.74
15.25
15.13
14.59
13.75
12.51
10.58
7.67
3.73
-0.94
-5.70
-9.87
-13.03
-15.18
-16.82
-18.67
-21.38
-25.27
-30.18
-35.58
-40.64
-44.42
-46.05
-44.85
-40.45
-32.98
-23.03
-11.61
0.06
10.77
19.54
25.79
29.30
30.22
28.97
26.18
22.63
19.09
16.27
14.64
14.33
15.12
16.54
18.03
19.17
19.78
19.88
19.55
18.77
17.37
15.15
12.01
8.13
3.91
-0.14
-3.67
-6.57
-9.01
-11.24
-13.57
-16.26
-19.50
-23.45
-28.10
-33.11
-37.77
-41.03
-41.79
-39.30
-33.38
-24.60
-14.04
-3.04
7.20
15.77
22.17
26.22
27.99
27.74
25.97
23.31
20.51
18.25
16.99
16.85
17.67
19.01
20.39
21.38
21.74
21.44
20.63
19.53
18.27
16.81
14.98
12.52
9.30
5.49
1.52
-2.03
-4.68
-6.29
-7.11
-7.71
-8.73
-10.72
-13.94
-18.32
-23.43
-28.46
-32.38
-34.12
-32.87
-28.34
-20.90
-11.49
-1.31
8.44
16.88
23.46
27.88
30.07
30.09
28.29
25.26
21.86
19.00
17.39
17.28
18.47
20.34
22.21
23.60
24.35
24.63
24.67
24.57
24.21
23.24
21.36
18.43
14.57
10.16
5.63
1.32
-2.59
-6.11
-9.39
-12.63
-16.09
-20.10
-24.90
-30.52
-36.63
-42.44
-46.79
-48.50
-46.72
-41.27
-32.74
-22.35
-11.54
-1.59
6.63
12.73
16.68
18.57
18.63
17.10
14.45
11.34
8.56
6.81
6.47
7.46
9.30
11.30
12.90
13.84
14.12
13.92
13.33
12.31
10.63
8.09
4.71
0.75
-3.34
-7.06
-10.13
-12.56
-14.62
-16.75
-19.37
-22.78
-27.05
-31.94
-36.86
-40.94
-43.13
-42.49
-38.52
-31.32
-21.67
-10.74
0.15
9.92
17.86
23.60
27.04
28.22
27.37
24.89
21.47
17.98
15.28
14.02
14.37
16.03
18.35
20.59
22.20
22.92
22.78
21.97
20.66
18.87
16.49
13.42
9.66
5.41
1.06
-2.99
-6.42
-9.15
-11.35
-13.34
-15.54
-18.32
-21.96
-26.56
-31.92
-37.56
-42.58
-45.89
-46.43
-43.51
-37.09
-27.86
-17.02
-5.95
4.19
12.65
19.11
23.58
26.15
26.97
26.23
24.30
21.76
19.39
17.94
17.88
19.21
21.42
23.70
25.33
25.87
25.36
24.13
22.58
20.91
19.07
16.85
14.05
10.69
6.93
3.12
-0.46
-3.66
-6.42
-8.84
-11.06
-13.31
-15.90
-19.19
-23.48
-28.79
-34.70
-40.22
-44.08
-45.06
-42.40
-36.14
-27.07
-16.50
-5.80
3.95
12.12
18.47
22.94
25.49
26.13
25.02
22.65
19.81
17.40
16.10
16.13
17.17
18.58
19.75
20.33
20.39
20.23
20.09
19.98
19.67
18.77
17.03
14.36
10.93
7.06
3.10
-0.64
-3.95
-6.71
-8.91
-10.71
-12.41
-14.44
-17.24
-21.06
-25.84
-31.00
-35.55
-38.29
-38.17
-34.70
-28.05
-19.12
-9.15
0.58
9.13
15.90
20.64
23.30
23.91
22.69
20.05
16.65
13.27
10.64
9.19
8.95
9.64
10.78
11.92
12.78
13.23
13.24
12.81
11.86
10.33
8.15
5.32
1.99
-1.64
-5.33
-8.80
-11.90
-14.56
-16.90
-19.17
-21.76
-25.03
-29.20
-34.09
-39.02
-42.95
-44.70
-43.36
-38.60
-30.81
-20.98
-10.37
-0.14
8.87
16.17
21.49
24.64
25.50
24.18
21.09
17.04
13.06
10.16
8.95
9.51
11.35
13.67
15.70
16.94
17.27
16.82
15.79
14.31
12.31
9.66
6.26
2.18
-2.31
-6.77
-10.81
-14.17
-16.89
-19.21
-21.53
-24.25
-27.69
-31.93
-36.75
-41.56
-45.44
-47.33
-46.30
-41.86
-34.15
-24.00
-12.63
-1.40
8.58
16.54
22.15
25.33
26.25
25.25
22.85
19.71
16.55
13.98
12.42
12.02
12.63
13.93
15.52
16.99
18.04
18.44
18.11
17.02
15.22
12.80
9.83
6.45
2.82
-0.87
-4.40
-7.55
-10.20
-12.39
-14.34
-16.42
-19.11
-22.78
-27.53
-33.00
-38.34
-42.39
-43.97
-42.22
-36.93
-28.58
-18.19
-7.02
3.81
13.40
21.23
26.98
30.47
31.69
30.88
28.54
25.45
22.41
20.08
18.82
18.64
19.33
20.58
22.02
23.36
24.27
24.46
23.78
22.21
19.91
17.14
14.12
10.96
7.64
4.11
0.44
-3.15
-6.37
-8.97
-10.90
-12.39
-13.88
-15.88
-18.73
-22.44
-26.64
-30.60
-33.43
-34.25
-32.44
-27.78
-20.53
-11.44
-1.60
7.80
15.68
21.27
24.24
24.70
23.13
20.25
16.94
14.07
12.34
12.11
13.26
15.27
17.26
18.43
18.27
16.76
14.34
11.60
9.02
6.72
4.50
2.03
-0.93
-4.33
-7.87
-11.13
-13.84
-15.95
-17.72
-19.56
-21.95
-25.18
-29.26
-33.80
-38.02
-40.94
-41.61
-39.40
-34.19
-26.42
-16.97
-6.92
2.67
10.93
17.21
21.10
22.37
21.15
17.84
13.27
8.49
4.51
2.06
1.33
2.00
3.44
5.01
6.30
7.13
7.50
7.37
6.62
5.10
2.78
-0.12
-3.13
-5.74
-7.61
-8.70
-9.31
-9.90
-10.93
-12.75
-15.54
-19.32
-23.84
-28.55
-32.59
-34.92
-34.56
-30.97
-24.23
-15.12
-4.86
5.22
14.00
20.77
25.17
27.22
27.12
25.28
22.28
18.80
15.55
13.14
11.87
11.71
12.41
13.57
14.81
15.86
16.53
16.72
16.35
15.35
13.65
11.25
8.19
4.58
0.65
-3.32
-6.99
-10.16
-12.80
-15.11
-17.52
-20.48
-24.31
-28.93
-33.79
-37.98
-40.38
-40.05
-36.50
-29.82
-20.71
-10.23
0.45
10.28
18.55
24.77
28.73
30.42
30.00
27.93
24.84
21.47
18.56
16.60
15.78
15.99
16.85
17.88
18.67
18.97
18.71
17.98
16.88
15.44
13.61
11.29
8.44
5.14
1.67
-1.65
-4.52
-6.83
-8.68
-10.39
-12.39
-15.13
-18.85
-23.48
-28.47
-32.93
-35.74
-35.94
-33.02
-27.05
-18.72
-9.07
0.73
9.67
16.98
22.20
25.16
25.94
24.89
22.56
19.66
16.89
14.81
13.75
13.73
14.55
15.82
17.12
18.08
18.47
18.22
17.34
15.91
14.00
11.60
8.73
5.44
1.88
-1.71
-5.07
-8.00
-10.47
-12.62
-14.76
-17.24
-20.38
-24.33
-28.89
-33.51
-37.27
-39.11
-38.13
-33.95
-26.83
-17.66
-7.69
1.84
10.00
16.26
20.45
22.58
22.77
21.28
18.56
15.30
12.29
10.25
9.54
10.10
11.49
13.07
14.35
15.01
15.01
14.43
13.36
11.83
9.79
7.21
4.12
0.62
-3.07
-6.71
-10.05
-12.94
-15.35
-17.44
-19.50
-21.92
-25.01
-28.86
-33.20
-37.33
-40.24
-40.88
-38.51
-32.95
-24.67
-14.68
-4.22
5.54
13.75
19.91
23.86
25.69
25.61
24.01
21.44
18.55
16.06
14.54
14.24
15.03
16.43
17.81
18.68
18.82
18.33
17.53
16.67
15.81
14.77
13.24
10.94
7.80
4.00
-0.08
-3.98
-7.34
-9.97
-11.98
-13.76
-15.89
-18.93
-23.23
-28.64
-34.44
-39.51
-42.55
-42.59
-39.18
-32.62
-23.77
-13.79
-3.81
5.27
12.85
18.62
22.46
24.39
24.60
23.48
21.60
19.63
18.19
17.68
18.20
19.52
21.19
22.72
23.71
23.97
23.56
22.70
21.61
20.39
18.98
17.19
14.84
11.86
8.43
4.87
1.59
-1.13
-3.21
-4.84
-6.40
-8.36
-11.12
-14.91
-19.64
-24.89
-29.83
-33.42
-34.64
-32.81
-27.77
-19.97
-10.34
-0.03
9.74
17.87
23.47
26.01
25.40
22.11
17.03
11.30
5.99
1.88
-0.69
-1.69
-1.28
0.33
2.92
6.26
9.96
13.54
16.43
18.06
18.02
16.18
12.69
8.01
2.77
-2.35
-6.80
-10.23
-12.54
-13.88
-14.58
-15.13
-16.09
-17.99
-21.18
-25.70
-31.11
-36.57
-40.87
-42.82
-41.53
-36.72
-28.80
-18.83
-8.20
1.74
9.92
15.84
19.40
20.86
20.63
19.15
16.87
14.23
11.72
9.75
8.64
8.51
9.19
10.38
11.67
12.75
13.41
13.60
13.33
12.62
11.37
9.49
6.86
3.52
-0.30
-4.21
-7.73
-10.54
-12.54
-13.97
-15.32
-17.21
-20.13
-24.33
-29.56
-35.09
-39.78
-42.39
-41.86
-37.77
-30.41
-20.75
-10.14
0.03
8.64
15.01
18.89
20.37
19.79
17.69
14.75
11.67
9.08
7.49
7.10
7.85
9.42
11.33
13.09
14.40
15.13
15.38
15.29
14.90
14.13
12.78
10.68
7.84
4.44
0.80
-2.76
-6.05
-9.04
-11.83
-14.59
-17.48
-20.69
-24.35
-28.58
-33.22
-37.81
-41.51
-43.24
-42.02
-37.34
-29.40
-19.16
-7.98
2.70
11.81
18.76
23.46
26.07
26.83
25.98
23.82
20.84
17.68
15.08
13.64
13.62
14.81
16.66
18.49
19.77
20.29
20.09
19.42
18.46
17.25
15.67
13.53
10.71
7.23
3.31
-0.75
-4.61
-8.06
-11.09
-13.88
-16.73
-20.00
-23.88
-28.40
-33.22
-37.70
-40.94
-42.00
-40.13
-35.07
-27.17
-17.35
-6.85
3.11
11.56
17.93
22.02
23.84
23.61
21.69
18.62
15.12
11.92
9.64
8.53
8.50
9.15
9.97
10.56
10.71
10.39
9.67
8.50
6.67
3.93
0.09
-4.76
-10.26
-15.85
-20.98
-25.41
-29.16
-32.52
-35.90
-39.69
-44.14
-49.35
-55.12
-60.92
-65.82
-68.61
-68.11
-63.52
-54.76
-42.47
-27.87
-12.40
2.61
16.14
27.52
36.38
42.62
46.35
47.90
47.79
46.71
45.29
44.03
43.17
42.63
42.20
41.65
40.81
39.69
38.37
36.87
35.14
32.95
30.03
26.23
21.53
16.14
10.45
4.90
-0.11
-4.35
-7.79
-10.70
-13.55
-16.89
-21.20
-26.58
-32.62
-38.36
-42.47
-43.68
-41.14
-34.75
-25.23
-13.89
-2.27
8.31
16.96
23.28
27.22
28.86
28.39
26.15
22.71
18.86
15.53
13.50
13.15
14.36
16.57
19.00
20.93
21.93
21.94
21.23
20.13
18.83
17.29
15.26
12.45
8.80
4.57
0.31
-3.39
-6.19
-8.15
-9.70
-11.43
-13.88
-17.36
-21.88
-27.20
-32.81
-37.92
-41.53
-42.54
-40.11
-33.95
-24.55
-13.13
-1.26
9.54
18.25
24.45
28.21
29.88
29.79
28.23
25.52
22.18
18.95
16.59
15.69
16.39
18.26
20.54
22.41
23.32
23.14
22.14
20.67
18.99
17.09
14.82
11.99
8.57
4.75
0.88
-2.63
-5.54
-7.81
-9.66
-11.50
-13.75
-16.79
-20.80
-25.66
-30.98
-36.04
-39.90
-41.57
-40.28
-35.69
-28.13
-18.49
-8.00
2.13
10.98
18.05
23.12
26.10
26.97
25.81
22.98
19.15
15.25
12.16
10.50
10.42
11.62
13.55
15.62
17.38
18.57
19.07
18.82
17.80
15.96
13.29
9.92
6.10
2.21
-1.35
-4.30
-6.54
-8.20
-9.61
-11.21
-13.46
-16.74
-21.22
-26.65
-32.32
-37.06
-39.58
-38.83
-34.39
-26.67
-16.72
-5.94
4.33
13.10
19.76
24.06
26.03
25.87
24.03
21.10
17.85
14.99
13.08
12.35
12.71
13.80
15.16
16.30
16.93
16.93
16.33
15.25
13.73
11.70
9.04
5.69
1.74
-2.49
-6.62
-10.32
-13.47
-16.18
-18.66
-21.19
-23.99
-27.26
-31.15
-35.63
-40.43
-44.82
-47.72
-47.96
-44.68
-37.70
-27.66
-15.83
-3.66
7.54
16.98
24.24
29.21
31.86
32.27
30.72
27.80
24.38
21.41
19.63
19.30
20.20
21.71
23.11
23.86
23.71
22.69
21.02
18.92
16.54
13.94
11.12
8.08
4.87
1.59
-1.61
-4.61
-7.32
-9.73
-11.89
-13.93
-16.01
-18.42
-21.50
-25.59
-30.77
-36.65
-42.38
-46.69
-48.34
-46.47
-40.93
-32.26
-21.46
-9.72
1.91
12.57
21.57
28.34
32.51
33.96
33.01
30.41
27.14
24.17
22.22
21.57
22.10
23.37
24.79
25.84
26.11
25.48
24.02
22.00
19.68
17.23
14.67
11.89
8.78
5.37
1.78
-1.71
-4.92
-7.75
-10.24
-12.57
-14.92
-17.50
-20.53
-24.28
-28.93
-34.44
-40.36
-45.71
-49.18
-49.55
-46.05
-38.78
-28.60
-16.93
-5.27
5.26
13.98
20.63
25.15
27.53
27.85
26.36
23.62
20.45
17.72
16.09
15.77
16.47
17.62
18.59
18.97
18.69
17.99
17.20
16.53
15.96
15.24
14.04
12.17
9.63
6.69
3.68
0.94
-1.35
-3.14
-4.50
-5.60
-6.73
-8.28
-10.62
-14.05
-18.46
-23.30
-27.60
-30.19
-30.07
-26.79
-20.52
-12.06
-2.52
6.97
15.50
22.42
27.34
29.99
30.30
28.36
24.65
19.99
15.39
11.80
9.75
9.23
9.76
10.63
11.25
11.38
11.07
10.55
9.95
9.18
8.02
6.20
3.61
0.41
-3.10
-6.57
-9.80
-12.79
-15.61
-18.38
-21.12
-23.76
-26.32
-28.94
-31.92
-35.55
-39.82
-44.24
-47.83
-49.41
-47.95
-43.01
-34.90
-24.57
-13.33
-2.41
7.26
15.07
20.72
24.07
25.08
23.93
21.05
17.25
13.49
10.64
9.27
9.41
10.67
12.44
14.10
15.29
15.89
15.94
15.53
14.69
13.38
11.55
9.15
6.22
2.81
-0.89
-4.68
-8.26
-11.36
-13.80
-15.65
-17.24
-19.10
-21.79
-25.73
-30.94
-36.95
-42.85
-47.44
-49.49
-48.08
-42.85
-34.09
-22.72
-10.04
2.57
13.93
23.24
30.09
34.39
36.26
35.99
34.02
30.95
27.48
24.28
21.77
20.12
19.17
18.63
18.20
17.71
17.16
16.65
16.25
15.89
15.39
14.43
12.71
10.04
6.44
2.16
-2.34
-6.55
-10.04
-12.60
-14.35
-15.68
-17.18
-19.44
-22.86
-27.47
-32.82
-38.01
-41.88
-43.34
-41.65
-36.63
-28.73
-18.88
-8.27
1.90
10.62
17.22
21.38
23.16
22.91
21.17
18.54
15.64
12.97
10.95
9.87
9.83
10.74
12.29
14.03
15.52
16.40
16.49
15.77
14.27
12.06
9.21
5.86
2.25
-1.27
-4.38
-6.84
-8.71
-10.23
-11.87
-14.10
-17.22
-21.24
-25.78
-30.11
-33.28
-34.39
-32.81
-28.39
-21.51
-12.99
-3.87
4.82
12.28
18.00
21.68
23.28
22.95
21.09
18.29
15.31
12.85
11.35
10.90
11.25
11.97
12.71
13.21
13.38
13.14
12.35
10.86
8.63
5.77
2.62
-0.47
-3.22
-5.58
-7.64
-9.56
-11.42
-13.29
-15.26
-17.59
-20.62
-24.60
-29.37
-34.23
-38.01
-39.39
-37.41
-31.84
-23.29
-12.99
-2.38
7.32
15.32
21.31
25.25
27.23
27.34
25.85
23.21
20.11
17.35
15.55
14.95
15.37
16.30
17.18
17.61
17.47
16.85
15.88
14.63
13.06
11.06
8.57
5.65
2.46
-0.76
-3.81
-6.55
-8.97
-11.16
-13.42
-16.11
-19.60
-24.09
-29.36
-34.65
-38.79
-40.48
-38.78
-33.47
-25.14
-14.98
-4.38
5.44
13.70
20.01
24.26
26.55
27.02
26.00
23.93
21.40
18.99
17.23
16.42
16.61
17.61
19.00
20.30
21.13
21.30
20.89
20.10
19.05
17.69
15.76
12.89
8.92
4.01
-1.32
-6.35
-10.51
-13.55
-15.62
-17.25
-19.06
-21.59
-25.08
-29.35
-33.77
-37.33
-38.91
-37.61
-33.00
-25.40
-15.73
-5.28
4.70
13.31
20.09
24.99
28.13
29.70
29.89
28.92
27.08
24.73
22.23
19.87
17.82
16.18
14.93
14.06
13.45
12.88
12.03
10.55
8.22
5.05
1.33
-2.48
-5.92
-8.70
-10.77
-12.30
-13.66
-15.25
-17.46
-20.56
-24.55
-29.06
-33.29
-36.20
-36.73
-34.17
-28.42
-20.12
-10.43
-0.74
7.72
14.15
18.26
20.17
20.26
19.02
16.94
14.51
12.15
10.26
9.05
8.57
8.69
9.16
9.70
10.12
10.34
10.27
9.82
8.87
7.28
5.01
2.14
-1.10
-4.38
-7.34
-9.70
-11.38
-12.55
-13.66
-15.35
-18.20
-22.45
-27.68
-32.82
-36.43
-37.12
-34.11
-27.51
-18.26
-7.78
2.53
11.64
19.00
24.41
27.83
29.29
28.92
27.03
24.15
21.00
18.27
16.40
15.51
15.42
15.80
16.32
16.80
17.18
17.45
17.52
17.19
16.20
14.27
11.36
7.58
3.27
-1.17
-5.47
-9.47
-13.29
-17.12
-21.23
-25.82
-30.97
-36.52
-42.03
-46.74
-49.66
-49.81
-46.53
-39.80
-30.28
-19.19
-7.95
2.22
10.51
16.60
20.49
22.36
22.44
21.09
18.78
16.14
13.84
12.34
11.82
12.10
12.82
13.58
14.14
14.46
14.64
14.75
14.75
14.40
13.35
11.31
8.20
4.20
-0.22
-4.50
-8.18
-11.11
-13.47
-15.73
-18.49
-22.21
-27.06
-32.73
-38.52
-43.38
-46.16
-45.95
-42.30
-35.42
-26.07
-15.46
-4.87
4.59
12.10
17.26
20.01
20.62
19.54
17.39
14.83
12.43
10.61
9.57
9.35
9.83
10.86
12.28
13.87
15.31
16.21
16.20
15.03
12.71
9.49
5.79
2.04
-1.50
-4.72
-7.69
-10.44
-13.03
-15.56
-18.24
-21.36
-25.15
-29.57
-33.99
-37.29
-38.15
-35.56
-29.27
-19.94
-8.98
1.97
11.51
18.83
23.74
26.54
27.68
27.64
26.78
25.35
23.63
21.90
20.47
19.56
19.23
19.39
19.78
20.07
19.99
19.33
17.99
15.91
13.12
9.67
5.67
1.33
-3.11
-7.41
-11.49
-15.36
-19.24
-23.42
-28.20
-33.68
-39.67
-45.56
-50.37
-52.95
-52.32
-48.03
-40.28
-29.97
-18.33
-6.72
3.75
12.34
18.68
22.69
24.56
24.65
23.45
21.50
19.31
17.27
15.62
14.54
14.09
14.27
15.03
16.16
17.40
18.40
18.90
18.76
17.96
16.60
14.80
12.59
10.01
7.02
3.61
-0.25
-4.61
-9.59
-15.25
-21.52
-27.92
-33.59
-37.37
-38.13
-35.15
-28.44
-18.76
-7.49
3.85
13.93
21.93
27.57
30.94
32.34
32.02
30.26
27.38
23.82
20.19
17.11
15.02
14.01
13.79
13.83
13.60
12.77
11.32
9.40
7.24
4.98
2.63
0.11
-2.68
-5.73
-8.99
-12.39
-15.96
-19.85
-24.23
-29.05
-33.88
-37.86
-39.86
-38.88
-34.43
-26.76
-16.81
-5.90
4.63
13.76
20.92
25.86
28.56
29.07
27.55
24.32
19.97
15.26
11.05
8.08
6.72
6.92
8.22
9.96
11.50
12.40
12.48
11.78
10.43
8.56
6.20
3.30
-0.24
-4.54
-9.69
-15.68
-22.23
-28.83
-34.60
-38.54
-39.72
-37.57
-32.03
-23.68
-13.50
-2.73
7.48
16.22
22.91
27.31
29.42
29.40
27.59
24.45
20.59
16.71
13.45
11.27
10.36
10.52
11.36
12.37
13.13
13.44
13.22
12.57
11.56
10.20
8.44
6.14
3.18
-0.56
-5.19
-10.74
-17.01
-23.55
-29.55
-33.93
-35.64
-33.97
-28.79
-20.68
-10.72
-0.20
9.69
18.04
24.33
28.32
29.94
29.37
26.96
23.28
19.03
14.93
11.57
9.28
8.12
7.92
8.33
8.93
9.33
9.22
8.50
7.21
5.51
3.53
1.30
-1.31
-4.46
-8.31
-12.85
-17.96
-23.48
-29.14
-34.60
-39.31
-42.47
-43.20
-40.82
-35.12
-26.64
-16.44
-5.92
3.67
11.46
17.06
20.41
21.56
20.59
17.69
13.28
8.09
3.05
-0.90
-3.15
-3.58
-2.56
-0.74
1.16
2.56
3.17
2.93
1.93
0.34
-1.71
-4.10
-6.81
-9.89
-13.47
-17.68
-22.57
-27.93
-33.26
-37.72
-40.31
-40.16
-36.77
-30.25
-21.23
-10.73
0.11
10.27
18.94
25.52
29.67
31.26
30.48
27.79
23.91
19.65
15.77
12.81
11.03
10.37
10.55
11.18
11.80
12.06
11.76
10.85
9.39
7.46
5.15
2.47
-0.54
-3.87
-7.49
-11.49
-15.98
-21.06
-26.64
-32.22
-36.88
-39.44
-38.85
-34.58
-26.88
-16.71
-5.47
5.43
14.90
22.32
27.43
30.21
30.80
29.47
26.71
23.13
19.45
16.28
13.98
12.70
12.37
12.76
13.59
14.47
15.03
14.91
13.91
12.00
9.36
6.26
2.95
-0.40
-3.77
-7.22
-10.86
-14.86
-19.38
-24.45
-29.89
-35.16
-39.38
-41.52
-40.65
-36.23
-28.40
-17.94
-6.15
5.47
15.58
23.32
28.34
30.81
31.14
29.83
27.35
24.12
20.57
17.19
14.49
12.83
12.39
13.00
14.24
15.59
16.55
16.84
16.34
15.05
13.06
10.40
7.17
3.49
-0.45
-4.40
-8.19
-11.74
-15.24
-18.99
-23.32
-28.23
-33.28
-37.50
-39.68
-38.78
-34.33
-26.65
-16.76
-6.09
4.01
12.50
18.89
23.05
25.10
25.33
24.07
21.78
19.02
16.38
14.37
13.28
13.13
13.67
14.57
15.48
16.18
16.54
16.51
16.01
14.92
13.11
10.48
7.07
3.05
-1.31
-5.64
-9.71
-13.41
-16.82
-20.24
-23.95
-28.10
-32.49
-36.49
-39.23
-39.75
-37.36
-31.90
-23.78
-13.92
-3.45
6.51
15.07
21.62
25.84
27.64
27.17
24.81
21.17
17.02
13.20
10.40
9.01
9.04
10.14
11.78
13.45
14.80
15.60
15.72
15.05
13.48
10.97
7.67
3.88
0.03
-3.55
-6.75
-9.69
-12.68
-16.05
-19.98
-24.46
-29.21
-33.72
-37.29
-39.08
-38.33
-34.54
-27.69
-18.40
-7.78
2.73
11.78
18.38
22.10
23.08
21.82
19.00
15.27
11.19
7.23
3.86
1.51
0.56
1.13
3.05
5.83
8.74
11.05
12.20
11.95
10.41
7.88
4.80
1.51
-1.77
-4.95
-8.05
-11.11
-14.20
-17.46
-21.07
-25.13
-29.50
-33.70
-36.83
-37.85
-35.90
-30.67
-22.56
-12.64
-2.26
7.30
15.10
20.65
23.82
24.74
23.73
21.20
17.69
13.78
10.09
7.06
4.95
3.77
3.41
3.65
4.31
5.22
6.18
6.95
7.29
6.96
5.85
3.97
1.51
-1.28
-4.15
-6.92
-9.54
-12.13
-14.96
-18.32
-22.48
-27.41
-32.74
-37.65
-41.04
-41.87
-39.38
-33.47
-24.73
-14.31
-3.60
6.08
13.78
19.00
21.69
22.13
20.80
18.23
15.01
11.70
8.83
6.85
6.02
6.33
7.51
9.03
10.39
11.23
11.46
11.21
10.66
9.84
8.66
6.92
4.57
1.75
-1.20
-4.00
-6.53
-9.00
-11.80
-15.36
-19.88
-25.27
-31.02
-36.30
-40.08
-41.34
-39.37
-34.01
-25.69
-15.42
-4.47
5.93
14.81
21.58
25.97
27.98
27.79
25.83
22.71
19.22
16.10
13.93
12.91
12.98
13.82
15.05
16.39
17.57
18.43
18.78
18.48
17.43
15.60
13.06
9.95
6.43
2.68
-1.07
-4.60
-7.76
-10.50
-12.99
-15.63
-18.88
-23.08
-28.20
-33.67
-38.46
-41.33
-41.19
-37.50
-30.43
-20.80
-9.83
1.20
11.19
19.35
25.24
28.65
29.66
28.60
26.02
22.65
19.26
16.52
14.86
14.39
14.96
16.21
17.71
19.04
19.89
20.13
19.75
18.78
17.26
15.16
12.47
9.23
5.58
1.72
-2.07
-5.59
-8.69
-11.45
-14.10
-17.00
-20.57
-25.02
-30.18
-35.43
-39.71
-41.81
-40.72
-36.03
-28.07
-17.85
-6.69
4.06
13.39
20.66
25.54
27.92
27.87
25.70
22.03
17.76
13.88
11.24
10.24
10.80
12.41
14.41
16.21
17.45
17.99
17.83
16.95
15.36
13.02
10.00
6.47
2.72
-0.93
-4.25
-7.13
-9.66
-12.04
-14.56
-17.53
-21.22
-25.69
-30.70
-35.61
-39.42
-40.99
-39.44
-34.42
-26.27
-16.01
-4.92
5.70
14.85
21.90
26.53
28.71
28.63
26.73
23.74
20.52
17.90
16.45
16.29
17.17
18.51
19.75
20.51
20.64
20.21
19.33
18.07
16.37
14.17
11.45
8.24
4.70
1.01
-2.63
-6.06
-9.15
-11.85
-14.24
-16.57
-19.29
-22.85
-27.51
-33.08
-38.82
-43.50
-45.76
-44.58
-39.57
-31.17
-20.48
-8.90
2.33
12.28
20.48
26.76
31.07
33.35
33.60
32.01
29.08
25.59
22.45
20.40
19.77
20.39
21.72
23.06
23.86
23.85
23.09
21.82
20.22
18.39
16.25
13.64
10.44
6.69
2.55
-1.70
-5.79
-9.45
-12.58
-15.19
-17.47
-19.73
-22.38
-25.78
-30.15
-35.32
-40.67
-45.24
-47.84
-47.50
-43.70
-36.57
-26.87
-15.74
-4.46
5.87
14.49
20.98
25.26
27.47
27.92
27.04
25.33
23.33
21.55
20.38
20.03
20.51
21.57
22.82
23.86
24.36
24.14
23.23
21.80
20.10
18.33
16.54
14.69
12.63
10.27
7.65
5.00
2.69
1.05
0.23
0.09
0.26
0.19
-0.69
-2.84
-6.50
-11.62
-17.78
-24.12
-29.48
-32.56
-32.32
-28.33
-20.97
-11.33
-0.92
8.79
16.71
22.28
25.39
26.23
25.12
22.50
18.87
14.87
11.18
8.41
6.90
6.66
7.33
8.34
9.12
9.27
8.65
7.35
5.65
3.74
1.76
-0.27
-2.40
-4.61
-6.82
-8.90
-10.70
-12.20
-13.49
-14.75
-16.20
-18.12
-20.81
-24.49
-29.23
-34.72
-40.19
-44.47
-46.35
-44.95
-40.10
-32.38
-22.91
-12.97
-3.58
4.56
11.06
15.72
18.41
19.16
18.23
16.20
13.85
11.95
11.01
11.20
12.32
13.93
15.59
16.96
17.87
18.32
18.34
17.92
16.98
15.42
13.21
10.40
7.23
3.92
0.68
-2.37
-5.23
-7.96
-10.63
-13.41
-16.53
-20.36
-25.16
-30.87
-36.92
-42.19
-45.24
-44.84
-40.42
-32.35
-21.85
-10.53
0.15
9.26
16.49
21.91
25.65
27.70
27.91
26.25
23.06
19.15
15.58
13.27
12.72
13.76
15.72
17.73
19.05
19.32
18.59
17.18
15.45
13.58
11.53
9.04
5.91
2.07
-2.27
-6.71
-10.79
-14.14
-16.69
-18.62
-20.29
-22.13
-24.54
-27.84
-32.20
-37.56
-43.48
-49.09
-53.20
-54.57
-52.27
-46.01
-36.35
-24.50
-12.01
-0.32
9.54
17.12
22.36
25.47
26.71
26.37
24.81
22.55
20.21
18.43
17.71
18.17
19.58
21.40
23.07
24.15
24.51
24.26
23.63
22.84
21.87
20.56
18.58
15.70
11.85
7.29
2.50
-1.91
-5.44
-7.84
-9.24
-10.09
-11.02
-12.67
-15.48
-19.59
-24.71
-30.15
-34.94
-37.96
-38.23
-35.15
-28.74
-19.66
-9.08
1.65
11.35
19.23
24.97
28.55
30.10
29.81
27.94
24.87
21.23
17.80
15.29
14.13
14.33
15.45
16.90
18.09
18.69
18.67
18.19
17.42
16.44
15.16
13.41
11.02
7.96
4.35
0.49
-3.32
-6.78
-9.76
-12.26
-14.41
-16.41
-18.49
-20.89
-23.88
-27.66
-32.17
-36.99
-41.31
-44.03
-44.09
-40.85
-34.31
-25.14
-14.50
-3.66
6.26
14.46
20.46
24.07
25.28
24.30
21.60
17.91
14.11
11.02
9.16
8.71
9.41
10.79
12.35
13.70
14.63
15.11
15.17
14.84
14.12
12.87
10.95
8.22
4.71
0.64
-3.56
-7.36
-10.31
-12.25
-13.38
-14.21
-15.40
-17.51
-20.84
-25.38
-30.72
-36.13
-40.61
-43.13
-42.78
-39.06
-32.08
-22.52
-11.46
-0.07
10.70
20.21
28.12
34.19
38.14
39.74
38.98
36.31
32.69
29.32
27.30
27.16
28.70
31.11
33.30
34.38
33.93
32.03
29.09
25.57
21.75
17.68
13.22
8.25
2.83
-2.76
-8.10
-12.80
-16.70
-19.84
-22.48
-24.93
-27.43
-30.15
-33.28
-36.97
-41.30
-46.05
-50.57
-53.77
-54.44
-51.60
-45.00
-35.23
-23.57
-11.57
-0.57
8.54
15.44
20.08
22.56
23.02
21.66
18.92
15.52
12.34
10.19
9.51
10.29
12.11
14.27
16.14
17.29
17.57
17.10
16.12
14.87
13.46
11.89
10.05
7.78
5.05
1.91
-1.47
-4.87
-8.12
-11.08
-13.73
-16.14
-18.53
-21.19
-24.48
-28.61
-33.47
-38.52
-42.78
-45.11
-44.52
-40.56
-33.41
-23.90
-13.15
-2.37
7.49
15.72
21.98
26.16
28.27
28.53
27.26
24.96
22.24
19.78
18.13
17.63
18.28
19.78
21.59
23.17
24.14
24.36
23.87
22.80
21.22
19.17
16.61
13.59
10.23
6.75
3.34
0.18
-2.70
-5.31
-7.72
-10.02
-12.25
-14.50
-16.88
-19.50
-22.51
-25.97
-29.75
-33.42
-36.25
-37.33
-35.81
-31.29
-23.95
-14.60
-4.39
5.48
14.10
20.96
25.85
28.72
29.60
28.60
25.98
22.26
18.21
14.67
12.31
11.50
12.13
13.76
15.73
17.45
18.55
18.92
18.61
17.74
16.42
14.67
12.51
9.95
7.05
3.93
0.75
-2.34
-5.19
-7.71
-9.94
-12.08
-14.39
-17.17
-20.63
-24.81
-29.55
-34.44
-38.88
-42.08
-43.16
-41.42
-36.55
-28.81
-19.02
-8.36
1.96
10.97
18.03
22.89
25.51
26.07
24.89
22.45
19.37
16.34
13.95
12.64
12.56
13.55
15.20
16.94
18.22
18.66
18.16
16.83
14.80
12.14
8.76
4.58
-0.33
-5.62
-10.67
-14.90
-17.96
-19.92
-21.20
-22.42
-24.16
-26.80
-30.40
-34.68
-39.03
-42.56
-44.29
-43.34
-39.20
-31.98
-22.35
-11.46
-0.65
8.89
16.31
21.27
23.80
24.16
22.70
19.83
15.98
11.68
7.52
4.08
1.71
0.48
0.19
0.57
1.49
3.05
5.48
8.94
13.27
17.98
22.32
25.63
27.51
28.07
27.79
27.38
27.40
28.10
29.33
30.69
31.74
32.21
32.08
31.50
30.75
30.12
29.93
30.50
32.04
34.50
37.52
40.41
42.43
43.03
41.99
39.44
35.63
30.76
24.85
17.95
10.20
2.07
-5.70
-12.27
-17.01
-19.71
-20.77
-21.15
-22.09
-24.69
-29.49
-36.16
-43.69
-50.76
-56.47
-60.65
-63.82
-66.75
-69.86
-72.93
-75.28
-76.20
-75.45
-73.47
-71.09
-69.12
-67.98
-67.68
-68.03
-68.80
-69.89
-71.05
-71.75
-71.07
-67.96
-61.63
-51.95
-39.54
-25.68
-11.94
0.29
10.08
17.01
21.18
22.99
23.11
22.35
21.55
21.42
22.41
24.52
27.35
30.32
32.83
34.58
35.61
36.13
36.36
36.33
35.88
34.68
32.50
29.24
25.05
20.21
15.11
10.13
5.55
1.56
-1.89
-5.01
-8.21
-11.96
-16.58
-22.02
-27.71
-32.64
-35.56
-35.39
-31.61
-24.42
-14.73
-3.82
6.94
16.46
24.00
29.20
32.01
32.59
31.32
28.79
25.72
22.83
20.69
19.60
19.56
20.28
21.32
22.26
22.82
22.88
22.50
21.78
20.78
19.44
17.58
15.02
11.68
7.66
3.28
-1.03
-4.89
-8.12
-10.81
-13.35
-16.28
-20.08
-25.02
-30.90
-37.04
-42.37
-45.65
-45.81
-42.27
-35.10
-25.06
-13.38
-1.48
9.35
18.19
24.52
28.25
29.60
29.04
27.23
24.93
22.87
21.58
21.29
21.91
23.06
24.27
25.16
25.53
25.38
24.82
23.91
22.58
20.65
17.96
14.40
10.10
5.39
0.67
-3.66
-7.37
-10.43
-13.06
-15.64
-18.68
-22.63
-27.73
-33.79
-40.06
-45.30
-48.08
-47.20
-42.10
-33.05
-21.14
-7.92
4.96
16.16
24.85
30.74
33.98
34.97
34.18
32.16
29.43
26.59
24.21
22.78
22.51
23.26
24.59
25.92
26.77
26.93
26.49
25.61
24.42
22.81
20.56
17.44
13.38
8.59
3.54
-1.23
-5.26
-8.38
-10.76
-12.85
-15.27
-18.60
-23.14
-28.82
-35.14
-41.20
-45.83
-47.84
-46.35
-41.01
-32.15
-20.76
-8.22
4.05
14.86
23.52
29.77
33.66
35.43
35.39
33.92
31.50
28.74
26.31
24.75
24.36
25.04
26.36
27.74
28.63
28.72
28.01
26.72
25.09
23.24
21.11
18.54
15.37
11.66
7.62
3.57
-0.15
-3.40
-6.18
-8.72
-11.31
-14.31
-17.99
-22.56
-27.95
-33.81
-39.35
-43.46
-44.95
-42.91
-37.07
-27.94
-16.72
-4.87
6.26
15.77
23.25
28.61
31.92
33.25
32.73
30.70
27.74
24.62
22.17
20.93
21.02
22.10
23.56
24.70
25.00
24.29
22.68
20.49
18.06
15.57
13.00
10.18
6.89
3.07
-1.14
-5.42
-9.39
-12.77
-15.49
-17.74
-19.88
-22.33
-25.51
-29.71
-34.99
-41.00
-46.94
-51.65
-53.86
-52.56
-47.35
-38.59
-27.33
-15.01
-3.07
7.36
15.55
21.23
24.43
25.39
24.55
22.51
19.95
17.60
16.04
15.63
16.43
18.21
20.49
22.71
24.36
25.09
24.80
23.61
21.79
19.58
17.09
14.26
10.95
7.10
2.81
-1.60
-5.79
-9.49
-12.64
-15.40
-18.09
-21.05
-24.60
-28.96
-34.17
-39.96
-45.66
-50.24
-52.51
-51.46
-46.63
-38.30
-27.42
-15.41
-3.72
6.54
14.75
20.70
24.46
26.25
26.31
24.95
22.52
19.50
16.51
14.13
12.77
12.51
13.06
13.95
14.63
14.60
13.66
12.03
10.12
8.25
6.48
4.65
2.53
-0.00
-2.92
-5.90
-8.14
-8.89
-7.89
-5.52
-2.66
-0.21
1.06
0.45
-2.41
-7.15
-13.23
-20.10
-27.27
-33.91
-38.68
-40.07
-37.23
-29.85
-17.85
-1.81
17.17
37.67
58.51
79.15
99.37
118.73
132.29
135.87
128.78
114.91
99.66
86.52
76.32
69.86
64.49
58.50
52.08
46.22
41.80
38.80
36.54
34.59
32.57
29.92
26.50
22.92
19.79
17.42
15.50
13.39
10.48
6.25
0.13
-7.98
-17.61
-28.12
-38.88
-49.62
-60.36
-71.45
-83.51
-97.46
-113.84
-132.47
-152.37
-171.82
-188.57
-200.11
-204.02
-198.52
-183.08
-158.73
-128.10
-95.02
-63.59
-37.12
-17.31
-4.01
4.28
9.52
13.42
16.98
20.49
23.83
26.82
29.37
31.51
33.21
34.31
34.50
33.49
31.13
27.59
23.29
18.70
14.18
9.77
5.30
0.50
-4.75
-10.28
-15.68
-20.44
-24.23
-26.99
-28.97
-30.54
-32.05
-33.75
-35.83
-38.42
-41.72
-45.77
-50.33
-54.66
-57.55
-57.64
-53.87
-45.96
-34.61
-21.25
-7.62
4.86
15.30
23.42
29.25
32.89
34.35
33.66
31.10
27.28
23.11
19.59
17.51
17.18
18.38
20.51
22.78
24.55
25.46
25.51
24.92
23.96
22.81
21.44
19.62
17.15
13.93
10.10
6.05
2.30
-0.70
-2.72
-3.86
-4.55
-5.36
-6.84
-9.36
-13.01
-17.63
-22.85
-28.09
-32.58
-35.41
-35.63
-32.62
-26.22
-16.91
-5.81
5.74
16.43
25.34
32.03
36.39
38.52
38.59
36.79
33.51
29.34
25.06
21.49
19.24
18.56
19.24
20.76
22.48
23.89
24.71
24.90
24.57
23.79
22.53
20.64
17.94
14.38
10.08
5.36
0.63
-3.74
-7.53
-10.73
-13.44
-15.89
-18.35
-21.12
-24.60
-29.08
-34.61
-40.75
-46.53
-50.62
-51.69
-48.86
-42.01
-31.81
-19.50
-6.51
5.85
16.62
25.17
31.15
34.46
35.19
33.68
30.57
26.69
22.99
20.28
19.06
19.40
20.96
23.17
25.43
27.35
28.71
29.46
29.61
29.12
27.94
26.01
23.37
20.08
16.22
11.93
7.34
2.73
-1.59
-5.32
-8.32
-10.70
-12.87
-15.38
-18.73
-23.16
-28.42
-33.82
-38.32
-40.76
-40.22
-36.22
-28.88
-18.88
-7.29
4.68
15.92
25.51
32.84
37.56
39.58
39.12
36.64
32.86
28.61
24.72
21.82
20.27
20.09
21.01
22.54
24.12
25.29
25.70
25.28
24.11
22.39
20.30
17.90
15.09
11.74
7.79
3.39
-1.07
-5.18
-8.62
-11.36
-13.64
-15.88
-18.53
-21.90
-26.10
-30.96
-36.04
-40.56
-43.54
-43.94
-41.02
-34.61
-25.19
-13.81
-1.77
9.75
19.85
27.92
33.51
36.31
36.21
33.46
28.74
23.18
17.95
14.03
11.84
11.20
11.54
12.20
12.73
12.95
12.95
12.75
12.24
11.11
9.03
5.86
1.80
-2.64
-6.85
-10.33
-12.92
-14.82
-16.50
-18.49
-21.24
-25.00
-29.66
-34.77
-39.49
-42.83
-43.72
-41.40
-35.70
-27.08
-16.58
-5.51
4.85
13.60
20.25
24.63
26.81
26.93
25.24
22.14
18.25
14.32
11.10
9.12
8.62
9.42
11.10
13.13
14.99
16.24
16.57
15.82
13.97
11.15
7.68
3.92
0.18
-3.37
-6.71
-9.95
-13.23
-16.70
-20.50
-24.72
-29.35
-34.11
-38.39
-41.25
-41.67
-38.92
-32.88
-24.14
-13.87
-3.43
6.04
13.83
19.70
23.65
25.81
26.29
25.30
23.19
20.50
17.88
15.93
14.97
14.99
15.71
16.64
17.39
17.70
17.54
16.99
16.04
14.58
12.40
9.36
5.53
1.22
-3.10
-7.01
-10.32
-13.07
-15.54
-18.07
-20.98
-24.52
-28.77
-33.58
-38.41
-42.31
-44.14
-42.83
-37.87
-29.50
-18.76
-7.13
3.89
13.15
20.06
24.51
26.67
26.87
25.46
22.91
19.77
16.76
14.55
13.62
14.04
15.46
17.21
18.65
19.35
19.27
18.65
17.79
16.80
15.52
13.61
10.82
7.13
2.85
-1.48
-5.34
-8.43
-10.76
-12.67
-14.58
-16.94
-20.06
-24.06
-28.73
-33.58
-37.76
-40.20
-39.92
-36.29
-29.35
-19.78
-8.78
2.27
12.18
20.16
25.86
29.31
30.65
30.17
28.25
25.36
22.14
19.28
17.36
16.67
17.13
18.32
19.60
20.42
20.45
19.67
18.34
16.74
15.09
13.34
11.34
8.93
6.07
2.91
-0.29
-3.25
-5.82
-8.02
-10.00
-12.02
-14.36
-17.32
-21.15
-25.86
-31.17
-36.39
-40.46
-42.30
-41.07
-36.52
-29.07
-19.67
-9.51
0.30
8.92
15.84
20.75
23.54
24.28
23.24
20.98
18.17
15.54
13.59
12.57
12.45
12.99
13.88
14.83
15.56
15.83
15.51
14.55
13.04
11.11
8.91
6.46
3.74
0.70
-2.60
-5.95
-9.01
-11.52
-13.42
-15.00
-16.78
-19.38
-23.15
-28.03
-33.42
-38.29
-41.44
-41.83
-38.89
-32.72
-24.04
-14.01
-3.91
5.19
12.56
17.91
21.15
22.38
21.74
19.54
16.32
12.85
9.96
8.27
7.99
8.81
10.13
11.32
11.96
11.97
11.46
10.63
9.59
8.31
6.72
4.72
2.23
-0.77
-4.25
-8.06
-11.91
-15.41
-18.23
-20.22
-21.60
-22.94
-24.92
-28.13
-32.68
-38.12
-43.43
-47.26
-48.33
-45.77
-39.47
-30.09
-18.89
-7.39
3.11
11.75
18.23
22.66
25.26
26.22
25.72
23.99
21.52
18.98
17.10
16.41
16.98
18.48
20.31
21.89
22.81
22.95
22.39
21.33
19.98
18.51
16.98
15.32
13.39
11.00
8.04
4.54
0.71
-3.10
-6.60
-9.63
-12.24
-14.72
-17.43
-20.75
-24.95
-30.11
-36.04
-42.20
-47.70
-51.42
-52.28
-49.55
-43.15
-33.71
-22.41
-10.67
0.21
9.29
16.14
20.67
23.08
23.69
22.91
21.21
19.10
17.09
15.63
15.09
15.61
17.12
19.29
21.61
23.54
24.61
24.66
23.75
22.18
20.26
18.19
15.98
13.52
10.63
7.21
3.32
-0.84
-5.00
-8.86
-12.23
-15.03
-17.38
-19.48
-21.61
-24.04
-26.97
-30.51
-34.60
-38.96
-43.01
-45.87
-46.50
-44.01
-38.01
-28.83
-17.57
-5.79
4.98
13.65
19.76
23.45
25.15
25.30
24.21
22.15
19.44
16.60
14.25
12.95
12.94
14.06
15.79
17.50
18.69
19.12
18.90
18.31
17.59
16.82
15.88
14.47
12.38
9.51
6.02
2.26
-1.39
-4.63
-7.37
-9.69
-11.82
-14.01
-16.50
-19.46
-23.04
-27.31
-32.23
-37.45
-42.27
-45.62
-46.37
-43.70
-37.36
-27.91
-16.53
-4.69
6.26
15.35
22.12
26.54
28.75
29.04
27.73
25.25
22.16
19.10
16.76
15.59
15.69
16.78
18.25
19.40
19.72
19.05
17.62
15.85
14.11
12.53
10.91
8.91
6.23
2.81
-1.09
-4.99
-8.44
-11.17
-13.22
-14.89
-16.62
-18.85
-21.90
-25.99
-31.08
-36.86
-42.65
-47.38
-49.86
-49.05
-44.45
-36.34
-25.70
-13.94
-2.50
7.54
15.57
21.42
25.14
26.89
26.85
25.27
22.60
19.46
16.59
14.69
14.18
15.13
17.19
19.75
22.14
23.84
24.56
24.27
23.15
21.42
19.27
16.82
14.05
10.89
7.28
3.25
-1.03
-5.23
-9.02
-12.22
-14.87
-17.26
-19.78
-22.83
-26.67
-31.41
-36.93
-42.78
-48.18
-51.98
-52.93
-50.07
-43.07
-32.51
-19.71
-6.36
5.97
16.25
23.99
29.19
32.05
32.82
31.80
29.38
26.12
22.73
19.99
18.54
18.63
20.11
22.37
24.63
26.11
26.42
25.59
23.98
22.07
20.12
18.14
15.89
13.15
9.85
6.19
2.52
-0.88
-3.86
-6.54
-9.13
-11.82
-14.71
-17.86
-21.31
-25.21
-29.72
-34.86
-40.27
-45.10
-48.16
-48.19
-44.29
-36.40
-25.30
-12.43
0.53
12.17
21.64
28.61
33.17
35.48
35.75
34.24
31.38
27.84
24.45
21.98
20.93
21.31
22.79
24.72
26.45
27.50
27.64
26.96
25.65
23.97
22.07
19.94
17.45
14.41
10.73
6.51
2.04
-2.25
-6.01
-9.08
-11.54
-13.72
-16.04
-18.88
-22.47
-26.82
-31.75
-36.87
-41.58
-45.09
-46.53
-45.09
-40.34
-32.39
-21.99
-10.38
1.05
11.09
18.93
24.24
27.06
27.63
26.31
23.59
20.06
16.50
13.67
12.15
12.12
13.34
15.25
17.18
18.63
19.36
19.36
18.77
17.69
16.16
14.12
11.51
8.32
4.68
0.81
-2.96
-6.36
-9.24
-11.64
-13.85
-16.27
-19.30
-23.18
-27.84
-32.87
-37.55
-40.97
-42.18
-40.48
-35.56
-27.66
-17.56
-6.40
4.63
14.52
22.56
28.37
31.78
32.76
31.44
28.25
23.90
19.39
15.70
13.54
13.12
14.11
15.85
17.64
18.95
19.57
19.52
18.90
17.76
16.08
13.79
10.84
7.26
3.19
-1.13
-5.41
-9.35
-12.77
-15.62
-18.07
-20.42
-23.03
-26.24
-30.26
-35.09
-40.35
-45.32
-48.96
-50.11
-47.88
-41.91
-32.60
-21.05
-8.68
3.08
13.17
20.95
26.19
28.90
29.26
27.65
24.67
21.12
17.88
15.68
14.93
15.61
17.32
19.47
21.49
22.95
23.69
23.72
23.15
22.12
20.67
18.79
16.41
13.53
10.29
7.01
4.12
2.13
1.38
1.86
3.10
4.17
3.94
1.34
-4.20
-12.51
-22.57
-32.73
-41.01
-45.65
-45.49
-40.29
-30.80
-18.48
-5.14
7.49
18.04
25.71
30.19
31.57
30.20
26.76
22.13
17.35
13.40
10.98
10.34
11.16
12.81
14.51
15.70
16.15
15.97
15.49
14.92
14.28
13.25
11.42
8.41
4.16
-1.03
-6.59
-11.93
-16.60
-20.42
-23.51
-26.15
-28.72
-31.63
-35.18
-39.46
-44.16
-48.47
-51.24
-51.27
-47.73
-40.57
-30.53
-18.94
-7.30
3.18
11.74
18.08
22.14
24.00
23.79
21.82
18.67
15.09
11.93
9.80
8.98
9.30
10.36
11.66
12.83
13.71
14.21
14.27
13.72
12.34
9.96
6.58
2.44
-2.03
-6.36
-10.17
-13.30
-15.85
-18.14
-20.57
-23.58
-27.39
-31.92
-36.67
-40.70
-42.85
-42.02
-37.60
-29.69
-19.16
-7.41
4.01
13.85
21.33
26.20
28.60
28.86
27.43
24.84
21.64
18.45
15.81
14.08
13.38
13.56
14.35
15.43
16.50
17.35
17.78
17.62
16.72
14.98
12.38
9.02
5.14
1.06
-2.90
-6.48
-9.56
-12.23
-14.75
-17.55
-21.10
-25.72
-31.41
-37.67
-43.48
-47.43
-48.17
-44.83
-37.40
-26.77
-14.47
-2.16
8.78
17.58
23.96
27.96
29.75
29.59
27.85
25.13
22.16
19.65
18.09
17.59
17.89
18.53
19.07
19.25
19.03
18.55
17.94
17.19
16.10
14.34
11.61
7.88
3.42
-1.19
-5.32
-8.52
-10.72
-12.25
-13.64
-15.51
-18.36
-22.42
-27.55
-33.19
-38.34
-41.75
-42.23
-39.03
-32.11
-22.26
-10.81
0.73
11.09
19.49
25.59
29.38
31.03
30.79
29.04
26.35
23.43
21.00
19.61
19.43
20.26
21.63
23.01
24.02
24.45
24.34
23.71
22.62
20.99
18.76
15.86
12.34
8.32
4.05
-0.15
-3.93
-7.03
-9.35
-11.11
-12.78
-14.97
-18.23
-22.85
-28.64
-34.95
-40.70
-44.64
-45.62
-42.90
-36.45
-26.97
-15.73
-4.22
6.23
14.70
20.80
24.49
25.93
25.41
23.31
20.19
16.81
13.95
12.25
11.97
12.96
14.75
16.76
18.52
19.79
20.50
20.64
20.16
18.93
16.78
13.68
9.75
5.36
0.95
-3.05
-6.34
-8.88
-10.85
-12.67
-14.83
-17.82
-21.95
-27.21
-33.17
-38.96
-43.39
-45.27
-43.71
-38.40
-29.76
-18.80
-6.93
4.41
14.09
21.45
26.31
28.80
29.21
27.87
25.20
21.75
18.28
15.63
14.46
15.00
16.92
19.43
21.60
22.74
22.59
21.31
19.32
17.00
14.50
11.77
8.61
4.88
0.59
-4.04
-8.68
-12.95
-16.62
-19.69
-22.42
-25.22
-28.60
-32.90
-38.17
-44.01
-49.53
-53.50
-54.60
-51.87
-45.03
-34.63
-21.95
-8.61
3.90
14.51
22.73
28.49
31.96
33.36
32.91
30.92
27.89
24.50
21.49
19.45
18.67
19.02
20.06
21.20
21.93
21.94
21.19
19.81
18.02
15.93
13.55
10.75
7.37
3.36
-1.10
-5.65
-9.82
-13.27
-15.91
-17.96
-19.88
-22.15
-25.21
-29.24
-34.21
-39.69
-44.97
-48.96
-50.50
-48.67
-43.12
-34.23
-23.12
-11.21
0.14
9.94
17.70
23.30
26.81
28.40
28.29
26.84
24.63
22.37
20.78
20.38
21.24
23.00
24.97
26.42
26.90
26.32
25.01
23.40
21.77
20.10
18.08
15.33
11.72
7.42
2.90
-1.31
-4.89
-7.79
-10.21
-12.45
-14.76
-17.30
-20.23
-23.76
-28.09
-33.23
-38.73
-43.69
-46.82
-46.95
-43.38
-36.23
-26.35
-15.10
-3.85
6.32
14.72
21.02
25.12
26.94
26.60
24.35
20.80
16.80
13.28
11.01
10.34
11.11
12.73
14.46
15.68
16.12
15.88
15.25
14.50
13.71
12.67
11.05
8.56
5.15
1.07
-3.17
-7.07
-10.25
-12.66
-14.57
-16.42
-18.76
-21.95
-26.17
-31.17
-36.34
-40.75
-43.28
-42.98
-39.27
-32.25
-22.61
-11.56
-0.42
9.60
17.66
23.32
26.46
27.21
25.90
23.02
19.20
15.16
11.58
9.00
7.68
7.55
8.31
9.50
10.71
11.69
12.33
12.57
12.31
11.35
9.49
6.60
2.84
-1.40
-5.58
-9.20
-12.04
-14.19
-16.02
-17.99
-20.57
-24.04
-28.42
-33.43
-38.41
-42.43
-44.45
-43.55
-39.30
-31.83
-21.93
-10.77
0.32
10.18
17.96
23.21
25.82
25.99
24.23
21.22
17.75
14.58
12.25
11.06
11.02
11.86
13.19
14.60
15.76
16.47
16.65
16.28
15.34
13.75
11.42
8.32
4.58
0.52
-3.45
-6.93
-9.73
-11.92
-13.83
-15.93
-18.66
-22.32
-26.94
-32.19
-37.37
-41.48
-43.45
-42.35
-37.75
-29.87
-19.54
-8.03
3.26
13.18
20.93
26.19
28.97
29.57
28.40
25.95
22.77
19.43
16.50
14.46
13.58
13.84
14.92
16.33
17.57
18.38
18.65
18.46
17.88
16.84
15.19
12.74
9.43
5.39
1.00
-3.34
-7.23
-10.49
-13.17
-15.54
-18.04
-21.08
-24.95
-29.61
-34.63
-39.19
-42.22
-42.64
-39.70
-33.17
-23.49
-11.73
0.69
12.28
21.83
28.65
32.54
33.77
32.90
30.59
27.54
24.36
21.57
19.55
18.50
18.47
19.40
21.21
23.92
27.71
32.79
39.17
46.30
52.97
57.46
58.21
54.45
46.68
36.52
26.07
16.91
9.63
3.70
-1.94
-8.21
-15.39
-23.10
-30.51
-36.81
-41.36
-43.80
-43.91
-41.64
-37.12
-30.70
-23.00
-14.79
-7.00
-0.55
3.75
5.40
4.28
0.81
-4.15
-9.52
-14.27
-17.73
-19.63
-20.05
-19.28
-17.66
-15.46
-12.96
-10.43
-8.19
-6.61
-6.00
-6.55
-8.20
-10.63
-13.37
-15.92
-17.93
-19.32
-20.31
-21.34
-22.89
-25.39
-28.98
-33.43
-38.10
-42.02
-44.08
-43.33
-39.18
-31.70
-21.56
-9.88
1.97
12.75
21.47
27.55
30.75
31.22
29.35
25.78
21.31
16.75
12.87
10.23
9.13
9.54
11.11
13.28
15.44
17.10
17.99
18.07
17.45
16.22
14.44
12.05
9.09
5.72
2.25
-0.96
-3.73
-6.13
-8.57
-11.59
-15.67
-20.95
-27.10
-33.30
-38.37
-41.08
-40.46
-36.13
-28.39
-18.15
-6.67
4.73
14.97
23.28
29.19
32.51
33.29
31.82
28.68
24.66
20.66
17.48
15.69
15.46
16.57
18.53
20.68
22.43
23.39
23.44
22.61
21.04
18.87
16.16
12.99
9.44
5.69
1.94
-1.58
-4.73
-7.43
-9.77
-11.96
-14.39
-17.51
-21.67
-26.86
-32.57
-37.74
-41.05
-41.28
-37.75
-30.58
-20.59
-9.08
2.55
13.07
21.65
27.78
31.33
32.50
31.75
29.80
27.49
25.54
24.36
23.97
24.02
24.01
23.55
22.51
21.02
19.42
18.04
17.04
16.40
15.86
15.04
13.58
11.27
8.20
4.86
1.92
0.02
-0.59
-0.22
0.29
-0.13
-2.41
-7.04
-13.98
-22.59
-31.79
-40.10
-45.95
-47.90
-45.09
-37.49
-26.08
-12.52
1.19
13.36
22.90
29.42
33.09
34.30
33.46
30.94
27.16
22.67
18.23
14.60
12.37
11.69
12.24
13.34
14.29
14.66
14.30
13.37
12.07
10.46
8.39
5.65
2.11
-2.11
-6.61
-10.87
-14.42
-17.03
-18.76
-19.91
-20.90
-22.22
-24.28
-27.35
-31.50
-36.38
-41.24
-44.94
-46.23
-44.16
-38.44
-29.55
-18.67
-7.25
3.39
12.31
19.06
23.46
25.51
25.27
23.02
19.30
14.99
11.13
8.59
7.81
8.63
10.44
12.44
14.01
14.90
15.21
15.20
15.02
14.56
13.51
11.51
8.46
4.55
0.25
-3.90
-7.53
-10.49
-12.90
-15.01
-17.12
-19.51
-22.49
-26.37
-31.29
-37.00
-42.72
-47.17
-48.98
-47.12
-41.41
-32.60
-22.14
-11.67
-2.50
4.66
9.64
12.60
13.74
13.23
11.23
8.11
4.51
1.26
-0.85
-1.25
0.20
3.24
7.38
12.04
16.68
20.84
24.14
26.29
27.10
26.54
24.75
22.02
18.67
15.04
11.35
7.79
4.46
1.44
-1.28
-3.77
-6.16
-8.65
-11.46
-14.66
-18.13
-21.47
-24.01
-24.99
-23.71
-19.87
-13.61
-5.53
3.46
12.37
20.39
26.94
31.66
34.41
35.10
33.81
30.80
26.52
21.63
16.87
12.88
10.05
8.48
7.98
8.16
8.58
8.85
8.71
8.06
6.91
5.39
3.55
1.41
-1.11
-4.11
-7.58
-11.33
-14.99
-18.16
-20.63
-22.47
-24.06
-25.87
-28.33
-31.61
-35.64
-40.14
-44.66
-48.51
-50.85
-50.73
-47.38
-40.51
-30.60
-18.79
-6.62
4.43
13.34
19.71
23.57
25.24
25.09
23.49
20.81
17.57
14.39
11.87
10.51
10.51
11.72
13.72
15.92
17.79
19.00
19.49
19.42
18.99
18.24
17.04
15.09
12.16
8.21
3.56
-1.23
-5.61
-9.22
-12.04
-14.40
-16.79
-19.74
-23.59
-28.39
-33.85
-39.27
-43.65
-45.86
-44.96
-40.53
-32.81
-22.72
-11.58
-0.74
8.76
16.30
21.63
24.75
25.73
24.79
22.33
18.95
15.46
12.63
11.03
10.82
11.75
13.32
14.93
16.15
16.75
16.76
16.24
15.24
13.69
11.44
8.36
4.52
0.22
-4.10
-7.97
-11.15
-13.68
-15.86
-18.13
-20.93
-24.48
-28.73
-33.22
-37.15
-39.50
-39.29
-35.92
-29.37
-20.33
-9.97
0.43
9.79
17.39
22.93
26.35
27.72
27.23
25.23
22.27
19.03
16.23
14.37
13.68
14.05
15.13
16.49
17.76
18.69
19.14
18.97
18.06
16.23
13.40
9.62
5.17
0.56
-3.68
-7.22
-10.01
-12.34
-14.66
-17.40
-20.88
-25.19
-30.26
-35.72
-40.95
-44.96
-46.63
-44.93
-39.40
-30.37
-19.00
-6.89
4.40
13.75
20.68
25.18
27.46
27.77
26.40
23.76
20.49
17.44
15.41
14.87
15.76
17.54
19.43
20.78
21.25
20.92
20.03
18.83
17.37
15.54
13.16
10.17
6.68
2.98
-0.63
-3.83
-6.52
-8.73
-10.61
-12.44
-14.57
-17.37
-21.12
-25.83
-31.10
-36.03
-39.40
-39.98
-36.97
-30.28
-20.64
-9.39
2.00
12.23
20.49
26.41
29.97
31.27
30.59
28.32
25.10
21.74
19.03
17.55
17.47
18.55
20.23
21.95
23.31
24.12
24.43
24.28
23.67
22.44
20.39
17.40
13.58
9.19
4.67
0.45
-3.14
-5.95
-8.05
-9.70
-11.32
-13.40
-16.41
-20.59
-25.80
-31.43
-36.42
-39.52
-39.64
-36.20
-29.34
-19.91
-9.23
1.29
10.46
17.48
22.04
24.18
24.21
22.59
19.94
16.90
14.11
12.08
11.12
11.26
12.30
13.87
15.54
16.93
17.81
18.03
17.53
16.29
14.27
11.47
7.97
3.92
-0.34
-4.43
-7.99
-10.79
-12.84
-14.38
-15.85
-17.79
-20.68
-24.68
-29.53
-34.43
-38.19
-39.57
-37.65
-32.20
-23.80
-13.60
-3.05
6.58
14.41
20.04
23.40
24.62
23.92
21.66
18.41
14.89
11.91
10.13
9.81
10.74
12.34
13.89
14.87
15.06
14.62
13.81
12.81
11.57
9.83
7.29
3.82
-0.42
-5.00
-9.40
-13.16
-16.12
-18.39
-20.31
-22.31
-24.81
-28.06
-32.13
-36.80
-41.48
-45.30
-47.15
-46.03
-41.31
-33.05
-22.06
-9.76
2.31
12.83
21.03
26.66
29.86
30.89
30.08
27.82
24.70
21.46
18.84
17.39
17.20
17.97
19.14
20.20
20.86
21.08
20.92
20.45
19.59
18.19
16.10
13.25
9.74
5.77
1.65
-2.31
-5.82
-8.72
-11.04
-13.04
-15.11
-17.70
-21.21
-25.79
-31.24
-36.89
-41.71
-44.44
-43.99
-39.73
-31.82
-21.13
-9.15
2.54
12.63
20.34
25.43
28.07
28.67
27.68
25.64
23.09
20.63
18.76
17.85
17.99
18.98
20.40
21.74
22.61
22.75
22.17
21.05
19.64
18.09
16.35
14.21
11.42
7.86
3.71
-0.58
-4.42
-7.42
-9.50
-11.00
-12.50
-14.67
-17.99
-22.57
-28.12
-33.96
-39.08
-42.36
-42.81
-39.81
-33.33
-24.00
-12.97
-1.63
8.69
17.00
22.77
25.90
26.63
25.40
22.79
19.48
16.14
13.40
11.72
11.25
11.83
13.04
14.35
15.34
15.80
15.74
15.27
14.54
13.53
12.12
10.13
7.45
4.16
0.51
-3.14
-6.46
-9.28
-11.62
-13.64
-15.62
-17.87
-20.70
-24.34
-28.79
-33.66
-38.14
-41.13
-41.51
-38.55
-32.23
-23.25
-12.82
-2.29
7.19
14.87
20.37
23.55
24.48
23.40
20.79
17.38
14.05
11.58
10.44
10.65
11.81
13.32
14.62
15.37
15.55
15.28
14.70
13.81
12.44
10.39
7.54
3.98
0.03
-3.89
-7.45
-10.53
-13.24
-15.83
-18.58
-21.75
-25.50
-29.96
-35.06
-40.42
-45.16
-48.09
-47.92
-43.87
-35.96
-25.20
-13.20
-1.61
8.29
15.94
21.26
24.42
25.62
25.00
22.81
19.57
16.10
13.27
11.76
11.75
12.95
14.72
16.39
17.51
17.96
17.83
17.28
16.33
14.91
12.80
9.88
6.22
2.10
-2.03
-5.72
-8.74
-11.16
-13.41
-16.07
-19.71
-24.56
-30.36
-36.31
-41.20
-43.74
-42.93
-38.37
-30.39
-19.97
-8.44
2.80
12.67
20.47
25.90
28.96
29.78
28.65
26.00
22.47
18.84
15.85
14.05
13.57
14.21
15.46
16.78
17.77
18.24
18.15
17.48
16.18
14.15
11.33
7.82
3.92
0.05
-3.44
-6.32
-8.70
-10.88
-13.35
-16.58
-20.81
-25.93
-31.36
-36.12
-39.02
-38.98
-35.37
-28.21
-18.26
-6.80
4.66
14.77
22.62
27.79
30.32
30.51
28.79
25.70
21.79
17.69
14.03
11.30
9.80
9.51
10.16
11.28
12.37
12.99
12.85
11.82
9.95
7.42
4.44
1.17
-2.33
-6.04
-9.97
-14.04
-18.20
-22.40
-26.69
-31.08
-35.37
-39.00
-41.09
-40.70
-37.21
-30.67
-21.82
-11.92
-2.28
6.08
12.60
17.11
19.68
20.46
19.62
17.45
14.37
11.02
8.11
6.21
5.66
6.35
7.84
9.52
10.82
11.39
11.12
10.14
8.67
6.94
5.18
3.56
2.21
1.07
-0.10
-1.76
-4.45
-8.56
-14.05
-20.31
-26.19
-30.31
-31.46
-29.01
-23.11
-14.64
-4.95
4.57
12.80
19.09
23.23
25.27
25.42
23.93
21.17
17.67
14.06
11.02
9.05
8.39
8.95
10.36
12.09
13.58
14.33
14.05
12.64
10.18
6.93
3.23
-0.55
-4.13
-7.32
-10.13
-12.78
-15.58
-18.88
-22.86
-27.31
-31.54
-34.54
-35.16
-32.61
-26.70
-18.03
-7.78
2.57
11.70
18.71
23.25
25.44
25.68
24.42
22.15
19.32
16.42
13.94
12.27
11.58
11.79
12.53
13.28
13.56
13.06
11.68
9.52
6.85
3.93
1.01
-1.78
-4.38
-6.86
-9.30
-11.80
-14.54
-17.70
-21.50
-26.00
-30.94
-35.55
-38.69
-39.11
-35.92
-29.04
-19.27
-8.07
2.95
12.54
20.01
25.24
28.40
29.71
29.39
27.71
25.11
22.23
19.77
18.24
17.84
18.39
19.47
20.64
21.52
21.95
21.82
21.09
19.66
17.46
14.48
10.87
6.89
2.90
-0.85
-4.23
-7.36
-10.45
-13.80
-17.61
-21.93
-26.49
-30.70
-33.67
-34.40
-32.11
-26.55
-18.19
-8.13
2.15
11.28
18.32
22.91
25.17
25.47
24.26
21.93
18.87
15.50
12.30
9.72
8.14
7.69
8.22
9.31
10.43
11.06
10.91
10.00
8.56
6.89
5.17
3.34
1.20
-1.47
-4.67
-8.19
-11.63
-14.70
-17.33
-19.78
-22.50
-25.84
-29.74
-33.68
-36.70
-37.68
-35.79
-30.75
-22.93
-13.32
-3.17
6.32
14.24
20.11
23.77
25.36
25.16
23.57
21.06
18.18
15.47
13.37
12.14
11.84
12.36
13.42
14.69
15.80
16.39
16.18
14.97
12.73
9.55
5.65
1.27
-3.31
-7.88
-12.29
-16.47
-20.47
-24.38
-28.31
-32.33
-36.33
-39.96
-42.56
-43.31
-41.44
-36.55
-28.83
-19.06
-8.50
1.54
9.99
16.24
20.16
21.96
22.00
20.72
18.58
16.07
13.70
11.86
10.77
10.42
10.64
11.20
11.89
12.57
13.12
13.33
12.95
11.72
9.53
6.49
2.88
-0.90
-4.53
-7.83
-10.80
-13.52
-16.16
-18.91
-22.04
-25.73
-29.94
-34.25
-37.81
-39.50
-38.31
-33.74
-26.04
-16.22
-5.69
4.18
12.38
18.48
22.42
24.42
24.69
23.47
21.06
17.91
14.65
11.98
10.42
10.16
10.98
12.36
13.73
14.70
15.19
15.30
15.13
14.63
13.55
11.59
8.58
4.67
0.32
-3.89
-7.49
-10.34
-12.67
-14.96
-17.73
-21.31
-25.73
-30.62
-35.33
-39.01
-40.76
-39.84
-35.87
-28.92
-19.60
-8.97
1.67
11.05
18.22
22.73
24.65
24.42
22.69
20.08
17.14
14.31
12.00
10.53
10.10
10.66
11.87
13.26
14.31
14.72
14.44
13.62
12.40
10.84
8.91
6.52
3.63
0.34
-3.16
-6.63
-9.87
-12.79
-15.47
-18.13
-21.14
-24.82
-29.21
-33.89
-37.95
-40.22
-39.65
-35.73
-28.72
-19.55
-9.47
0.32
8.95
15.91
20.99
24.11
25.23
24.49
22.18
18.83
15.10
11.63
8.95
7.33
6.74
6.95
7.59
8.29
8.76
8.87
8.57
7.83
6.60
4.76
2.23
-0.95
-4.53
-8.09
-11.29
-13.92
-16.16
-18.49
-21.50
-25.58
-30.58
-35.74
-39.80
-41.40
-39.53
-33.95
-25.25
-14.67
-3.64
6.56
15.12
21.62
25.92
28.03
28.03
26.20
23.02
19.12
15.19
11.80
9.29
7.79
7.29
7.66
8.71
10.15
11.58
12.54
12.63
11.65
9.61
6.72
3.28
-0.45
-4.25
-8.03
-11.80
-15.66
-19.79
-24.42
-29.65
-35.29
-40.70
-44.86
-46.54
-44.75
-39.09
-29.96
-18.48
-6.21
5.35
15.07
22.36
27.08
29.36
29.47
27.75
24.65
20.77
16.83
13.49
11.19
10.05
9.84
10.18
10.68
11.10
11.34
11.37
11.16
10.54
9.30
7.24
4.34
0.75
-3.20
-7.16
-10.89
-14.38
-17.82
-21.52
-25.75
-30.51
-35.42
-39.72
-42.33
-42.20
-38.60
-31.44
-21.34
-9.52
2.57
13.60
22.64
29.24
33.31
35.01
34.63
32.53
29.23
25.38
21.62
18.53
16.49
15.61
15.77
16.69
18.00
19.30
20.24
20.52
19.99
18.61
16.44
13.63
10.38
6.87
3.28
-0.30
-3.81
-7.36
-11.12
-15.33
-20.13
-25.41
-30.67
-35.06
-37.46
-36.86
-32.69
-25.05
-14.75
-3.12
8.33
18.29
25.88
30.71
32.78
32.42
30.13
26.51
22.23
17.91
14.07
11.11
9.24
8.53
8.92
10.24
12.16
14.28
16.15
17.34
17.54
16.65
14.75
12.05
8.79
5.20
1.44
-2.38
-6.18
-9.92
-13.65
-17.53
-21.78
-26.51
-31.52
-36.19
-39.48
-40.25
-37.67
-31.59
-22.68
-12.21
-1.63
7.84
15.47
20.95
24.28
25.53
24.81
22.32
18.53
14.15
10.07
7.04
5.54
5.61
6.95
9.03
11.32
13.36
14.82
15.49
15.23
14.03
11.95
9.12
5.78
2.16
-1.51
-5.14
-8.82
-12.72
-17.06
-21.90
-26.95
-31.52
-34.68
-35.49
-33.34
-28.14
-20.44
-11.28
-1.90
6.53
13.17
17.63
19.91
20.28
19.10
16.73
13.46
9.69
5.91
2.75
0.81
0.45
1.66
3.99
6.74
9.16
10.66
10.97
10.11
8.28
5.74
2.75
-0.52
-3.96
-7.47
-11.03
-14.73
-18.79
-23.45
-28.79
-34.50
-39.77
-43.36
-44.03
-40.93
-34.01
-24.09
-12.57
-1.02
9.27
17.48
23.32
26.79
28.03
27.29
24.86
21.25
17.12
13.25
10.33
8.77
8.59
9.52
11.06
12.73
14.12
14.85
14.67
13.36
10.89
7.41
3.33
-0.87
-4.80
-8.31
-11.57
-14.93
-18.78
-23.34
-28.56
-34.02
-38.99
-42.46
-43.39
-40.96
-34.92
-25.74
-14.53
-2.77
8.14
17.19
23.91
28.27
30.47
30.76
29.36
26.60
22.92
18.98
15.46
12.97
11.87
12.14
13.47
15.33
17.12
18.34
18.71
18.14
16.72
14.56
11.82
8.61
5.09
1.47
-2.02
-5.22
-8.18
-11.21
-14.81
-19.38
-24.93
-30.90
-36.19
-39.45
-39.52
-35.78
-28.45
-18.46
-7.16
4.00
13.86
21.73
27.32
30.59
31.66
30.74
28.15
24.45
20.35
16.62
13.89
12.44
12.17
12.73
13.67
14.59
15.19
15.25
14.57
12.95
10.33
6.83
2.75
-1.51
-5.57
-9.14
-12.17
-14.73
-17.13
-19.77
-23.09
-27.34
-32.36
-37.44
-41.37
-42.77
-40.60
-34.51
-25.12
-13.73
-1.99
8.64
17.20
23.29
26.89
28.18
27.43
24.97
21.29
17.05
12.97
9.68
7.57
6.74
7.00
8.04
9.51
11.08
12.44
13.22
13.05
11.69
9.08
5.46
1.32
-2.80
-6.48
-9.65
-12.54
-15.57
-19.12
-23.42
-28.36
-33.54
-38.28
-41.62
-42.52
-40.07
-33.83
-24.16
-12.25
0.11
11.11
19.43
24.62
27.06
27.55
26.86
25.47
23.51
21.02
18.20
15.48
13.38
12.26
12.19
12.86
13.77
14.44
14.57
14.05
12.94
11.29
9.11
6.36
3.00
-0.94
-5.25
-9.66
-13.85
-17.64
-21.04
-24.37
-28.05
-32.34
-37.07
-41.51
-44.45
-44.62
-41.17
-33.98
-23.81
-12.02
-0.13
10.55
19.23
25.53
29.41
31.01
30.54
28.36
25.05
21.34
18.03
15.77
14.88
15.36
16.80
18.65
20.38
21.58
22.05
21.74
20.66
18.87
16.35
13.14
9.33
5.09
0.72
-3.46
-7.20
-10.41
-13.22
-16.00
-19.25
-23.39
-28.50
-34.17
-39.40
-42.90
-43.37
-40.05
-32.96
-22.92
-11.32
0.33
10.82
19.36
25.66
29.71
31.64
31.64
29.97
27.08
23.58
20.20
17.65
16.37
16.43
17.48
18.92
20.14
20.73
20.57
19.75
18.44
16.69
14.44
11.57
8.06
4.08
-0.02
-3.82
-7.03
-9.62
-11.81
-14.00
-16.69
-20.26
-24.87
-30.27
-35.74
-40.25
-42.64
-42.00
-37.90
-30.60
-20.94
-10.10
0.64
10.19
17.72
22.73
25.05
24.86
22.65
19.18
15.33
11.87
9.41
8.21
8.31
9.43
11.19
13.13
14.80
15.85
16.03
15.22
13.49
10.98
7.92
4.54
1.06
-2.33
-5.46
-8.19
-10.45
-12.32
-14.05
-16.03
-18.71
-22.36
-26.84
-31.52
-35.33
-37.04
-35.65
-30.82
-22.96
-13.12
-2.71
6.98
15.00
20.85
24.41
25.81
25.27
23.16
20.01
16.49
13.31
11.04
10.01
10.20
11.31
12.88
14.40
15.44
15.71
15.07
13.53
11.24
8.40
5.24
1.95
-1.33
-4.49
-7.46
-10.23
-12.81
-15.31
-17.95
-21.05
-24.77
-29.03
-33.27
-36.49
-37.55
-35.52
-30.10
-21.76
-11.61
-1.04
8.73
16.86
22.96
26.88
28.66
28.40
26.48
23.70
21.28
20.65
22.97
28.61
36.81
45.87
53.61
58.20
58.76
55.60
49.91
43.14
36.39
30.04
23.88
17.46
10.41
2.71
-5.42
-13.63
-21.59
-29.13
-36.20
-42.86
-49.22
-55.32
-60.95
-65.57
-68.35
-68.40
-65.17
-58.65
-49.49
-38.78
-27.66
-17.13
-7.87
-0.38
4.95
7.77
7.99
5.92
2.40
-1.41
-4.33
-5.60
-5.05
-3.10
-0.46
2.23
4.57
6.47
7.96
9.03
9.61
9.48
8.52
6.72
4.22
1.29
-1.82
-4.92
-7.86
-10.54
-12.93
-15.17
-17.52
-20.43
-24.29
-29.19
-34.67
-39.71
-42.89
-42.90
-38.94
-31.13
-20.44
-8.40
3.38
13.66
21.76
27.44
30.79
31.94
31.10
28.59
25.07
21.43
18.63
17.32
17.63
19.09
20.90
22.29
22.86
22.64
21.97
21.14
20.24
19.07
17.29
14.71
11.38
7.60
3.81
0.34
-2.68
-5.27
-7.61
-9.90
-12.38
-15.33
-19.03
-23.69
-29.17
-34.81
-39.51
-41.86
-40.74
-35.68
-27.15
-16.37
-4.89
5.84
14.91
21.86
26.57
29.04
29.33
27.61
24.35
20.34
16.53
13.74
12.37
12.33
13.15
14.25
15.21
15.84
16.12
16.07
15.60
14.60
12.95
10.66
7.84
4.70
1.42
-1.87
-5.11
-8.28
-11.37
-14.39
-17.47
-20.83
-24.71
-29.23
-34.14
-38.69
-41.75
-42.12
-38.93
-32.04
-22.16
-10.62
1.01
11.42
19.73
25.56
28.86
29.74
28.41
25.28
21.04
16.56
12.72
10.10
8.85
8.70
9.13
9.70
10.16
10.48
10.68
10.71
10.37
9.41
7.64
5.10
2.02
-1.24
-4.35
-7.16
-9.64
-11.99
-14.44
-17.34
-20.95
-25.39
-30.43
-35.41
-39.31
-40.97
-39.52
-34.68
-26.87
-17.09
-6.60
3.47
12.31
19.43
24.57
27.53
28.24
26.79
23.60
19.37
15.05
11.52
9.38
8.82
9.56
11.07
12.76
14.16
15.08
15.48
15.36
14.67
13.23
10.87
7.59
3.60
-0.69
-4.82
-8.44
-11.46
-14.02
-16.35
-18.78
-21.58
-24.97
-29.07
-33.74
-38.45
-42.27
-44.02
-42.64
-37.62
-29.19
-18.33
-6.46
4.99
14.93
22.73
28.17
31.26
32.13
30.96
28.17
24.40
20.56
17.57
16.10
16.32
17.81
19.74
21.28
21.89
21.54
20.59
19.53
18.60
17.69
16.39
14.28
11.18
7.30
3.09
-0.92
-4.41
-7.34
-9.94
-12.47
-15.20
-18.28
-21.84
-25.98
-30.69
-35.69
-40.27
-43.31
-43.60
-40.28
-33.22
-23.17
-11.54
0.08
10.33
18.39
23.99
27.19
28.23
27.41
25.09
21.77
18.15
14.98
12.92
12.33
13.14
14.87
16.82
18.30
18.87
18.45
17.24
15.58
13.71
11.72
9.48
6.81
3.64
0.12
-3.41
-6.51
-8.86
-10.34
-11.19
-11.88
-13.03
-15.16
-18.55
-23.11
-28.30
-33.32
-37.18
-39.06
-38.39
-35.02
-29.24
-21.68
-13.13
-4.47
3.50
10.10
14.82
17.35
17.65
16.00
13.00
9.47
6.33
4.36
4.05
5.46
8.20
11.64
15.04
17.86
19.86
21.09
21.77
22.07
21.97
21.29
19.79
17.38
14.23
10.77
7.48
4.68
2.38
0.34
-1.86
-4.56
-8.01
-12.31
-17.42
-23.12
-28.93
-34.02
-37.35
-37.87
-34.90
-28.45
-19.26
-8.61
2.01
11.33
18.58
23.44
25.99
26.48
25.25
22.68
19.32
15.82
12.94
11.33
11.28
12.65
14.86
17.10
18.69
19.27
18.91
17.93
16.66
15.19
13.39
10.98
7.77
3.86
-0.37
-4.38
-7.70
-10.13
-11.85
-13.29
-14.97
-17.32
-20.61
-24.86
-29.84
-35.10
-39.87
-43.23
-44.21
-42.08
-36.66
-28.40
-18.32
-7.77
2.02
10.13
16.10
19.91
21.74
21.90
20.78
18.87
16.81
15.23
14.68
15.39
17.24
19.78
22.38
24.45
25.63
25.82
25.17
23.90
22.17
20.03
17.42
14.26
10.58
6.56
2.51
-1.25
-4.49
-7.14
-9.36
-11.46
-13.90
-17.12
-21.41
-26.67
-32.25
-37.04
-39.70
-39.18
-35.07
-27.85
-18.68
-8.99
-0.04
7.37
12.95
16.68
18.68
19.04
17.94
15.73
12.95
10.30
8.38
7.57
7.88
9.00
10.43
11.73
12.61
13.01
12.96
12.50
11.60
10.09
7.79
4.63
0.73
-3.60
-7.92
-11.74
-14.76
-16.92
-18.43
-19.80
-21.62
-24.42
-28.36
-33.13
-37.90
-41.52
-42.84
-41.04
-35.92
-27.92
-17.98
-7.31
2.95
11.86
18.85
23.60
26.05
26.36
24.87
22.15
18.91
15.90
13.69
12.57
12.52
13.25
14.30
15.30
15.95
16.13
15.78
14.88
13.42
11.36
8.72
5.55
1.95
-1.90
-5.77
-9.43
-12.69
-15.53
-18.18
-21.05
-24.58
-29.06
-34.33
-39.69
-44.03
-46.10
-44.98
-40.31
-32.51
-22.55
-11.70
-1.13
8.22
15.77
21.15
24.19
24.95
23.74
21.16
18.01
15.09
12.97
11.89
11.77
12.34
13.28
14.34
15.34
16.11
16.45
16.13
15.00
13.00
10.22
6.85
3.15
-0.64
-4.34
-7.80
-10.97
-13.91
-16.80
-19.90
-23.55
-27.95
-32.97
-38.05
-42.10
-43.88
-42.27
-36.79
-27.81
-16.43
-4.21
7.34
17.11
24.52
29.40
31.84
32.05
30.41
27.49
24.06
20.97
18.85
17.96
18.11
18.85
19.67
20.25
20.46
20.35
19.95
19.15
17.79
15.67
12.71
9.03
4.87
0.55
-3.63
-7.46
-10.81
-13.70
-16.33
-19.07
-22.40
-26.73
-32.03
-37.74
-42.70
-45.52
-44.96
-40.45
-32.29
-21.54
-9.68
1.82
11.83
19.70
25.15
28.18
28.92
27.66
24.86
21.21
17.50
14.45
12.51
11.79
12.06
12.92
14.00
14.99
15.74
16.11
15.96
15.17
13.65
11.38
8.41
4.82
0.73
-3.66
-8.11
-12.32
-16.05
-19.24
-22.11
-25.18
-28.99
-33.85
-39.49
-44.99
-48.98
-50.02
-47.22
-40.42
-30.38
-18.39
-5.91
5.82
15.96
23.97
29.58
32.60
33.04
31.16
27.61
23.30
19.21
16.13
14.45
14.14
14.85
16.09
17.40
18.45
19.06
19.11
18.50
17.12
14.88
11.77
7.87
3.39
-1.35
-5.98
-10.18
-13.80
-16.92
-19.90
-23.21
-27.35
-32.50
-38.43
-44.30
-48.91
-50.88
-49.13
-43.20
-33.46
-21.00
-7.38
5.76
17.09
25.76
31.42
34.18
34.41
32.69
29.69
26.14
22.72
19.98
18.25
17.55
17.72
18.47
19.46
20.40
21.06
21.22
20.76
19.60
17.71
15.10
11.78
7.78
3.22
-1.65
-6.44
-10.77
-14.41
-17.49
-20.47
-24.02
-28.65
-34.43
-40.75
-46.44
-50.06
-50.39
-46.74
-39.16
-28.38
-15.61
-2.20
10.56
21.59
30.11
35.65
38.12
37.83
35.43
31.84
28.03
24.74
22.41
21.11
20.69
20.83
21.29
21.86
22.39
22.73
22.71
22.13
20.83
18.71
15.76
12.07
7.80
3.17
-1.56
-6.14
-10.38
-14.23
-17.84
-21.58
-25.84
-30.88
-36.55
-42.16
-46.55
-48.37
-46.50
-40.49
-30.72
-18.32
-4.89
7.96
18.93
27.20
32.39
34.56
34.02
31.35
27.34
22.86
18.73
15.52
13.54
12.76
12.93
13.72
14.75
15.68
16.28
16.38
15.92
14.89
13.31
11.12
8.23
4.65
0.48
-4.00
-8.43
-12.49
-16.07
-19.31
-22.55
-26.24
-30.66
-35.72
-40.86
-45.01
-46.91
-45.42
-39.99
-30.90
-19.22
-6.47
5.82
16.44
24.73
30.43
33.50
33.99
32.10
28.32
23.46
18.57
14.67
12.43
11.91
12.69
14.09
15.51
16.55
17.11
17.17
16.71
15.56
13.54
10.59
6.85
2.61
-1.73
-5.91
-9.80
-13.47
-17.12
-21.06
-25.58
-30.88
-36.83
-42.82
-47.75
-50.25
-49.08
-43.69
-34.37
-22.28
-8.99
3.90
15.20
24.16
30.40
33.78
34.36
32.45
28.71
24.06
19.58
16.14
14.21
13.78
14.47
15.72
17.06
18.20
19.05
19.54
19.55
18.86
17.23
14.53
10.82
6.40
1.68
-2.93
-7.17
-10.92
-14.25
-17.38
-20.65
-24.44
-28.98
-34.18
-39.46
-43.74
-45.66
-44.10
-38.47
-29.10
-17.11
-4.12
8.20
18.56
26.23
31.01
33.05
32.73
30.57
27.18
23.34
19.83
17.29
16.06
16.06
16.89
18.07
19.16
19.96
20.39
20.40
19.90
18.74
16.82
14.11
10.76
6.96
2.96
-1.03
-4.89
-8.51
-11.85
-15.01
-18.26
-21.96
-26.43
-31.66
-37.14
-41.86
-44.54
-44.02
-39.65
-31.61
-20.79
-8.61
3.45
14.12
22.58
28.44
31.62
32.33
30.91
27.93
24.05
20.06
16.67
14.43
13.55
13.93
15.12
16.57
17.77
18.37
18.28
17.54
16.20
14.27
11.65
8.28
4.23
-0.17
-4.50
-8.29
-11.36
-13.82
-16.11
-18.78
-22.30
-26.86
-32.21
-37.63
-42.07
-44.35
-43.50
-39.09
-31.35
-21.18
-9.92
1.08
10.66
18.09
23.00
25.32
25.23
23.11
19.60
15.49
11.63
8.71
7.09
6.77
7.44
8.64
9.89
10.83
11.24
11.03
10.18
8.75
6.81
4.50
1.95
-0.65
-3.17
-5.56
-7.92
-10.43
-13.37
-16.96
-21.33
-26.41
-31.86
-37.01
-40.88
-42.38
-40.65
-35.32
-26.83
-16.28
-5.14
5.16
13.67
19.94
23.92
25.74
25.56
23.59
20.28
16.31
12.51
9.60
7.99
7.62
8.14
9.09
10.15
11.16
12.09
12.85
13.23
12.91
11.62
9.25
5.96
2.11
-1.89
-5.71
-9.21
-12.41
-15.41
-18.39
-21.55
-25.13
-29.34
-34.16
-39.19
-43.51
-45.84
-45.03
-40.41
-32.20
-21.45
-9.67
1.65
11.42
19.09
24.47
27.58
28.48
27.32
24.47
20.60
16.67
13.61
12.14
12.42
14.12
16.48
18.69
20.15
20.65
20.33
19.49
18.32
16.82
14.77
11.94
8.27
3.97
-0.49
-4.58
-7.95
-10.53
-12.69
-15.03
-18.22
-22.68
-28.35
-34.53
-40.00
-43.33
-43.28
-39.24
-31.48
-21.08
-9.57
1.53
11.15
18.78
24.42
28.32
30.72
31.82
31.80
30.93
29.48
27.69
25.63
23.25
20.48
17.46
14.53
12.15
10.63
9.97
9.78
9.46
8.52
6.77
4.35
1.63
-1.11
-3.80
-6.59
-9.75
-13.47
-17.76
-22.43
-27.31
-32.25
-37.19
-41.92
-45.90
-48.25
-47.88
-43.96
-36.33
-25.74
-13.63
-1.74
8.44
16.00
20.71
22.83
22.86
21.32
18.72
15.55
12.35
9.64
7.87
7.23
7.69
8.91
10.45
11.84
12.77
13.07
12.68
11.58
9.72
7.10
3.78
0.01
-3.85
-7.42
-10.50
-13.15
-15.70
-18.65
-22.46
-27.28
-32.88
-38.56
-43.27
-45.89
-45.45
-41.48
-34.15
-24.23
-12.93
-1.55
8.77
17.21
23.33
26.97
28.24
27.45
25.14
21.96
18.68
15.89
14.03
13.24
13.45
14.46
16.00
17.75
19.41
20.66
21.19
20.85
19.61
17.62
15.12
12.39
9.69
7.16
4.90
2.91
1.19
-0.36
-1.91
-3.69
-5.86
-8.31
-10.58
-11.76
-10.69
-6.31
1.99
13.98
28.67
44.51
59.80
73.17
83.82
91.55
96.69
99.88
101.98
103.97
106.80
111.29
117.82
126.02
134.64
141.75
145.26
143.58
136.18
123.53
106.90
87.67
66.95
45.49
23.75
2.27
-18.37
-37.67
-55.50
-72.15
-88.10
-103.72
-118.88
-133.01
-145.27
-154.89
-161.31
-164.21
-163.51
-159.38
-152.32
-143.26
-133.49
-124.38
-116.99
-111.76
-108.35
-105.90
-103.39
-100.09
-95.77
-90.70
-85.38
-80.25
-75.37
-70.47
-65.15
-59.13
-52.56
-46.03
-40.36
-36.34
-34.31
-34.17
-35.34
-37.09
-38.71
-39.73
-39.90
-39.09
-37.23
-34.21
-29.90
-24.30
-17.54
-10.03
-2.39
4.65
10.43
14.62
17.45
19.79
23.03
28.69
37.79
50.46
65.69
81.58
95.94
106.91
113.49
115.61
114.00
109.82
104.32
98.66
93.77
90.26
88.26
87.37
86.63
84.88
81.14
75.03
66.89
57.56
47.97
38.57
29.22
19.28
8.07
-4.67
-18.51
-32.44
-45.30
-56.22
-64.92
-71.73
-77.26
-81.98
-86.03
-89.07
-90.54
-89.91
-86.87
-81.43
-73.84
-64.48
-53.72
-42.00
-29.87
-18.07
-7.50
0.94
6.60
9.31
9.50
7.98
5.70
3.49
1.79
0.73
0.21
0.08
0.22
0.51
0.75
0.63
-0.25
-2.27
-5.59
-10.09
-15.33
-20.80
-26.01
-30.73
-34.96
-38.85
-42.62
-46.41
-50.21
-53.83
-56.80
-58.43
-57.83
-54.15
-46.84
-35.97
-22.31
-7.15
7.97
21.71
33.19
41.98
48.08
51.70
53.14
52.80
51.10
48.53
45.61
42.82
40.51
38.86
37.88
37.41
37.19
36.88
36.18
34.84
32.70
29.73
26.01
21.74
17.23
12.75
8.44
4.29
0.08
-4.49
-9.59
-15.18
-20.84
-25.87
-29.40
-30.68
-29.19
-24.82
-17.95
-9.33
-0.06
8.78
16.23
21.75
25.21
26.84
27.02
26.13
24.47
22.26
19.75
17.23
15.07
13.60
12.98
13.17
13.89
14.78
15.42
15.47
14.69
13.02
10.50
7.32
3.73
-0.01
-3.70
-7.19
-10.47
-13.61
-16.79
-20.22
-24.01
-28.01
-31.69
-34.18
-34.49
-31.87
-26.13
-17.74
-7.73
2.68
12.41
20.74
27.28
31.90
34.50
35.13
33.99
31.56
28.57
25.76
23.67
22.50
22.05
21.96
21.83
21.44
20.68
19.53
17.96
15.90
13.26
10.04
6.40
2.61
-0.98
-4.12
-6.72
-8.93
-11.11
-13.73
-17.19
-21.72
-27.20
-33.10
-38.52
-42.38
-43.60
-41.47
-35.83
-27.13
-16.30
-4.57
6.83
16.89
24.92
30.57
33.79
34.78
33.95
31.86
29.13
26.39
24.13
22.60
21.90
21.92
22.49
23.37
24.32
25.06
25.33
24.86
23.48
21.17
18.01
14.21
10.00
5.58
1.14
-3.14
-7.15
-10.88
-14.53
-18.43
-22.89
-27.93
-33.09
-37.41
-39.73
-39.06
-34.97
-27.76
-18.34
-7.93
2.32
11.50
19.04
24.63
28.11
29.44
28.77
26.49
23.22
19.70
16.63
14.46
13.37
13.27
13.89
14.93
16.06
16.98
17.41
17.13
16.05
14.20
11.78
8.99
5.99
2.78
-0.65
-4.35
-8.22
-12.15
-16.06
-20.05
-24.33
-29.05
-34.05
-38.66
-41.77
-42.26
-39.36
-33.06
-24.14
-13.94
-3.91
4.80
11.50
16.01
18.38
18.83
17.63
15.09
11.67
7.91
4.33
1.36
-0.78
-2.07
-2.62
-2.66
-2.43
-2.24
-2.38
-3.16
-4.83
-7.51
-11.11
-15.32
-19.74
-23.87
-27.34
-29.88
-31.39
-31.97
-31.88
-31.55
-31.34
-31.43
-31.56
-31.01
-28.79
-23.93
-15.96
-5.11
7.68
21.00
33.41
43.78
51.45
56.16
57.99
57.19
54.17
49.50
43.91
38.16
32.96
28.73
25.60
23.40
21.85
20.68
19.76
19.05
18.48
17.88
16.88
14.99
11.81
7.15
1.20
-5.56
-12.43
-18.74
-23.98
-27.97
-30.86
-33.07
-35.18
-37.66
-40.64
-43.77
-46.24
-46.96
-44.93
-39.60
-31.17
-20.55
-9.21
1.30
9.69
15.25
17.85
17.88
15.97
12.90
9.39
6.17
3.78
2.52
2.30
2.66
3.00
2.88
2.26
1.46
0.93
0.90
1.10
0.94
-0.27
-2.91
-6.85
-11.50
-16.09
-19.99
-22.85
-24.81
-26.30
-27.89
-30.04
-32.86
-35.94
-38.42
-39.19
-37.16
-31.66
-22.50
-10.07
4.85
21.13
37.53
52.77
65.64
75.20
80.93
82.87
81.60
78.11
73.50
68.78
64.58
61.10
58.16
55.41
52.53
49.40
46.11
42.83
39.75
36.84
33.89
30.56
26.57
21.77
16.22
10.13
3.72
-2.83
-9.47
-16.13
-22.78
-29.30
-35.53
-41.25
-46.22
-50.17
-52.69
-53.21
-51.05
-45.65
-36.86
-25.21
-11.90
1.47
13.36
22.67
28.98
32.47
33.59
32.81
30.51
26.98
22.52
17.49
12.23
6.93
1.57
-3.97
-9.83
-16.08
-22.68
-29.59
-36.74
-44.12
-51.61
-58.92
-65.58
-70.93
-74.26
-75.07
-73.17
-68.92
-63.26
-57.52
-53.04
-50.60
-50.06
-50.28
-49.53
-46.13
-39.08
-28.43
-15.18
-0.89
12.80
24.58
33.68
39.81
43.04
43.66
41.94
38.01
31.79
23.00
11.41
-2.83
-18.87
-35.13
-49.57
-60.34
-66.40
-67.99
-66.47
-63.74
-61.51
-60.68
-61.11
-61.91
-61.84
-59.72
-54.74
-46.60
-35.59
-22.56
-8.83
4.22
15.59
25.12
33.50
41.93
51.60
63.07
76.03
89.40
101.69
111.50
117.86
120.35
119.02
114.32
106.92
97.68
87.62
77.86
69.45
63.25
59.66
58.49
58.92
59.71
59.48
57.16
52.24
44.89
35.72
25.52
14.89
4.21
-6.42
-16.88
-26.94
-36.23
-44.42
-51.45
-57.57
-63.30
-69.11
-75.13
-80.96
-85.67
-88.11
-87.24
-82.44
-73.81
-62.21
-49.08
-36.08
-24.65
-15.66
-9.26
-5.13
-2.70
-1.55
-1.46
-2.39
-4.29
-7.01
-10.30
-13.88
-17.60
-21.35
-24.99
-28.17
-30.37
-31.10
-30.15
-27.81
-24.65
-21.30
-17.98
-14.26
-9.29
-2.17
7.39
18.76
30.44
40.56
47.57
50.86
50.88
48.93
46.70
45.65
46.71
50.10
55.42
61.78
68.15
73.63
77.64
80.08
81.29
81.83
82.31
83.13
84.52
86.47
88.82
91.27
93.44
94.97
95.70
95.82
95.95
96.89
99.32
103.32
108.16
112.33
114.00
111.53
104.12
91.85
75.49
56.11
34.77
12.42
-9.96
-31.37
-50.72
-67.13
-80.13
-89.72
-96.28
-100.35
-102.44
-103.06
-102.76
-102.14
-101.77
-102.06
-103.03
-104.34
-105.48
-105.92
-105.22
-103.04
-99.14
-93.39
-85.83
-76.75
-66.67
-56.31
-46.34
-37.21
-29.03
-21.66
-14.84
-8.52
-2.89
1.52
4.22
5.04
4.29
2.71
1.14
0.22
0.21
0.93
2.07
3.57
5.77
9.45
15.44
24.25
35.74
48.91
62.20
73.86
82.42
87.11
87.92
85.61
81.32
76.27
71.44
67.41
64.34
62.04
60.18
58.41
56.53
54.55
52.60
50.81
49.16
47.38
44.94
41.22
35.65
27.99
18.36
7.29
-4.50
-16.24
-27.33
-37.41
-46.28
-53.84
-59.97
-64.41
-66.84
-66.91
-64.42
-59.42
-52.27
-43.65
-34.58
-26.33
-20.35
-17.97
-19.99
-26.37
-35.99
-46.89
-56.80
-63.76
-66.70
-65.50
-60.86
-53.92
-45.85
-37.72
-30.38
-24.48
-20.35
-17.95
-16.80
-16.10
-14.98
-12.75
-9.07
-4.07
1.58
6.83
10.47
11.51
9.60
5.29
-0.11
-5.03
-8.27
-9.49
-9.27
-8.77
-9.06
-10.69
-13.53
-17.11
-20.97
-24.92
-29.04
-33.41
-37.86
-41.90
-44.93
-46.42
-46.25
-44.62
-41.94
-38.65
-35.04
-31.25
-27.34
-23.43
-19.77
-16.65
-14.32
-12.90
-12.30
-12.28
-12.56
-12.90
-13.23
-13.61
-14.21
-15.05
-15.96
-16.45
-15.93
-13.87
-10.09
-4.88
1.13
7.15
12.58
17.07
20.57
23.15
24.90
25.81
25.90
25.23
23.99
22.36
20.55
18.73
17.04
15.62
14.61
14.05
13.80
13.55
12.87
11.43
9.16
6.22
3.00
-0.16
-3.03
-5.66
-8.18
-10.71
-13.31
-15.91
-18.43
-20.81
-23.00
-24.97
-26.56
-27.43
-27.13
-25.24
-21.52
-16.08
-9.44
-2.43
4.03
9.18
12.65
14.44
14.86
14.29
13.09
11.46
9.51
7.41
5.45
3.97
3.25
3.37
4.13
5.13
5.95
6.32
6.19
5.68
4.93
3.98
2.78
1.22
-0.77
-3.12
-5.69
-8.34
-11.11
-14.18
-17.82
-22.26
-27.57
-33.51
-39.60
-45.15
-49.36
-51.52
-51.13
-48.06
-42.56
-35.24
-26.94
-18.54
-10.85
-4.50
0.08
2.68
3.41
2.59
0.79
-1.30
-3.13
-4.33
-4.77
-4.58
-3.94
-2.97
-1.69
0.01
2.24
5.01
8.11
11.10
13.37
14.31
13.57
11.21
7.74
4.00
0.80
-1.34
-2.43
-2.96
-3.81
-5.84
-9.61
-15.10
-21.59
-27.81
-32.29
-33.76
-31.52
-25.59
-16.69
-5.93
5.46
16.41
26.13
34.03
39.76
43.14
44.17
43.15
40.62
37.28
33.80
30.72
28.30
26.55
25.30
24.31
23.31
22.14
20.68
18.93
16.90
14.61
11.93
8.68
4.67
-0.20
-5.74
-11.58
-17.32
-22.74
-27.95
-33.33
-39.29
-46.04
-53.36
-60.61
-66.89
-71.23
-72.81
-71.01
-65.52
-56.35
-43.91
-28.96
-12.54
4.15
19.99
34.07
45.86
55.13
61.94
66.53
69.33
70.83
71.56
71.99
72.43
73.02
73.69
74.26
74.50
74.28
73.54
72.29
70.53
68.20
65.16
61.28
56.50
50.99
45.03
38.94
32.93
27.04
21.15
15.20
9.26
3.51
-1.92
-7.11
-12.39
-18.11
-24.28
-30.30
-35.03
-37.22
-36.04
-31.53
-24.62
-16.80
-9.61
-4.15
-0.91
0.16
-0.61
-2.82
-6.08
-9.95
-13.92
-17.40
-19.83
-20.92
-20.74
-19.71
-18.41
-17.29
-16.44
-15.65
-14.54
-12.92
-10.97
-9.13
-7.91
-7.57
-7.98
-8.79
-9.65
-10.39
-11.11
-11.94
-12.83
-13.48
-13.41
-12.18
-9.60
-5.74
-0.76
5.23
12.35
20.81
30.72
41.88
53.69
65.29
75.73
84.18
89.96
92.53
91.36
86.06
76.59
63.59
48.47
33.15
19.52
8.75
0.96
-4.75
-9.74
-15.16
-21.44
-28.33
-35.12
-41.27
-46.68
-51.74
-57.00
-62.79
-68.92
-74.74
-79.50
-82.71
-84.50
-85.54
-86.71
-88.68
-91.52
-94.68
-97.19
-98.01
-96.30
-91.62
-83.89
-73.41
-60.83
-47.02
-33.08
-20.11
-9.01
-0.37
5.61
9.06
10.36
10.08
8.94
7.79
7.40
8.34
10.79
14.45
18.68
22.69
25.86
27.77
28.36
27.74
26.21
24.06
21.57
18.92
16.15
13.16
9.80
5.84
1.14
-4.37
-10.61
-17.30
-23.96
-29.81
-33.90
-35.24
-33.11
-27.31
-18.30
-7.17
4.65
15.71
24.89
31.55
35.55
37.06
36.48
34.23
30.79
26.68
22.44
18.62
15.68
13.88
13.27
13.65
14.67
15.93
17.05
17.71
17.67
16.78
14.97
12.29
8.87
4.93
0.75
-3.40
-7.33
-11.01
-14.56
-18.24
-22.24
-26.56
-30.88
-34.47
-36.41
-35.78
-32.02
-25.11
-15.65
-4.69
6.52
16.77
25.18
31.18
34.58
35.47
34.21
31.34
27.57
23.63
20.15
17.58
16.10
15.63
15.94
16.75
17.84
19.02
20.10
20.85
20.98
20.19
18.29
15.31
11.54
7.40
3.35
-0.37
-3.69
-6.79
-9.95
-13.43
-17.41
-21.86
-26.53
-30.83
-33.95
-34.95
-33.06
-27.96
-19.95
-9.91
0.95
11.42
20.54
27.70
32.61
35.23
35.62
34.04
30.91
26.87
22.67
19.08
16.64
15.57
15.72
16.73
18.14
19.56
20.75
21.57
21.91
21.60
20.45
18.30
15.13
11.13
6.72
2.39
-1.45
-4.68
-7.42
-10.06
-13.04
-16.66
-20.98
-25.67
-30.11
-33.44
-34.77
-33.38
-28.91
-21.50
-11.80
-0.88
10.01
19.67
27.19
32.10
34.31
34.07
31.87
28.26
23.91
19.45
15.50
12.56
10.91
10.56
11.25
12.60
14.14
15.53
16.49
16.81
16.35
14.99
12.76
9.79
6.33
2.71
-0.85
-4.19
-7.35
-10.46
-13.74
-17.40
-21.65
-26.48
-31.56
-36.20
-39.31
-39.79
-36.82
-30.24
-20.69
-9.46
1.93
12.16
20.36
26.22
29.80
31.28
30.88
28.83
25.54
21.63
17.98
15.39
14.39
15.02
16.76
18.89
20.74
21.97
22.63
22.93
22.99
22.66
21.51
19.15
15.41
10.63
5.49
0.80
-2.90
-5.57
-7.67
-9.93
-12.98
-17.12
-22.11
-27.32
-31.90
-34.94
-35.72
-33.72
-28.78
-21.14
-11.46
-0.79
9.60
18.55
25.19
29.16
30.52
29.65
27.08
23.40
19.24
15.24
11.97
9.88
9.08
9.40
10.39
11.61
12.71
13.57
14.16
14.44
14.25
13.33
11.48
8.67
5.16
1.41
-2.13
-5.15
-7.63
-9.77
-11.88
-14.24
-17.06
-20.41
-24.18
-28.09
-31.55
-33.79
-33.95
-31.41
-26.01
-18.20
-8.90
0.73
9.66
17.15
22.79
26.41
27.98
27.58
25.43
22.03
18.07
14.35
11.54
10.00
9.73
10.41
11.59
12.84
13.95
14.80
15.37
15.60
15.34
14.39
12.63
10.09
7.00
3.73
0.66
-1.94
-3.98
-5.55
-6.85
-8.13
-9.63
-11.53
-13.88
-16.50
-18.91
-20.39
-20.12
-17.37
-11.80
-3.48
7.04
18.79
30.60
41.27
49.74
55.42
58.30
59.02
58.63
58.25
58.62
59.83
61.33
62.19
61.45
58.35
52.60
44.36
34.30
23.51
13.30
4.83
-1.27
-5.22
-8.15
-11.62
-16.99
-24.75
-34.31
-44.28
-53.19
-60.21
-65.46
-69.75
-73.95
-78.44
-82.74
-85.78
-86.31
-83.51
-77.31
-68.50
-58.46
-48.73
-40.61
-34.81
-31.30
-29.46
-28.45
-27.54
-26.32
-24.70
-22.69
-20.18
-17.03
-13.21
-9.12
-5.58
-3.54
-3.63
-5.77
-9.16
-12.61
-15.10
-16.28
-16.48
-16.42
-16.75
-17.63
-18.63
-18.82
-17.28
-13.44
-7.41
0.08
7.86
14.83
20.34
24.38
27.53
30.63
34.40
39.09
44.46
49.83
54.36
57.34
58.41
57.75
56.11
54.61
54.38
56.14
59.92
64.88
69.52
72.04
70.88
65.24
55.52
43.35
31.14
21.39
15.68
14.13
15.42
17.40
18.16
16.75
13.40
9.10
4.80
0.83
-3.22
-8.15
-14.64
-22.90
-32.48
-42.50
-51.87
-59.60
-64.96
-67.54
-67.31
-64.49
-59.50
-52.83
-45.03
-36.68
-28.49
-21.30
-15.90
-12.75
-11.77
-12.25
-13.06
-13.18
-12.04
-9.70
-6.66
-3.57
-0.90
1.07
2.12
1.98
0.36
-2.91
-7.63
-13.18
-18.62
-23.00
-25.56
-25.85
-23.72
-19.31
-13.19
-6.38
-0.39
3.06
2.55
-2.46
-11.33
-22.29
-32.96
-40.92
-44.41
-42.68
-36.16
-26.39
-15.80
-7.27
-3.60
-6.76
-17.14
-33.14
-51.31
-67.31
-77.41
-79.90
-75.81
-68.47
-62.03
-59.57
-61.90
-67.56
-73.83
-78.31
-79.95
-79.11
-76.83
-73.86
-70.17
-65.14
-58.42
-50.44
-42.44
-35.87
-31.67
-29.82
-29.47
-29.28
-28.15
-25.57
-21.68
-16.82
-11.36
-5.48
0.64
6.65
12.34
17.46
21.51
23.87
23.92
21.12
15.39
7.05
-3.10
-13.46
-22.41
-29.12
-33.74
-36.93
-39.44
-41.16
-41.30
-38.45
-30.52
-15.79
6.12
33.95
65.41
97.45
127.39
152.73
168.57
171.93
164.48
151.03
135.91
123.17
111.64
99.54
85.75
69.99
53.29
36.65
21.18
7.66
-3.02
-8.89
-8.29
-2.30
4.65
7.78
4.31
-5.62
-19.57
-33.91
-45.56
-53.88
-58.78
-60.75
-60.08
-57.10
-52.52
-47.55
-43.55
-41.66
-42.37
-44.84
-47.96
-50.34
-50.79
-48.77
-44.35
-37.90
-29.86
-20.56
-10.17
0.83
11.87
22.26
31.19
37.65
40.52
38.40
30.05
15.10
-5.23
-27.63
-47.08
-58.33
-57.80
-45.10
-23.28
2.28
26.17
44.91
58.13
67.90
77.20
88.00
100.32
112.31
121.40
125.58
124.23
118.24
109.43
99.83
90.97
83.52
77.23
71.24
64.38
55.69
44.75
31.81
17.59
2.91
-11.66
-25.82
-39.37
-51.81
-62.31
-69.81
-73.58
-73.53
-70.43
-65.63
-60.50
-55.94
-51.97
-47.79
-42.16
-33.86
-22.24
-7.36
9.87
27.96
45.03
59.28
69.25
74.19
74.17
70.00
62.88
54.01
44.28
34.14
23.90
13.90
4.82
-2.55
-7.63
-10.53
-12.07
-13.46
-15.58
-18.42
-20.80
-20.76
-16.25
-5.83
10.79
32.73
58.25
85.24
111.73
136.12
157.36
174.83
188.25
197.55
202.75
203.82
200.60
192.84
180.33
163.25
142.46
119.59
96.80
76.13
58.87
45.26
34.53
25.48
17.13
9.10
1.56
-5.20
-11.23
-17.11
-23.78
-32.16
-42.76
-55.49
-69.74
-84.69
-99.63
-114.22
-128.55
-142.86
-157.22
-171.25
-184.05
-194.60
-202.14
-206.53
-208.29
-208.25
-207.06
-204.78
-200.84
-194.40
-184.85
-172.29
-157.60
-142.10
-127.01
-113.00
-99.97
-87.22
-73.89
-59.26
-42.99
-25.00
-5.30
16.10
39.02
62.92
86.70
108.97
128.36
144.07
156.08
165.05
171.91
177.40
181.79
184.85
186.12
185.19
181.92
176.44
168.98
159.71
148.71
136.07
122.09
107.34
92.71
79.07
67.10
56.94
48.26
40.39
32.71
24.81
16.55
7.97
-0.90
-10.19
-20.08
-30.68
-41.83
-53.11
-63.91
-73.79
-82.55
-90.26
-97.09
-103.02
-107.69
-110.54
-111.04
-108.98
-104.59
-98.48
-91.33
-83.68
-75.76
-67.64
-59.36
-51.13
-43.38
-36.72
-31.66
-28.46
-26.96
-26.64
-26.78
-26.67
-25.90
-24.51
-22.90
-21.66
-21.27
-21.89
-23.33
-25.08
-26.53
-27.20
-26.91
-25.81
-24.33
-23.00
-22.27
-22.40
-23.39
-25.06
-27.17
-29.47
-31.84
-34.21
-36.62
-39.09
-41.61
-44.15
-46.59
-48.78
-50.44
-51.31
-51.16
-49.85
-47.43
-44.13
-40.30
-36.34
-32.64
-29.48
-27.12
-25.72
-25.40
-26.20
-28.04
-30.67
-33.76
-36.94
-39.95
-42.62
-44.90
-46.70
-47.84
-48.05
-47.08
-44.87
-41.63
-37.85
-34.07
-30.62
-27.46
-24.21
-20.37
-15.58
-9.81
-3.33
3.50
10.44
17.50
24.82
32.50
40.36
47.97
54.70
60.00
63.54
65.29
65.44
64.25
61.90
58.46
54.02
48.78
43.16
37.74
33.05
29.41
26.72
24.60
22.50
19.92
16.66
12.77
8.58
4.50
0.85
-2.21
-4.78
-7.12
-9.54
-12.22
-15.12
-17.92
-20.24
-21.80
-22.48
-22.37
-21.65
-20.54
-19.37
-18.60
-18.81
-20.43
-23.40
-26.97
-29.76
-30.10
-26.59
-18.53
-6.03
10.16
28.97
49.21
69.59
88.62
104.61
115.97
121.57
121.08
115.16
105.12
92.56
78.86
64.86
50.97
37.33
24.11
11.59
0.16
-9.88
-18.36
-25.26
-30.70
-34.81
-37.82
-40.01
-41.69
-43.12
-44.50
-45.89
-47.29
-48.70
-50.24
-52.06
-54.21
-56.51
-58.48
-59.49
-58.99
-56.78
-53.13
-48.59
-43.73
-38.83
-33.82
-28.47
-22.67
-16.69
-11.22
-7.00
-4.41
-3.24
-2.65
-1.65
0.59
4.33
9.29
14.82
20.27
25.18
29.39
32.99
36.20
39.29
42.41
45.48
48.21
50.14
50.93
50.53
49.22
47.50
45.81
44.18
42.22
39.26
34.79
28.68
21.34
13.46
5.77
-1.26
-7.44
-12.69
-16.87
-19.85
-21.63
-22.50
-23.10
-24.23
-26.39
-29.65
-33.61
-37.74
-41.82
-46.15
-51.36
-58.04
-66.26
-75.35
-84.18
-91.67
-97.25
-100.99
-103.39
-104.98
-105.86
-105.65
-103.54
-98.59
-90.03
-77.60
-61.74
-43.53
-24.50
-6.14
10.37
24.41
35.78
44.46
50.47
53.79
54.72
54.08
53.22
53.71
56.69
62.36
69.82
77.59
84.28
89.22
92.69
95.60
98.90
102.93
107.35
111.40
114.44
116.34
117.51
118.65
120.21
122.16
124.12
125.66
126.71
127.61
128.91
130.87
133.09
134.49
133.72
129.77
122.40
112.36
101.10
90.22
80.86
73.45
67.51
61.87
54.98
45.28
31.77
14.49
-5.26
-25.11
-42.35
-54.79
-61.47
-62.76
-59.89
-54.12
-46.28
-36.74
-25.92
-14.79
-5.01
1.59
3.78
1.44
-4.41
-12.24
-20.67
-28.98
-37.01
-44.80
-52.21
-58.71
-63.84
-67.49
-70.28
-73.32
-77.63
-83.46
-89.91
-95.34
-98.04
-97.16
-93.13
-87.45
-81.95
-78.08
-76.49
-77.36
-80.49
-85.52
-91.69
-97.54
-100.89
-99.49
-92.12
-79.46
-64.04
-49.19
-37.64
-30.40
-26.75
-24.96
-23.46
-21.67
-19.89
-18.78
-18.66
-19.11
-19.23
-18.06
-14.94
-10.18
-4.45
1.50
7.42
13.81
21.60
31.52
43.51
56.06
67.02
74.44
77.61
77.48
76.04
75.14
75.51
76.18
75.47
72.10
66.21
59.36
53.72
50.75
50.51
51.33
51.10
48.40
43.34
37.41
32.46
29.36
27.47
24.65
18.82
9.24
-2.81
-14.50
-23.00
-26.86
-26.55
-24.28
-22.51
-22.64
-24.45
-26.43
-26.85
-24.79
-20.47
-15.35
-11.23
-9.58
-11.13
-15.80
-22.97
-31.73
-40.95
-49.55
-56.55
-61.38
-63.96
-64.86
-64.84
-64.45
-63.62
-61.74
-58.07
-52.30
-44.87
-36.68
-28.73
-21.55
-15.14
-9.33
-4.18
-0.26
1.60
0.85
-2.22
-6.41
-9.94
-11.24
-9.55
-5.19
0.62
6.37
10.77
13.21
13.76
12.86
10.99
8.45
5.25
1.33
-3.33
-8.51
-13.82
-18.81
-23.10
-26.45
-28.75
-29.88
-29.75
-28.30
-25.51
-21.53
-16.66
-11.20
-5.44
0.49
6.63
13.05
19.84
26.88
33.75
39.78
44.15
46.13
45.27
41.67
36.07
29.65
23.74
19.42
17.11
16.54
16.86
17.08
16.52
15.08
13.24
11.67
10.83
10.69
10.71
10.11
8.27
4.75
-0.67
-8.24
-18.30
-30.96
-45.77
-61.31
-75.32
-85.30
-89.37
-86.86
-78.54
-66.11
-51.52
-36.34
-21.41
-7.09
6.37
18.52
28.65
36.05
40.51
42.59
43.66
45.28
48.53
53.32
58.43
62.09
62.91
60.69
56.33
51.18
46.05
40.54
33.16
22.10
6.30
-13.79
-35.98
-56.90
-72.67
-79.82
-76.25
-61.97
-39.47
-12.98
12.94
35.12
52.88
67.80
82.32
98.03
114.70
130.39
142.55
148.96
148.02
138.39
118.55
87.14
44.07
-8.06
-63.64
-115.33
-156.47
-183.49
-196.84
-199.88
-196.49
-188.80
-176.45
-157.74
-131.58
-98.80
-61.92
-23.27
16.78
60.31
109.98
166.13
224.50
276.37
311.35
321.43
304.01
262.22
202.78
132.86
58.09
-17.33
-89.08
-151.32
-197.04
-220.20
-218.49
-195.03
-157.61
-115.98
-78.52
-49.94
-30.94
-19.55
-12.92
-8.84
-6.11
-4.26
-3.12
-2.55
-2.43
-2.72
-3.63
-5.57
-9.04
-14.40
-21.60
-29.99
-38.34
-45.14
-49.21
-50.33
-49.46
-48.56
-49.88
-55.06
-64.43
-76.77
-89.60
-99.91
-104.99
-103.21
-94.50
-80.39
-63.85
-48.82
-39.64
-39.63
-49.89
-68.66
-91.65
-113.08
-127.26
-130.08
-120.04
-98.53
-68.54
-33.28
4.94
44.80
85.52
126.33
165.96
202.64
233.73
257.11
271.88
278.67
279.35
276.74
274.27
275.27
281.66
291.00
298.74
300.30
292.92
276.36
253.13
227.85
205.60
189.41
175.43
158.57
136.20
109.48
81.05
53.01
26.06
-0.19
-27.22
-62.08
-108.72
-164.63
-222.39
-275.43
-321.29
-361.16
-397.77
-434.45
-480.97
-542.77
-616.82
-693.22
-762.53
-819.88
-865.15
-900.02
-874.87
-762.92
-578.85
-370.17
-180.14
-30.34
74.25
135.93
169.16
184.41
182.00
162.70
132.00
100.12
73.92
58.72
56.97
68.77
90.37
110.10
117.75
110.18
92.10
71.52
55.92
50.08
55.95
71.84
90.67
105.72
113.31
112.87
104.62
89.09
67.79
44.51
24.22
10.35
5.05
8.87
20.68
37.75
56.94
75.81
93.31
109.09
122.53
133.41
142.51
151.72
163.14
178.02
195.55
212.81
225.47
229.49
222.67
205.56
181.21
154.08
128.56
107.92
93.85
86.66
85.83
90.40
99.02
109.93
121.02
130.00
135.06
135.37
131.42
124.72
116.94
108.86
99.94
88.79
74.11
55.85
35.43
15.31
-2.18
-15.79
-25.53
-32.11
-36.07
-37.25
-34.95
-28.66
-18.85
-7.33
3.17
9.90
11.14
6.78
-1.64
-11.43
-19.62
-23.80
-22.67
-16.11
-5.00
9.20
24.80
40.13
53.66
64.00
70.12
71.44
68.07
60.86
51.26
40.92
31.29
23.24
17.05
12.58
9.63
8.17
8.42
10.69
15.09
21.31
28.58
35.85
42.07
46.43
48.46
48.02
45.14
39.96
32.71
23.76
13.67
3.14
-7.13
-16.69
-25.39
-33.39
-40.84
-47.65
-53.34
-57.10
-58.09
-55.87
-50.64
-43.20
-34.70
-26.25
-18.64
-12.22
-7.09
-3.27
-0.82
0.13
-0.38
-2.12
-4.55
-7.04
-9.10
-10.48
-11.30
-11.85
-12.46
-13.28
-14.26
-15.19
-15.83
-16.07
-15.98
-15.75
-15.52
-15.27
-14.86
-14.10
-12.98
-11.79
-11.19
-11.97
-14.72
-19.49
-25.67
-32.05
-37.25
-40.09
-39.95
-36.82
-31.14
-23.56
-14.71
-5.12
4.64
13.98
22.16
28.48
32.45
33.94
33.21
30.82
27.45
23.74
20.19
17.15
14.73
12.92
11.54
10.34
9.08
7.63
5.90
3.88
1.51
-1.27
-4.60
-8.54
-13.03
-17.85
-22.74
-27.48
-32.11
-36.91
-42.25
-48.39
-55.18
-61.93
-67.59
-70.98
-71.22
-67.92
-61.25
-51.81
-40.43
-27.99
-15.32
-3.24
7.51
16.28
22.72
26.77
28.76
29.26
28.91
28.30
27.81
27.66
27.95
28.70
29.88
31.43
33.24
35.09
36.77
38.02
38.65
38.49
37.38
35.21
31.88
27.46
22.14
16.26
10.21
4.30
-1.31
-6.64
-11.79
-16.88
-21.96
-26.99
-31.79
-36.07
-39.39
-41.25
-41.11
-38.58
-33.60
-26.49
-17.96
-8.91
-0.26
7.33
13.46
17.98
20.91
22.28
22.22
20.93
18.83
16.54
14.77
14.06
14.61
16.20
18.28
20.22
21.53
22.01
21.70
20.72
19.18
17.03
14.17
10.52
6.11
1.12
-4.11
-9.27
-14.06
-18.30
-21.97
-25.14
-28.00
-30.83
-34.00
-37.83
-42.49
-47.77
-52.99
-57.07
-58.78
-57.13
-51.71
-42.88
-31.64
-19.32
-7.19
3.78
13.07
20.51
26.17
30.14
32.55
33.56
33.40
32.43
31.12
29.95
29.28
29.26
29.77
30.50
31.07
31.16
30.62
29.47
27.85
25.95
23.91
21.77
19.45
16.79
13.67
10.06
6.07
1.94
-2.10
-5.90
-9.41
-12.68
-15.83
-19.01
-22.41
-26.23
-30.65
-35.62
-40.73
-45.18
-47.91
-47.88
-44.49
-37.72
-28.22
-17.06
-5.49
5.32
14.49
21.46
26.02
28.24
28.45
27.13
24.83
22.10
19.49
17.43
16.20
15.83
16.14
16.75
17.27
17.44
17.16
16.49
15.53
14.32
12.82
10.94
8.67
5.98
2.91
-0.47
-4.03
-7.60
-10.91
-13.79
-16.21
-18.38
-20.71
-23.63
-27.42
-32.09
-37.33
-42.49
-46.80
-49.40
-49.49
-46.53
-40.37
-31.37
-20.42
-8.71
2.55
12.35
20.08
25.48
28.57
29.52
28.62
26.29
23.12
19.84
17.19
15.72
15.58
16.52
18.00
19.37
20.12
20.05
19.23
17.93
16.41
14.77
12.97
10.80
8.12
4.86
1.19
-2.65
-6.39
-9.82
-12.89
-15.66
-18.30
-20.99
-24.00
-27.60
-31.99
-37.18
-42.76
-47.88
-51.35
-52.01
-49.05
-42.43
-32.81
-21.39
-9.52
1.61
11.22
18.88
24.42
27.81
29.10
28.46
26.31
23.25
20.08
17.49
16.01
15.76
16.56
18.00
19.62
21.10
22.21
22.89
23.10
22.81
21.96
20.54
18.57
16.09
13.22
10.03
6.64
3.17
-0.26
-3.54
-6.61
-9.49
-12.21
-14.84
-17.51
-20.42
-23.84
-28.04
-33.04
-38.47
-43.51
-46.96
-47.65
-44.85
-38.52
-29.35
-18.56
-7.43
2.96
11.91
19.07
24.31
27.57
28.90
28.44
26.56
23.82
20.88
18.38
16.78
16.24
16.64
17.66
18.87
19.93
20.65
20.99
21.04
20.83
20.30
19.25
17.42
14.66
11.05
6.89
2.61
-1.39
-4.91
-7.95
-10.65
-13.16
-15.55
-17.79
-19.87
-21.90
-24.16
-27.02
-30.73
-35.18
-39.75
-43.41
-44.98
-43.57
-38.90
-31.39
-22.05
-12.10
-2.63
5.63
12.32
17.29
20.48
21.84
21.39
19.41
16.42
13.19
10.49
8.81
8.26
8.57
9.23
9.79
10.00
9.92
9.69
9.50
9.35
9.08
8.42
7.12
5.04
2.25
-0.98
-4.24
-7.16
-9.52
-11.31
-12.80
-14.37
-16.41
-19.16
-22.69
-26.81
-31.14
-35.09
-37.98
-39.04
-37.65
-33.47
-26.63
-17.72
-7.70
2.31
11.34
18.70
24.03
27.28
28.55
28.02
25.94
22.73
18.99
15.47
12.88
11.65
11.80
12.89
14.30
15.45
16.05
16.11
15.86
15.40
14.67
13.41
11.36
8.42
4.77
0.79
-3.08
-6.60
-9.81
-12.93
-16.28
-20.11
-24.47
-29.24
-34.20
-39.01
-43.20
-46.16
-47.14
-45.44
-40.65
-32.92
-22.98
-12.04
-1.44
7.71
14.77
19.60
22.39
23.41
22.94
21.19
18.45
15.18
12.01
9.64
8.55
8.85
10.23
12.14
13.98
15.39
16.26
16.67
16.70
16.29
15.25
13.36
10.51
6.86
2.75
-1.37
-5.11
-8.28
-10.92
-13.28
-15.75
-18.70
-22.35
-26.76
-31.67
-36.57
-40.68
-43.11
-43.07
-40.07
-34.10
-25.72
-15.84
-5.54
4.25
12.78
19.56
24.27
26.73
26.96
25.25
22.18
18.52
15.10
12.56
11.19
10.97
11.60
12.68
13.83
14.78
15.44
15.81
15.89
15.67
15.00
13.71
11.67
8.86
5.46
1.75
-1.90
-5.24
-8.16
-10.70
-13.04
-15.41
-18.07
-21.21
-24.95
-29.27
-33.91
-38.29
-41.60
-42.86
-41.27
-36.44
-28.62
-18.69
-7.90
2.49
11.47
18.43
23.15
25.62
25.95
24.36
21.29
17.36
13.38
10.11
8.07
7.43
7.96
9.22
10.70
12.01
12.97
13.59
13.98
14.16
14.05
13.38
11.87
9.40
6.09
2.34
-1.34
-4.59
-7.28
-9.58
-11.85
-14.45
-17.66
-21.60
-26.16
-31.00
-35.46
-38.64
-39.61
-37.66
-32.60
-24.81
-15.12
-4.61
5.70
14.97
22.54
27.88
30.61
30.63
28.21
24.07
19.19
14.61
11.07
8.93
8.13
8.36
9.32
10.72
12.35
13.98
15.31
15.97
15.67
14.29
11.92
8.80
5.22
1.47
-2.29
-5.90
-9.27
-12.34
-15.17
-18.01
-21.25
-25.20
-29.89
-34.82
-39.02
-41.26
-40.53
-36.39
-29.15
-19.73
-9.36
0.83
10.01
17.65
23.48
27.29
28.97
28.55
26.29
22.71
18.57
14.66
11.65
9.88
9.35
9.74
10.58
11.42
11.95
12.05
11.72
10.97
9.78
8.07
5.76
2.88
-0.40
-3.75
-6.79
-9.19
-10.83
-11.91
-12.88
-14.30
-16.69
-20.24
-24.73
-29.52
-33.64
-36.10
-36.08
-33.16
-27.41
-19.34
-9.85
0.01
9.17
16.76
22.17
25.17
25.87
24.56
21.75
17.99
13.89
10.07
7.10
5.40
5.11
6.02
7.58
9.16
10.28
10.79
10.85
10.76
10.70
10.58
10.06
8.74
6.36
3.03
-0.88
-4.83
-8.34
-11.17
-13.31
-15.03
-16.72
-18.79
-21.58
-25.15
-29.23
-33.14
-35.97
-36.72
-34.65
-29.51
-21.64
-11.87
-1.32
8.87
17.74
24.62
29.19
31.36
31.33
29.50
26.48
23.01
19.85
17.67
16.82
17.33
18.88
20.91
22.89
24.36
25.07
24.98
24.18
22.80
20.97
18.78
16.26
13.39
10.22
6.84
3.47
0.40
-2.13
-4.04
-5.54
-7.11
-9.25
-12.37
-16.45
-21.09
-25.55
-28.95
-30.54
-29.84
-26.74
-21.46
-14.47
-6.42
1.99
10.03
17.00
22.27
25.44
26.32
25.10
22.26
18.52
14.67
11.42
9.23
8.29
8.47
9.47
10.83
12.16
13.11
13.55
13.41
12.77
11.66
10.10
8.03
5.41
2.31
-1.08
-4.46
-7.54
-10.14
-12.34
-14.36
-16.55
-19.19
-22.40
-26.16
-30.27
-34.37
-37.93
-40.23
-40.52
-38.20
-33.06
-25.45
-16.22
-6.48
2.69
10.46
16.37
20.22
22.04
21.98
20.36
17.65
14.48
11.54
9.34
8.18
8.07
8.76
9.96
11.37
12.79
14.03
14.88
15.08
14.41
12.75
10.18
6.98
3.53
0.20
-2.79
-5.43
-7.81
-10.12
-12.52
-15.18
-18.25
-21.81
-25.77
-29.74
-33.04
-34.75
-34.02
-30.43
-24.19
-16.10
-7.35
0.93
7.97
13.45
17.37
19.80
20.69
19.96
17.66
14.14
10.10
6.40
3.81
2.69
2.99
4.27
5.98
7.59
8.73
9.15
8.70
7.35
5.18
2.40
-0.70
-3.79
-6.67
-9.31
-11.84
-14.53
-17.67
-21.46
-25.93
-30.80
-35.49
-39.16
-40.88
-39.91
-35.91
-29.13
-20.34
-10.67
-1.24
7.02
13.58
18.24
21.00
21.97
21.31
19.30
16.38
13.14
10.20
8.01
6.79
6.45
6.76
7.41
8.25
9.13
9.98
10.60
10.68
9.85
7.89
4.82
0.96
-3.17
-7.09
-10.52
-13.56
-16.58
-20.03
-24.19
-28.94
-33.78
-37.91
-40.48
-40.75
-38.33
-33.19
-25.68
-16.51
-6.66
2.84
11.08
17.43
21.66
23.88
24.39
23.62
21.86
19.45
16.71
14.06
11.97
10.81
10.69
11.42
12.53
13.51
13.97
13.83
13.22
12.35
11.37
10.16
8.53
6.26
3.33
-0.04
-3.51
-6.74
-9.61
-12.21
-14.87
-17.96
-21.68
-25.94
-30.20
-33.54
-34.93
-33.48
-28.76
-21.02
-11.13
-0.34
10.07
19.13
26.35
31.66
35.27
37.48
38.53
38.60
37.84
36.47
34.72
32.86
31.05
29.36
27.70
25.88
23.71
21.10
18.09
14.85
11.60
8.49
5.59
2.80
-0.02
-2.99
-6.11
-9.29
-12.40
-15.36
-18.22
-21.15
-24.39
-28.14
-32.46
-37.21
-41.99
-46.13
-48.88
-49.54
-47.69
-43.28
-36.73
-28.73
-20.11
-11.60
-3.78
3.01
8.55
12.75
15.59
17.17
17.71
17.56
17.10
16.69
16.55
16.81
17.40
18.20
19.05
19.79
20.32
20.56
20.42
19.83
18.73
17.09
14.96
12.50
9.90
7.38
5.11
3.17
1.50
-0.09
-1.87
-4.12
-7.01
-10.52
-14.30
-17.78
-20.23
-21.01
-19.74
-16.44
-11.53
-5.70
0.31
5.85
10.51
14.11
16.61
18.02
18.33
17.54
15.75
13.24
10.46
7.89
5.92
4.68
4.07
3.86
3.81
3.81
3.84
3.83
3.64
3.05
1.86
-0.01
-2.46
-5.31
-8.36
-11.46
-14.56
-17.61
-20.67
-23.84
-27.29
-31.14
-35.31
-39.39
-42.63
-44.10
-43.00
-39.00
-32.41
-24.00
-14.84
-5.91
2.02
8.45
13.06
15.69
16.31
15.09
12.46
9.04
5.57
2.69
0.86
0.20
0.57
1.67
3.14
4.65
5.94
6.80
7.02
6.49
5.15
3.05
0.40
-2.56
-5.58
-8.55
-11.48
-14.53
-17.90
-21.78
-26.21
-31.01
-35.70
-39.55
-41.65
-41.24
-37.85
-31.58
-23.04
-13.17
-3.03
6.45
14.54
20.73
24.67
26.27
25.71
23.47
20.31
17.03
14.26
12.38
11.42
11.20
11.48
12.05
12.79
13.60
14.32
14.73
14.55
13.55
11.64
8.88
5.49
1.77
-1.97
-5.46
-8.52
-11.04
-13.12
-14.98
-17.02
-19.63
-23.00
-26.91
-30.67
-33.26
-33.68
-31.22
-25.79
-17.91
-8.57
1.13
10.20
17.97
24.08
28.35
30.72
31.21
29.98
27.39
24.03
20.59
17.73
15.88
15.13
15.32
16.12
17.26
18.53
19.81
20.97
21.75
21.82
20.88
18.79
15.68
11.96
8.17
4.76
1.91
-0.53
-2.97
-5.86
-9.57
-14.23
-19.72
-25.68
-31.54
-36.57
-39.90
-40.75
-38.63
-33.48
-25.84
-16.64
-7.07
1.78
9.11
14.54
18.02
19.72
19.90
18.84
16.84
14.26
11.53
9.12
7.49
6.92
7.46
8.92
10.89
12.95
14.71
15.96
16.65
16.86
16.76
16.51
16.25
16.02
15.81
15.57
15.21
14.63
13.70
12.25
10.13
7.29
3.80
-0.01
-3.65
-6.52
-8.13
-8.21
-6.82
-4.23
-0.87
2.83
6.49
9.80
12.50
14.42
15.48
15.78
15.48
14.86
14.13
13.46
12.95
12.65
12.58
12.69
12.92
13.10
13.09
12.72
11.90
10.58
8.78
6.53
3.93
1.14
-1.59
-4.01
-5.93
-7.31
-8.32
-9.32
-10.72
-12.85
-15.79
-19.23
-22.53
-24.81
-25.29
-23.47
-19.37
-13.46
-6.53
0.58
7.12
12.60
16.73
19.34
20.38
19.90
18.12
15.39
12.23
9.13
6.51
4.60
3.43
2.91
2.89
3.24
3.90
4.78
5.82
6.83
7.56
7.73
7.13
5.67
3.46
0.74
-2.17
-5.01
-7.64
-10.07
-12.46
-15.08
-18.13
-21.68
-25.57
-29.36
-32.49
-34.37
-34.62
-33.13
-30.04
-25.71
-20.46
-14.70
-8.77
-3.09
1.90
5.81
8.39
9.64
9.74
8.99
7.73
6.27
4.92
3.96
3.60
3.95
4.90
6.20
7.56
8.73
9.63
10.29
10.77
11.06
11.00
10.44
9.28
7.59
5.59
3.56
1.68
0.02
-1.52
-3.13
-5.04
-7.47
-10.57
-14.34
-18.55
-22.70
-26.10
-28.00
-27.85
-25.48
-21.15
-15.42
-9.00
-2.55
3.42
8.54
12.54
15.28
16.75
17.07
16.54
15.52
14.37
13.32
12.49
11.91
11.58
11.55
11.82
12.35
12.93
13.32
13.25
12.61
11.42
9.84
8.01
6.02
3.84
1.42
-1.20
-3.88
-6.35
-8.39
-9.95
-11.22
-12.60
-14.50
-17.15
-20.45
-23.93
-26.92
-28.76
-28.99
-27.47
-24.37
-20.01
-14.81
-9.18
-3.53
1.71
6.12
9.37
11.28
11.95
11.72
11.00
10.18
9.52
9.09
8.88
8.85
8.98
9.29
9.73
10.20
10.55
10.64
10.42
9.86
8.98
7.74
6.10
4.05
1.69
-0.75
-2.99
-4.79
-6.12
-7.12
-8.09
-9.37
-11.18
-13.59
-16.42
-19.27
-21.61
-22.86
-22.54
-20.41
-16.58
-11.44
-5.59
0.34
5.81
10.40
13.85
16.00
16.80
16.39
15.07
13.28
11.50
10.15
9.45
9.37
9.72
10.21
10.55
10.59
10.32
9.83
9.30
8.83
8.42
7.90
7.03
5.64
3.66
1.24
-1.33
-3.78
-5.94
-7.85
-9.68
-11.63
-13.85
-16.45
-19.46
-22.87
-26.57
-30.22
-33.31
-35.15
-35.17
-33.11
-29.07
-23.52
-17.06
-10.27
-3.61
2.52
7.75
11.72
14.18
15.07
14.63
13.30
11.57
9.88
8.49
7.55
7.12
7.26
8.03
9.39
11.13
12.90
14.22
14.65
13.99
12.32
9.98
7.41
4.97
2.78
0.74
-1.34
-3.63
-6.18
-8.90
-11.66
-14.34
-16.90
-19.34
-21.66
-23.84
-25.87
-27.71
-29.28
-30.40
-30.75
-29.95
-27.60
-23.51
-17.76
-10.76
-3.16
4.25
10.79
15.98
19.57
21.53
21.99
21.15
19.34
17.03
14.71
12.90
11.94
11.96
12.80
14.17
15.70
17.11
18.22
18.88
18.97
18.38
17.08
15.16
12.85
10.39
7.95
5.57
3.18
0.63
-2.10
-4.95
-7.75
-10.38
-12.85
-15.36
-18.17
-21.51
-25.38
-29.52
-33.37
-36.28
-37.62
-36.93
-34.04
-29.06
-22.33
-14.45
-6.08
1.98
9.03
14.50
18.06
19.65
19.45
17.79
15.13
12.00
8.94
6.42
4.80
4.21
4.56
5.60
6.96
8.30
9.35
9.87
9.67
8.64
6.77
4.17
1.07
-2.26
-5.60
-8.82
-11.80
-14.45
-16.69
-18.40
-19.49
-19.87
-19.44
-18.14
-15.94
-12.86
-9.08
-4.76
-0.01
5.20
11.05
17.68
25.11
33.06
41.10
48.70
55.41
60.89
64.89
67.21
67.68
66.26
63.12
58.66
53.45
48.10
43.05
38.49
34.36
30.45
26.56
22.63
18.77
15.15
11.88
8.88
5.82
2.30
-1.94
-6.92
-12.35
-17.79
-22.80
-27.11
-30.62
-33.43
-35.66
-37.47
-39.01
-40.41
-41.73
-42.88
-43.64
-43.63
-42.45
-39.88
-35.93
-30.85
-25.01
-18.84
-12.70
-6.92
-1.78
2.41
5.39
7.07
7.54
7.10
6.19
5.23
4.50
4.14
4.10
4.28
4.58
4.92
5.25
5.51
5.61
5.41
4.71
3.31
1.02
-2.24
-6.42
-11.22
-16.19
-20.86
-24.89
-28.17
-30.91
-33.47
-36.27
-39.59
-43.54
-47.91
-52.27
-55.94
-58.13
-58.07
-55.19
-49.36
-40.97
-30.89
-20.25
-10.17
-1.61
4.85
8.90
10.55
10.12
8.15
5.46
2.97
1.48
1.50
3.09
5.95
9.54
13.35
17.04
20.45
23.56
26.29
28.49
29.94
30.50
30.14
29.02
27.45
25.72
24.02
22.34
20.55
18.52
16.15
13.44
10.45
7.18
3.61
-0.21
-4.03
-7.37
-9.58
-10.07
-8.56
-5.17
-0.43
4.95
10.30
15.09
18.99
21.79
23.38
23.71
22.85
21.04
18.71
16.35
14.42
13.19
12.66
12.59
12.63
12.46
11.92
11.06
9.98
8.78
7.46
5.91
4.06
1.87
-0.50
-2.83
-4.87
-6.47
-7.62
-8.45
-9.21
-10.16
-11.44
-13.06
-14.81
-16.28
-17.03
-16.62
-14.83
-11.66
-7.32
-2.25
3.05
8.05
12.30
15.50
17.45
18.06
17.34
15.42
12.55
9.11
5.61
2.57
0.38
-0.79
-0.97
-0.45
0.46
1.44
2.22
2.62
2.50
1.78
0.54
-1.09
-2.87
-4.64
-6.34
-8.01
-9.79
-11.72
-13.80
-15.86
-17.67
-18.99
-19.64
-19.46
-18.39
-16.38
-13.43
-9.64
-5.23
-0.64
3.58
6.88
8.85
9.41
8.76
7.31
5.43
3.34
1.14
-1.09
-3.10
-4.50
-4.89
-4.13
-2.52
-0.71
0.58
0.93
0.31
-0.97
-2.47
-3.93
-5.29
-6.64
-8.12
-9.80
-11.66
-13.64
-15.61
-17.35
-18.47
-18.51
-17.04
-13.89
-9.28
-3.76
1.92
7.14
11.50
14.84
17.17
18.49
18.79
18.03
16.32
13.97
11.45
9.26
7.80
7.19
7.25
7.65
7.99
7.96
7.39
6.29
4.76
2.95
1.01
-1.00
-3.09
-5.38
-8.00
-11.09
-14.69
-18.65
-22.69
-26.34
-29.02
-30.15
-29.30
-26.31
-21.41
-15.18
-8.43
-1.98
3.54
7.75
10.55
11.98
12.23
11.50
10.07
8.22
6.29
4.52
3.14
2.23
1.82
1.82
2.04
2.24
2.17
1.67
0.71
-0.61
-2.10
-3.57
-4.89
-6.01
-6.98
-7.93
-9.12
-10.96
-13.85
-18.04
-23.44
-29.48
-35.22
-39.49
-41.21
-39.67
-34.73
-26.84
-16.98
-6.40
3.67
12.29
18.86
23.18
25.30
25.46
23.99
21.36
18.12
14.93
12.37
10.79
10.26
10.54
11.25
11.95
12.34
12.27
11.74
10.79
9.46
7.75
5.59
2.97
-0.07
-3.33
-6.58
-9.57
-12.21
-14.59
-16.97
-19.74
-23.19
-27.37
-31.91
-36.02
-38.63
-38.70
-35.57
-29.22
-20.35
-10.08
0.35
9.94
18.03
24.28
28.49
30.52
30.36
28.20
24.63
20.53
16.90
14.56
13.90
14.74
16.54
18.58
20.31
21.47
22.12
22.44
22.57
22.45
21.90
20.64
18.52
15.59
12.08
8.36
4.73
1.39
-1.59
-4.25
-6.70
-9.06
-11.55
-14.38
-17.69
-21.39
-24.96
-27.50
-28.00
-25.64
-20.12
-11.82
-1.73
8.90
18.83
27.11
33.22
36.97
38.46
37.93
35.72
32.27
28.09
23.82
20.11
17.50
16.29
16.37
17.35
18.65
19.81
20.65
21.18
21.56
21.79
21.71
21.01
19.48
17.06
13.98
10.61
7.29
4.26
1.57
-0.86
-3.11
-5.32
-7.60
-10.09
-12.99
-16.40
-20.25
-24.16
-27.48
-29.38
-29.08
-26.16
-20.63
-13.02
-4.16
4.99
13.59
21.02
26.83
30.72
32.55
32.30
30.18
26.64
22.38
18.14
14.60
12.16
10.86
10.50
10.68
11.04
11.33
11.48
11.51
11.47
11.37
11.10
10.48
9.26
7.29
4.56
1.27
-2.25
-5.65
-8.68
-11.27
-13.49
-15.52
-17.53
-19.68
-22.10
-24.92
-28.14
-31.52
-34.50
-36.19
-35.67
-32.29
-26.01
-17.39
-7.48
2.61
11.92
19.87
26.10
30.46
32.80
33.09
31.44
28.25
24.17
19.99
16.44
13.98
12.72
12.44
12.78
13.33
13.81
14.10
14.18
14.07
13.70
12.89
11.47
9.34
6.56
3.35
0.04
-3.13
-6.05
-8.75
-11.34
-13.91
-16.52
-19.19
-21.95
-24.88
-27.99
-31.19
-34.18
-36.47
-37.48
-36.72
-33.96
-29.28
-23.04
-15.80
-8.21
-0.92
5.46
10.44
13.64
14.94
14.41
12.36
9.28
5.72
2.25
-0.62
-2.53
-3.29
-2.93
-1.68
0.07
1.91
3.49
4.61
5.16
5.10
4.39
2.99
0.90
-1.74
-4.67
-7.54
-10.05
-12.09
-13.74
-15.28
-17.03
-19.25
-22.03
-25.27
-28.62
-31.60
-33.60
-34.01
-32.38
-28.53
-22.65
-15.35
-7.45
0.18
6.80
11.99
15.60
17.60
18.06
17.02
14.61
11.13
7.12
3.32
0.41
-1.15
-1.33
-0.45
0.98
2.46
3.68
4.53
5.00
5.09
4.70
3.68
1.92
-0.55
-3.59
-6.93
-10.30
-13.51
-16.50
-19.27
-21.90
-24.51
-27.29
-30.43
-34.07
-38.07
-41.96
-44.95
-46.15
-44.85
-40.80
-34.30
-26.07
-17.04
-8.05
0.20
7.21
12.58
16.03
17.42
16.88
14.79
11.76
8.49
5.66
3.80
3.18
3.83
5.48
7.70
10.00
11.91
13.16
13.66
13.48
12.76
11.60
10.00
7.94
5.38
2.41
-0.83
-4.15
-7.37
-10.43
-13.35
-16.24
-19.21
-22.39
-25.84
-29.63
-33.63
-37.54
-40.72
-42.34
-41.56
-37.85
-31.22
-22.32
-12.22
-2.11
7.01
14.56
20.28
24.10
26.02
25.99
24.16
20.98
17.22
13.85
11.77
11.45
12.81
15.24
17.95
20.22
21.66
22.29
22.34
22.09
21.62
20.76
19.21
16.70
13.18
8.94
4.44
0.24
-3.28
-6.06
-8.29
-10.30
-12.44
-14.94
-17.92
-21.44
-25.42
-29.56
-33.31
-35.77
-36.00
-33.25
-27.35
-18.75
-8.48
2.18
12.08
20.43
26.78
31.02
33.18
33.41
32.00
29.38
26.13
22.84
20.10
18.30
17.67
18.22
19.79
22.07
24.59
26.89
28.51
29.21
28.96
27.92
26.32
24.32
21.91
19.03
15.65
11.87
8.01
4.45
1.46
-0.91
-2.88
-4.86
-7.27
-10.36
-14.21
-18.65
-23.38
-27.92
-31.68
-33.96
-34.10
-31.66
-26.54
-19.13
-10.21
-0.76
8.24
15.97
21.86
25.58
27.01
26.24
23.63
19.78
15.50
11.68
9.04
8.05
8.71
10.67
13.32
16.03
18.24
19.63
20.05
19.51
18.15
16.18
13.84
11.33
8.83
6.37
3.93
1.43
-1.17
-3.79
-6.30
-8.61
-10.74
-12.86
-15.24
-18.18
-21.79
-25.84
-29.80
-32.83
-34.03
-32.66
-28.40
-21.47
-12.58
-2.78
6.81
15.19
21.67
25.93
27.94
27.88
26.11
23.10
19.43
15.74
12.66
10.70
10.09
10.75
12.30
14.24
16.07
17.44
18.19
18.26
17.65
16.37
14.42
11.86
8.87
5.63
2.32
-0.98
-4.31
-7.73
-11.23
-14.68
-17.84
-20.57
-22.89
-25.16
-27.85
-31.38
-35.82
-40.68
-45.08
-47.87
-48.09
-45.18
-39.23
-30.81
-20.90
-10.54
-0.66
7.98
14.92
19.86
22.73
23.63
22.84
20.82
18.13
15.42
13.23
12.01
11.94
12.99
14.89
17.21
19.49
21.28
22.34
22.58
22.07
20.93
19.25
17.05
14.34
11.19
7.73
4.23
0.95
-1.97
-4.51
-6.79
-8.98
-11.24
-13.66
-16.31
-19.30
-22.74
-26.66
-30.87
-34.86
-37.86
-39.03
-37.67
-33.53
-26.85
-18.29
-8.77
0.73
9.36
16.48
21.68
24.78
25.81
25.06
22.98
20.16
17.24
14.73
13.02
12.25
12.41
13.32
14.78
16.54
18.30
19.80
20.79
21.07
20.59
19.41
17.65
15.44
12.89
10.07
7.09
4.15
1.47
-0.78
-2.62
-4.25
-6.03
-8.25
-11.04
-14.29
-17.78
-21.29
-24.65
-27.72
-30.19
-31.55
-31.15
-28.39
-23.08
-15.57
-6.72
2.36
10.61
17.31
22.13
25.06
26.25
25.92
24.32
21.75
18.61
15.38
12.56
10.58
9.71
9.95
11.08
12.64
14.09
14.97
14.99
14.12
12.53
10.46
8.09
5.44
2.42
-1.05
-4.87
-8.76
-12.30
-15.15
-17.20
-18.63
-19.85
-21.30
-23.34
-26.12
-29.60
-33.60
-37.71
-41.40
-43.94
-44.61
-42.86
-38.48
-31.75
-23.33
-14.08
-4.88
3.53
10.56
15.81
19.03
20.14
19.30
16.91
13.58
10.00
6.84
4.64
3.69
3.98
5.27
7.15
9.13
10.87
12.12
12.79
12.90
12.44
11.37
9.62
7.16
4.08
0.58
-3.05
-6.46
-9.41
-11.82
-13.81
-15.63
-17.61
-20.07
-23.22
-27.06
-31.36
-35.57
-38.94
-40.59
-39.78
-36.10
-29.62
-20.87
-10.76
-0.32
9.46
17.78
24.10
28.17
29.98
29.68
27.62
24.30
20.31
16.35
13.11
11.17
10.80
11.93
14.10
16.67
18.98
20.62
21.47
21.62
21.26
20.44
19.08
17.02
14.16
10.60
6.64
2.63
-1.12
-4.50
-7.59
-10.52
-13.42
-16.36
-19.36
-22.50
-25.91
-29.60
-33.37
-36.62
-38.52
-38.21
-35.18
-29.46
-21.60
-12.55
-3.27
5.36
12.71
18.30
21.81
23.09
22.25
19.67
16.06
12.21
8.91
6.69
5.77
6.08
7.35
9.26
11.44
13.62
15.59
17.21
18.32
18.78
18.44
17.19
15.04
12.16
8.82
5.35
2.06
-0.90
-3.52
-5.90
-8.24
-10.68
-13.36
-16.38
-19.82
-23.69
-27.83
-31.83
-34.96
-36.35
-35.16
-30.95
-23.92
-14.85
-5.00
4.35
12.24
18.14
21.96
23.84
23.96
22.55
19.95
16.70
13.52
11.18
10.21
10.71
12.34
14.49
16.56
18.18
19.27
19.94
20.27
20.14
19.27
17.41
14.50
10.77
6.71
2.85
-0.45
-3.15
-5.42
-7.46
-9.39
-11.19
-12.83
-14.43
-16.22
-18.50
-21.31
-24.31
-26.75
-27.70
-26.38
-22.48
-16.27
-8.54
-0.36
7.22
13.40
17.71
20.01
20.43
19.30
17.04
14.13
11.09
8.41
6.53
5.77
6.23
7.75
9.90
12.12
13.85
14.77
14.79
14.07
12.88
11.40
9.68
7.60
5.04
2.02
-1.26
-4.46
-7.27
-9.56
-11.43
-13.20
-15.28
-17.96
-21.30
-25.06
-28.66
-31.34
-32.30
-30.99
-27.19
-21.17
-13.63
-5.50
2.26
8.87
13.86
17.00
18.30
17.89
16.03
13.09
9.66
6.41
4.05
3.13
3.84
5.96
8.93
12.08
14.84
16.96
18.41
19.34
19.80
19.69
18.78
16.90
14.11
10.75
7.34
4.34
1.95
0.02
-1.82
-4.00
-6.76
-10.11
-13.92
-18.00
-22.19
-26.31
-30.01
-32.72
-33.77
-32.52
-28.70
-22.58
-14.88
-6.62
1.22
7.85
12.86
16.06
17.47
17.20
15.51
12.78
9.57
6.51
4.18
2.96
2.89
3.72
5.01
6.35
7.45
8.23
8.70
8.89
8.79
8.30
7.31
5.77
3.70
1.26
-1.34
-3.86
-6.09
-7.91
-9.40
-10.81
-12.50
-14.86
-18.12
-22.20
-26.69
-30.85
-33.80
-34.76
-33.21
-29.08
-22.75
-14.92
-6.49
1.69
8.92
14.74
18.95
21.49
22.46
22.05
20.56
18.35
15.89
13.66
12.13
11.59
12.08
13.38
15.07
16.67
17.81
18.33
18.24
17.61
16.52
14.95
12.83
10.13
6.92
3.47
0.13
-2.76
-5.01
-6.62
-7.77
-8.77
-9.88
-11.33
-13.29
-15.87
-19.10
-22.84
-26.68
-29.94
-31.80
-31.58
-28.92
-23.96
-17.28
-9.68
-1.94
5.28
11.43
16.03
18.68
19.11
17.39
13.99
9.72
5.50
2.11
-0.03
-0.89
-0.69
0.27
1.70
3.36
5.03
6.48
7.43
7.71
7.22
5.99
4.11
1.70
-1.10
-4.07
-6.98
-9.50
-11.37
-12.51
-13.11
-13.60
-14.57
-16.48
-19.45
-23.16
-26.84
-29.56
-30.46
-29.04
-25.26
-19.49
-12.38
-4.71
2.76
9.40
14.75
18.52
20.60
21.03
19.98
17.75
14.76
11.54
8.64
6.52
5.40
5.22
5.67
6.34
6.93
7.28
7.42
7.40
7.23
6.81
5.95
4.52
2.49
0.00
-2.67
-5.24
-7.48
-9.32
-10.81
-12.09
-13.33
-14.72
-16.43
-18.51
-20.76
-22.66
-23.40
-22.18
-18.49
-12.45
-4.81
3.30
10.86
17.26
22.44
26.59
29.91
32.37
33.74
33.83
32.67
30.57
27.92
25.05
22.09
19.11
16.21
13.63
11.73
10.77
10.74
