1548436522.00
64.000000
-0.00
-0.00
-0.00
-0.00
-0.00
-0.00
-0.00
-0.00
-0.00
-0.00
0.00
0.01
0.01
-0.00
-0.03
-0.05
-0.05
0.00
0.13
0.36
0.66
1.01
1.37
1.72
2.06
2.40
2.79
3.24
3.80
4.42
5.06
5.66
6.20
6.68
7.15
7.68
8.31
9.14
10.09
11.04
11.88
12.56
13.14
13.76
14.65
15.96
17.91
20.32
22.90
25.38
27.58
29.57
31.68
34.32
37.81
42.54
48.15
54.10
59.83
64.97
69.58
74.14
79.34
85.71
93.76
103.00
112.62
121.73
129.77
136.75
143.30
150.75
157.77
166.64
177.95
191.79
206.97
220.57
228.25
225.36
208.53
176.87
132.76
80.05
23.07
-34.94
-92.44
-149.16
-205.23
-260.37
-313.74
-363.87
-409.83
-450.91
-486.50
-515.74
-537.23
-549.22
-549.96
-538.37
-514.21
-478.67
-433.88
-382.45
-327.02
-269.84
-212.63
-156.66
-102.95
-52.37
-5.90
35.58
71.43
101.35
125.50
144.38
158.69
169.15
176.37
180.75
182.57
182.07
179.51
175.23
169.65
163.18
156.15
148.81
141.30
133.69
126.02
118.33
110.69
103.16
95.80
88.68
81.83
75.25
68.95
62.95
57.25
51.86
46.78
42.03
37.59
33.45
29.61
26.07
22.81
19.83
17.11
14.67
12.48
10.54
8.83
7.35
6.07
4.97
4.05
3.27
2.62
2.09
1.65
1.30
1.01
0.79
0.61
0.47
0.37
0.29
0.23
0.19
0.17
0.15
0.15
0.16
0.18
0.20
0.23
0.26
0.30
0.34
0.39
0.43
0.48
0.52
0.57
0.62
0.68
0.74
0.79
0.86
0.94
1.03
1.14
1.25
1.36
1.45
1.52
1.58
1.64
1.74
1.89
2.11
2.39
2.69
2.99
3.28
3.56
3.86
4.23
4.67
5.21
5.80
6.42
6.99
7.51
7.98
8.47
9.06
9.83
10.76
11.80
12.83
13.70
14.36
14.85
15.29
15.88
16.73
17.77
18.77
19.29
18.93
17.41
14.74
11.16
7.10
2.93
-1.25
-5.51
-10.16
-15.49
-21.55
-27.99
-34.17
-39.35
-43.00
-45.00
-45.70
-45.74
-45.81
-46.51
-48.24
-51.15
-54.95
-58.62
-60.50
-58.59
-51.41
-38.78
-22.25
-4.71
10.64
21.51
27.24
28.79
27.90
26.12
24.19
22.08
19.57
16.76
14.23
12.75
12.74
13.90
15.43
16.29
15.86
14.15
11.79
9.64
8.39
8.24
8.92
9.92
10.62
10.61
9.76
8.21
6.36
4.67
3.57
3.20
3.44
3.90
4.08
3.67
2.70
1.51
0.64
0.60
1.54
3.31
5.44
7.22
7.99
7.32
5.23
2.15
-1.19
-4.09
-6.02
-6.86
-6.77
-6.06
-5.04
-3.94
-2.92
-2.05
-1.40
-1.04
-1.01
-1.34
-2.05
-3.14
-4.52
-6.00
-7.29
-8.12
-8.32
-7.96
-7.26
-6.52
-5.96
-5.73
-5.91
-6.46
-7.21
-7.83
-7.81
-6.69
-4.40
-1.34
1.62
3.51
3.81
2.64
0.76
-0.83
-1.40
-0.78
0.67
2.27
3.43
3.88
3.78
3.51
3.48
3.91
4.75
5.72
6.49
6.77
6.53
5.87
5.03
4.18
3.39
2.61
1.81
1.00
0.29
-0.11
-0.06
0.49
1.40
2.42
3.27
3.73
3.65
3.00
1.80
0.14
-1.76
-3.58
-4.94
-5.64
-5.78
-5.79
-6.18
-7.25
-8.87
-10.56
-11.78
-12.23
-11.96
-11.19
-10.08
-8.57
-6.46
-3.74
-0.82
1.55
2.56
1.80
-0.48
-3.42
-5.87
-6.98
-6.48
-4.82
-2.85
-1.40
-0.83
-0.87
-0.85
-0.11
1.54
3.70
5.56
6.36
5.83
4.32
2.56
1.23
0.67
0.78
1.28
2.03
3.09
4.64
6.70
8.98
10.93
11.94
11.59
9.80
6.81
3.03
-1.09
-5.23
-9.17
-12.85
-16.26
-19.43
-22.38
-25.20
-28.04
-31.09
-34.48
-38.12
-41.55
-44.06
-44.99
-43.96
-41.11
-36.88
-31.72
-25.80
-19.02
-11.25
-2.66
6.13
14.27
21.02
26.09
29.69
32.36
34.64
36.76
38.62
39.85
40.07
39.04
36.87
33.91
30.74
27.79
25.31
23.22
21.33
19.46
17.66
16.05
14.78
13.79
12.87
11.77
10.38
8.89
7.62
6.88
6.80
7.24
7.93
8.61
9.11
9.30
9.10
8.38
7.09
5.31
3.33
1.55
0.33
-0.22
-0.29
-0.19
-0.19
-0.32
-0.45
-0.43
-0.31
-0.41
-1.05
-2.36
-4.02
-5.44
-5.99
-5.41
-3.93
-2.08
-0.35
1.10
2.41
3.80
5.28
6.59
7.32
7.21
6.40
5.35
4.68
4.78
5.68
6.98
8.13
8.67
8.44
7.62
6.63
5.86
5.52
5.58
5.80
5.95
5.89
5.61
5.19
4.68
4.01
3.11
1.93
0.54
-0.83
-1.92
-2.45
-2.27
-1.44
-0.18
1.13
2.11
2.47
2.15
1.32
0.33
-0.51
-0.97
-1.03
-0.84
-0.62
-0.59
-0.85
-1.43
-2.28
-3.27
-4.31
-5.26
-6.06
-6.61
-6.86
-6.80
-6.55
-6.27
-6.14
-6.24
-6.41
-6.40
-5.91
-4.91
-3.61
-2.39
-1.47
-0.86
-0.27
0.54
1.53
2.24
2.03
0.53
-2.05
-4.91
-6.98
-7.49
-6.39
-4.27
-2.09
-0.62
-0.10
-0.29
-0.68
-0.93
-0.99
-1.15
-1.69
-2.70
-3.95
-5.08
-5.78
-6.03
-6.08
-6.30
-6.98
-8.07
-9.33
-10.42
-11.08
-11.28
-11.20
-11.17
-11.48
-12.32
-13.70
-15.53
-17.63
-19.84
-22.04
-24.05
-25.71
-26.81
-27.27
-27.18
-26.84
-26.66
-26.92
-27.59
-28.22
-28.18
-26.82
-23.88
-19.46
-14.05
-8.16
-2.22
3.53
9.04
14.25
19.13
23.56
27.40
30.45
32.51
33.38
32.97
31.46
29.24
26.93
25.09
24.10
23.92
24.21
24.48
24.28
23.39
21.87
19.96
18.06
16.50
15.52
15.19
15.37
15.78
16.05
15.86
15.04
13.63
11.83
9.96
8.34
7.22
6.69
6.71
7.14
7.73
8.22
8.34
7.94
6.94
5.40
3.47
1.35
-0.79
-2.74
-4.37
-5.57
-6.33
-6.78
-7.12
-7.61
-8.42
-9.59
-10.97
-12.32
-13.38
-13.97
-14.04
-13.67
-13.02
-12.30
-11.70
-11.40
-11.40
-11.55
-11.56
-11.12
-10.07
-8.50
-6.74
-5.22
-4.25
-3.89
-3.94
-3.99
-3.66
-2.74
-1.26
0.49
2.13
3.29
3.79
3.69
3.26
2.80
2.53
2.56
2.87
3.40
4.13
4.98
5.89
6.69
7.25
7.45
7.33
7.01
6.62
6.22
5.91
5.72
5.75
6.05
6.52
6.90
6.82
5.95
4.22
1.91
-0.45
-2.30
-3.29
-3.46
-3.15
-2.86
-2.99
-3.65
-4.63
-5.64
-6.43
-7.04
-7.71
-8.73
-10.28
-12.21
-14.27
-16.09
-17.44
-18.22
-18.34
-17.69
-16.13
-13.66
-10.48
-6.99
-3.70
-0.97
1.08
2.60
3.85
5.09
6.35
7.48
8.19
8.27
7.75
6.93
6.28
6.19
6.77
7.74
8.62
8.94
8.62
7.93
7.33
7.16
7.42
7.79
7.85
7.40
6.51
5.47
4.56
3.93
3.51
3.14
2.65
2.01
1.27
0.55
-0.02
-0.34
-0.34
0.00
0.61
1.25
1.59
1.30
0.21
-1.59
-3.74
-5.75
-7.18
-7.84
-7.87
-7.63
-7.60
-8.12
-9.31
-11.08
-13.06
-14.75
-15.58
-15.07
-12.97
-9.47
-5.16
-0.92
2.45
4.51
5.33
5.47
5.59
6.11
7.02
7.94
8.44
8.29
7.64
6.96
6.71
7.15
8.17
9.40
10.36
10.66
10.14
8.85
7.02
5.00
3.15
1.67
0.64
-0.06
-0.65
-1.33
-2.26
-3.53
-5.13
-7.00
-9.02
-11.03
-12.87
-14.43
-15.75
-16.93
-18.16
-19.56
-21.17
-22.96
-24.87
-26.85
-28.80
-30.60
-32.08
-33.15
-33.87
-34.35
-34.56
-34.21
-32.69
-29.29
-23.64
-15.91
-6.81
2.60
11.39
18.98
25.30
30.57
35.11
39.05
42.30
44.57
45.59
45.20
43.53
41.01
38.25
35.80
33.93
32.53
31.21
29.53
27.32
24.68
21.98
19.58
17.72
16.38
15.42
14.69
14.16
13.91
14.01
14.40
14.86
15.00
14.49
13.12
10.90
8.06
4.90
1.80
-0.94
-3.08
-4.48
-5.18
-5.41
-5.53
-5.88
-6.63
-7.70
-8.85
-9.75
-10.14
-9.88
-8.91
-7.29
-5.12
-2.71
-0.46
1.17
1.88
1.65
0.84
0.01
-0.27
0.33
1.77
3.70
5.61
7.09
7.96
8.31
8.40
8.47
8.61
8.74
8.66
8.27
7.61
6.88
6.29
5.97
5.80
5.58
5.05
4.08
2.70
1.14
-0.27
-1.23
-1.59
-1.39
-0.89
-0.48
-0.50
-1.14
-2.35
-3.94
-5.68
-7.39
-8.90
-10.09
-10.84
-11.11
-10.98
-10.72
-10.64
-10.99
-11.80
-12.86
-13.78
-14.28
-14.17
-13.51
-12.41
-10.98
-9.23
-7.16
-4.87
-2.59
-0.64
0.71
1.39
1.61
1.76
2.23
3.22
4.64
6.13
7.27
7.77
7.63
7.13
6.67
6.53
6.76
7.22
7.66
7.93
7.97
7.82
7.54
7.11
6.43
5.44
4.17
2.79
1.51
0.55
0.04
-0.03
0.29
0.85
1.51
2.07
2.35
2.19
1.54
0.50
-0.70
-1.81
-2.62
-3.08
-3.29
-3.41
-3.63
-4.04
-4.68
-5.52
-6.51
-7.62
-8.86
-10.16
-11.41
-12.39
-12.90
-12.84
-12.28
-11.50
-10.79
-10.32
-9.99
-9.51
-8.61
-7.26
-5.74
-4.56
-4.13
-4.53
-5.46
-6.34
-6.62
-6.02
-4.61
-2.74
-0.86
0.65
1.63
2.13
2.42
2.78
3.43
4.38
5.47
6.46
7.17
7.55
7.66
7.62
7.48
7.25
6.90
6.41
5.85
5.27
4.71
4.20
3.77
3.46
3.33
3.34
3.34
3.09
2.40
1.26
-0.13
-1.37
-2.17
-2.37
-2.15
-1.81
-1.70
-2.00
-2.74
-3.81
-5.11
-6.59
-8.19
-9.80
-11.26
-12.37
-12.93
-12.88
-12.33
-11.60
-11.15
-11.37
-12.36
-13.81
-15.03
-15.25
-14.01
-11.42
-8.11
-4.91
-2.47
-0.95
-0.02
0.82
1.97
3.52
5.28
6.95
8.29
9.23
9.78
10.00
9.92
9.55
8.90
8.02
7.01
6.01
5.27
5.00
5.38
6.43
7.87
9.13
9.51
8.52
6.18
3.16
0.43
-1.10
-1.16
-0.18
0.96
1.49
1.22
0.50
0.00
0.10
0.67
1.10
0.77
-0.57
-2.67
-4.87
-6.59
-7.52
-7.83
-7.96
-8.42
-9.59
-11.52
-14.04
-16.76
-19.22
-21.00
-21.86
-21.77
-20.96
-19.82
-18.79
-18.16
-18.04
-18.29
-18.54
-18.45
-17.76
-16.49
-14.91
-13.40
-12.31
-11.77
-11.67
-11.76
-11.84
-11.80
-11.72
-11.70
-11.74
-11.67
-11.35
-10.77
-10.08
-9.48
-8.95
-8.11
-6.34
-3.22
1.07
5.67
9.38
11.23
11.08
9.70
8.39
8.29
9.82
12.58
15.64
18.12
19.62
20.32
20.72
21.32
22.24
23.22
23.61
22.73
20.16
15.94
10.57
4.89
-0.25
-4.35
-7.40
-9.80
-12.20
-15.10
-18.64
-22.50
-26.09
-28.70
-29.76
-28.99
-26.42
-22.31
-17.06
-11.17
-5.22
0.04
3.80
5.40
4.61
1.87
-1.70
-4.61
-5.61
-4.13
-0.61
3.67
7.16
8.68
7.91
5.47
2.56
0.37
-0.45
-0.02
0.89
1.33
0.54
-1.74
-5.34
-9.96
-15.28
-20.83
-25.84
-29.22
-29.87
-27.21
-21.58
-14.23
-6.74
-0.41
4.26
7.58
10.32
13.16
16.44
20.18
24.30
28.93
34.27
40.37
46.69
51.92
54.12
51.30
42.38
28.01
10.97
-4.54
-14.33
-16.00
-9.96
0.80
12.11
20.49
24.47
24.69
22.96
21.06
19.75
18.77
17.39
15.14
12.11
8.70
5.29
1.82
-2.04
-6.58
-11.74
-16.91
-21.09
-23.33
-23.01
-20.05
-14.99
-8.71
-2.26
3.43
7.72
10.36
11.45
11.38
10.69
9.93
9.58
9.94
11.08
12.88
15.05
17.23
19.04
20.12
20.12
18.80
16.07
12.13
7.45
2.66
-1.61
-5.01
-7.58
-9.66
-11.62
-13.54
-15.05
-15.44
-14.10
-10.90
-6.35
-1.45
2.80
5.81
7.60
8.68
9.57
10.51
11.26
11.32
10.25
8.10
5.46
3.35
2.73
4.13
7.35
11.50
15.41
18.07
19.08
18.66
17.40
15.84
14.14
12.07
9.31
5.76
1.77
-2.00
-4.84
-6.37
-6.65
-6.11
-5.41
-5.17
-5.84
-7.55
-10.15
-13.20
-16.15
-18.50
-20.00
-20.68
-20.77
-20.54
-20.15
-19.59
-18.80
-17.69
-16.22
-14.43
-12.38
-10.09
-7.62
-5.04
-2.48
-0.09
1.99
3.73
5.16
6.41
7.58
8.75
9.88
10.85
11.47
11.62
11.27
10.55
9.62
8.71
7.96
7.45
7.21
7.26
7.57
8.08
8.59
8.81
8.44
7.32
5.54
3.43
1.40
-0.28
-1.54
-2.49
-3.27
-3.81
-3.94
-3.48
-2.50
-1.32
-0.40
-0.13
-0.58
-1.46
-2.29
-2.65
-2.33
-1.47
-0.43
0.39
0.63
0.17
-0.90
-2.27
-3.52
-4.32
-4.55
-4.36
-4.05
-3.84
-3.72
-3.39
-2.48
-0.78
1.52
3.87
5.59
6.19
5.63
4.34
2.97
2.11
1.99
2.43
2.99
3.27
3.12
2.68
2.19
1.86
1.65
1.38
0.81
-0.14
-1.36
-2.57
-3.50
-4.06
-4.37
-4.69
-5.25
-6.12
-7.07
-7.78
-7.97
-7.63
-7.08
-6.78
-7.04
-7.84
-8.86
-9.64
-9.96
-9.96
-10.01
-10.42
-11.19
-11.88
-11.91
-10.84
-8.66
-5.82
-2.99
-0.78
0.57
1.19
1.45
1.77
2.35
3.13
3.82
4.12
3.89
3.26
2.56
2.12
2.06
2.20
2.19
1.72
0.72
-0.58
-1.81
-2.70
-3.19
-3.47
-3.80
-4.39
-5.27
-6.35
-7.51
-8.64
-9.69
-10.66
-11.61
-12.62
-13.83
-15.40
-17.36
-19.67
-22.18
-24.74
-27.25
-29.64
-31.79
-33.52
-34.54
-34.56
-33.36
-30.83
-26.99
-21.95
-15.94
-9.25
-2.30
4.47
10.74
16.33
21.24
25.56
29.34
32.51
34.86
36.17
36.30
35.24
33.13
30.24
26.97
23.76
21.03
19.08
17.97
17.52
17.41
17.29
16.94
16.24
15.25
14.03
12.63
11.08
9.40
7.66
5.97
4.45
3.22
2.35
1.88
1.74
1.81
1.93
1.94
1.65
0.96
-0.18
-1.72
-3.45
-5.11
-6.39
-7.12
-7.34
-7.25
-7.11
-7.07
-7.15
-7.16
-6.95
-6.45
-5.72
-4.82
-3.74
-2.33
-0.46
1.87
4.43
6.80
8.57
9.49
9.54
8.86
7.64
6.09
4.38
2.72
1.36
0.50
0.28
0.62
1.36
2.23
3.03
3.63
3.99
4.17
4.22
4.15
3.93
3.46
2.69
1.69
0.63
-0.24
-0.75
-0.93
-1.05
-1.43
-2.30
-3.67
-5.25
-6.73
-7.84
-8.58
-9.05
-9.40
-9.72
-10.02
-10.37
-10.91
-11.75
-12.88
-14.02
-14.67
-14.31
-12.66
-9.89
-6.52
-3.19
-0.39
1.81
3.62
5.37
7.20
8.88
9.97
10.08
9.12
7.46
5.79
4.76
4.68
5.41
6.49
7.45
8.03
8.33
8.56
8.90
9.28
9.45
9.14
8.17
6.62
4.74
2.85
1.32
0.34
-0.05
-0.02
0.08
-0.09
-0.75
-1.85
-3.16
-4.43
-5.58
-6.76
-8.14
-9.78
-11.42
-12.60
-12.96
-12.44
-11.34
-10.12
-9.08
-8.19
-7.15
-5.70
-3.84
-1.85
-0.17
0.94
1.60
2.21
3.19
4.71
6.57
8.26
9.26
9.26
8.36
7.00
5.74
5.04
5.04
5.59
6.32
6.88
7.06
6.89
6.59
6.36
6.30
6.26
5.95
5.05
3.45
1.36
-0.76
-2.38
-3.19
-3.21
-2.85
-2.66
-3.04
-4.09
-5.58
-7.17
-8.63
-9.92
-11.13
-12.40
-13.65
-14.67
-15.20
-15.13
-14.53
-13.63
-12.65
-11.67
-10.62
-9.35
-7.76
-5.86
-3.78
-1.73
0.15
1.82
3.39
4.97
6.63
8.27
9.63
10.40
10.36
9.55
8.27
6.96
6.10
5.95
6.49
7.44
8.42
9.10
9.30
9.05
8.51
7.82
7.04
6.16
5.13
3.95
2.75
1.71
0.99
0.65
0.61
0.64
0.54
0.15
-0.58
-1.58
-2.69
-3.74
-4.58
-5.13
-5.49
-5.85
-6.47
-7.47
-8.81
-10.23
-11.44
-12.31
-12.92
-13.42
-13.93
-14.30
-14.15
-13.07
-10.85
-7.70
-4.20
-1.05
1.22
2.51
3.13
3.64
4.49
5.83
7.38
8.66
9.20
8.85
7.87
6.86
6.38
6.74
7.78
9.07
10.13
10.71
10.89
10.96
11.16
11.49
11.68
11.31
10.10
8.08
5.67
3.47
2.10
1.92
2.92
4.73
6.68
7.97
7.76
5.41
0.63
-6.32
-14.59
-22.82
-29.52
-33.50
-34.25
-32.06
-27.91
-23.14
-18.97
-16.26
-15.32
-15.97
-17.68
-19.77
-21.66
-22.94
-23.50
-23.35
-22.52
-20.94
-18.40
-14.73
-9.94
-4.36
1.43
6.74
11.03
14.09
16.02
17.12
17.70
17.91
17.72
17.06
15.97
14.65
13.49
12.89
13.06
13.90
15.05
16.03
16.46
16.16
15.21
13.82
12.24
10.64
9.10
7.63
6.17
4.63
2.88
0.80
-1.64
-4.41
-7.36
-10.34
-13.20
-15.84
-18.16
-20.12
-21.64
-22.72
-23.40
-23.77
-23.89
-23.73
-23.14
-21.92
-20.00
-17.46
-14.56
-11.59
-8.74
-6.01
-3.26
-0.40
2.58
5.47
8.00
9.90
10.94
10.98
9.96
8.00
5.39
2.59
0.16
-1.43
-1.92
-1.29
0.27
2.41
4.62
6.14
5.95
3.05
-3.02
-11.71
-21.36
-29.74
-34.96
-36.32
-34.63
-31.77
-29.73
-29.71
-31.71
-34.86
-38.02
-40.38
-41.59
-41.52
-39.92
-36.28
-30.08
-21.31
-10.79
-0.09
8.86
14.64
16.88
16.56
15.58
16.04
19.28
25.32
32.80
39.68
44.25
45.99
45.83
45.61
47.00
50.47
54.93
58.36
58.83
55.57
49.39
42.17
35.83
31.44
28.93
27.56
26.64
25.98
25.86
26.54
27.70
28.43
27.58
24.37
18.86
11.92
4.83
-1.27
-5.81
-8.82
-10.74
-12.01
-12.87
-13.16
-12.55
-10.71
-7.62
-3.73
0.06
2.63
3.06
0.96
-3.45
-9.49
-16.35
-23.30
-29.83
-35.58
-40.30
-43.82
-46.02
-46.85
-46.20
-43.72
-38.80
-30.74
-19.11
-4.28
12.38
28.61
41.88
50.17
52.58
49.59
42.71
33.90
24.93
16.94
10.41
5.31
1.32
-1.99
-5.04
-8.15
-11.32
-14.16
-15.94
-15.72
-12.77
-6.79
2.00
12.90
24.89
36.86
47.65
56.15
61.35
62.51
59.32
51.98
41.14
27.70
12.67
-3.05
-18.75
-33.90
-48.02
-60.55
-70.64
-77.14
-78.81
-74.75
-64.87
-50.21
-32.67
-14.59
2.01
15.80
26.30
33.59
37.94
39.62
38.81
35.81
31.17
25.59
19.78
14.21
9.11
4.52
0.65
-2.11
-3.18
-2.17
0.82
5.08
9.48
12.98
15.16
16.30
17.18
18.44
20.07
21.35
21.21
18.95
14.68
9.32
4.10
-0.11
-3.18
-5.61
-8.08
-10.96
-14.10
-16.97
-19.07
-20.25
-20.78
-21.11
-21.61
-22.39
-23.29
-24.13
-24.81
-25.43
-26.23
-27.53
-29.49
-32.10
-35.08
-37.93
-40.08
-41.03
-40.50
-38.49
-35.24
-31.09
-26.37
-21.41
-16.51
-12.04
-8.29
-5.35
-3.06
-1.06
0.94
2.95
4.56
5.19
4.38
2.13
-1.11
-4.69
-8.10
-11.18
-14.02
-16.69
-18.98
-20.38
-20.19
-17.92
-13.49
-7.21
0.40
8.81
17.59
26.36
34.59
41.53
46.30
48.10
46.54
41.82
34.70
26.36
17.89
10.08
3.28
-2.58
-7.72
-12.20
-15.83
-18.22
-19.03
-18.22
-16.14
-13.42
-10.55
-7.74
-4.71
-0.97
3.80
9.53
15.67
21.52
26.52
30.44
33.33
35.29
36.26
36.03
34.47
31.64
27.87
23.53
18.87
13.95
8.90
4.17
0.60
-0.89
0.21
3.61
8.38
13.44
18.12
22.53
27.12
32.17
37.18
40.86
41.58
38.15
30.23
18.34
3.57
-12.85
-29.46
-44.40
-55.31
-59.70
-55.88
-43.90
-25.99
-6.19
10.90
21.68
24.80
21.49
15.02
9.19
6.88
8.98
14.27
20.17
24.06
24.40
21.16
15.45
8.75
2.11
-4.12
-9.90
-15.09
-19.19
-21.42
-21.26
-18.69
-14.32
-9.06
-3.96
0.00
1.87
0.79
-3.72
-11.42
-21.14
-31.04
-39.11
-43.98
-45.29
-43.73
-40.67
-37.56
-35.64
-35.74
-38.17
-42.68
-48.31
-53.49
-56.37
-55.43
-49.98
-40.37
-27.78
-13.70
0.36
13.10
23.44
30.63
34.46
35.52
35.14
34.93
36.08
38.75
42.01
44.46
44.99
43.29
39.87
35.59
31.09
26.62
22.24
18.09
14.58
12.22
11.25
11.42
12.14
12.78
13.06
13.10
13.21
13.48
13.70
13.41
12.22
10.10
7.35
4.46
1.87
-0.19
-1.59
-2.30
-2.26
-1.48
-0.12
1.52
3.04
4.12
4.61
4.60
4.24
3.80
3.52
3.60
4.15
5.16
6.42
7.59
8.24
8.05
6.88
4.89
2.47
0.08
-1.94
-3.47
-4.63
-5.61
-6.46
-7.04
-7.11
-6.47
-5.19
-3.64
-2.40
-1.89
-2.23
-3.12
-4.02
-4.52
-4.49
-4.18
-4.07
-4.55
-5.75
-7.53
-9.50
-11.28
-12.62
-13.46
-13.88
-14.06
-14.11
-14.08
-13.96
-13.67
-13.10
-12.16
-10.77
-8.98
-6.95
-4.99
-3.39
-2.32
-1.70
-1.21
-0.53
0.42
1.40
1.97
1.81
1.01
0.12
-0.15
0.62
2.33
4.39
6.05
6.92
7.09
7.04
7.21
7.73
8.30
8.44
7.88
6.70
5.33
4.29
3.89
4.09
4.61
5.08
5.20
4.85
4.02
2.79
1.28
-0.31
-1.73
-2.69
-3.04
-2.84
-2.41
-2.27
-2.84
-4.31
-6.52
-9.01
-11.21
-12.71
-13.35
-13.29
-12.88
-12.51
-12.49
-12.95
-13.81
-14.79
-15.55
-15.83
-15.54
-14.79
-13.79
-12.73
-11.61
-10.36
-8.85
-7.05
-5.05
-3.06
-1.27
0.17
1.20
1.78
1.93
1.64
1.01
0.21
-0.48
-0.75
-0.49
0.25
1.23
2.14
2.75
3.01
3.05
3.03
3.07
3.10
2.96
2.55
1.94
1.41
1.33
1.89
2.97
4.15
4.87
4.75
3.81
2.36
0.89
-0.23
-0.92
-1.37
-1.83
-2.47
-3.26
-4.03
-4.68
-5.19
-5.66
-6.22
-6.91
-7.71
-8.55
-9.35
-10.14
-10.98
-11.87
-12.72
-13.32
-13.44
-12.94
-11.87
-10.42
-8.83
-7.25
-5.65
-3.79
-1.48
1.26
4.09
6.46
7.85
8.06
7.31
6.13
5.08
4.51
4.42
4.59
4.76
4.79
4.74
4.70
4.76
4.85
4.79
4.35
3.45
2.09
0.49
-1.12
-2.56
-3.74
-4.69
-5.50
-6.34
-7.42
-9.05
-11.48
-14.84
-18.98
-23.41
-27.46
-30.49
-32.25
-32.97
-33.33
-34.04
-35.55
-37.65
-39.49
-39.86
-37.57
-31.98
-23.23
-12.26
-0.57
10.32
19.14
25.16
28.21
28.58
26.92
24.02
20.66
17.48
14.84
12.87
11.53
10.86
11.11
12.72
16.18
21.63
28.74
36.68
44.34
50.63
54.73
56.18
54.93
51.18
45.45
38.44
30.99
23.85
17.57
12.41
8.30
5.04
2.40
0.41
-0.72
-0.52
1.37
5.01
9.91
15.11
19.49
22.32
23.64
24.35
25.77
28.89
33.74
39.29
43.91
46.17
45.62
42.86
39.20
36.07
34.58
35.38
38.63
43.78
49.18
51.76
47.47
32.57
5.48
-31.87
-74.02
-113.49
-143.32
-159.25
-160.70
-150.15
-131.67
-109.36
-86.39
-64.94
-46.46
-31.89
-21.70
-15.67
-12.93
-12.09
-11.74
-10.91
-9.27
-7.10
-5.12
-4.11
-4.64
-6.94
-10.87
-15.94
-21.50
-26.77
-30.89
-32.99
-32.30
-28.27
-20.85
-10.62
1.19
12.92
22.85
29.55
32.16
30.46
24.87
16.29
5.89
-5.06
-15.42
-24.29
-31.14
-35.74
-37.99
-37.82
-35.05
-29.54
-21.36
-11.04
0.46
11.84
21.89
29.69
34.84
37.34
37.49
35.79
32.92
29.63
26.69
24.57
23.31
22.53
21.72
20.62
19.50
19.06
20.05
22.79
26.97
31.81
36.46
40.42
43.63
46.34
48.78
50.88
52.31
52.56
51.32
48.62
44.92
40.89
37.14
33.94
31.04
27.96
24.27
20.07
16.07
13.26
12.49
13.91
16.97
20.68
24.20
27.19
29.84
32.55
35.58
38.86
42.16
45.35
48.58
52.19
56.41
61.18
66.09
70.72
75.04
79.60
85.34
93.01
102.44
112.10
119.27
120.87
114.60
99.88
77.98
51.49
23.01
-5.86
-35.13
-66.29
-101.71
-143.93
-194.71
-254.28
-320.57
-389.01
-453.05
-505.54
-540.68
-555.63
-551.27
-531.45
-501.59
-466.94
-431.53
-397.90
-367.47
-340.95
-318.51
-299.75
-283.62
-268.71
-253.57
-237.24
-219.38
-200.09
-179.70
-158.18
-135.14
-109.77
-81.21
-48.86
-12.76
26.48
67.79
110.03
152.42
194.97
238.63
284.86
334.73
387.76
441.13
490.00
528.71
552.70
560.11
552.48
534.08
510.44
486.78
467.14
453.94
447.99
448.27
451.89
454.46
451.25
438.92
416.74
386.78
352.92
319.29
289.07
263.82
243.55
227.12
212.49
197.08
178.32
154.40
125.14
92.33
59.27
29.51
5.72
-11.06
-21.21
-25.72
-25.69
-22.07
-15.96
-9.07
-3.75
-2.70
-8.25
-21.79
-43.24
-71.04
-102.48
-134.04
-162.08
-183.43
-196.03
-199.55
-195.40
-186.32
-175.61
-166.17
-160.08
-158.57
-162.11
-170.31
-181.76
-193.86
-203.25
-206.97
-203.67
-194.49
-182.52
-171.22
-162.54
-156.12
-149.85
-141.26
-128.66
-111.14
-87.81
-57.19
-17.68
31.03
86.36
142.53
191.91
227.66
246.15
247.97
237.04
218.53
196.80
174.39
152.39
131.27
111.69
94.67
81.12
71.40
64.90
60.21
55.57
49.57
41.51
31.53
20.31
8.62
-3.04
-14.56
-26.13
-38.08
-50.73
-64.29
-78.96
-94.92
-112.42
-131.71
-152.86
-175.43
-198.18
-218.88
-234.78
-243.29
-242.85
-233.40
-216.38
-194.18
-169.44
-144.60
-121.59
-102.00
-87.40
-79.40
-79.51
-88.43
-105.18
-126.53
-147.30
-161.49
-164.16
-153.06
-129.28
-96.58
-59.65
-22.13
14.31
49.71
84.50
118.25
149.42
176.17
197.55
214.16
227.76
240.15
252.13
263.11
271.57
275.91
275.24
269.47
259.00
244.35
226.03
204.62
181.04
156.38
131.57
107.05
82.74
58.34
33.78
9.47
-13.86
-35.59
-55.56
-74.25
-92.59
-111.57
-131.88
-153.82
-177.49
-203.05
-230.77
-260.71
-292.21
-323.53
-351.87
-374.11
-387.81
-392.04
-387.38
-375.40
-357.78
-336.03
-311.75
-287.09
-264.91
-247.96
-237.58
-232.66
-229.79
-224.76
-214.64
-199.04
-180.24
-161.78
-146.51
-135.42
-127.58
-120.92
-113.59
-104.62
-94.10
-82.86
-71.87
-61.66
-51.88
-40.94
-25.94
-3.33
29.76
73.89
126.16
180.44
229.10
265.55
286.40
292.31
287.15
275.93
262.80
249.74
236.70
222.53
206.19
187.66
167.97
148.35
130.51
116.26
107.05
103.42
104.92
110.44
118.56
127.74
136.08
142.03
144.74
144.10
140.44
134.22
125.73
114.82
100.98
82.92
60.76
36.70
14.00
-4.83
-18.98
-29.38
-37.74
-45.44
-55.59
-68.84
-82.67
-93.57
-99.75
-101.35
-99.34
-94.49
-87.18
-83.57
-87.10
-95.79
-104.99
-111.90
-115.99
-118.00
-118.83
-119.47
-130.59
-158.41
-199.51
-244.72
-286.16
-318.73
-340.07
-349.60
-349.08
-354.54
-376.64
-412.42
-449.99
-478.94
-494.03
-496.69
-491.53
-409.46
-234.33
-15.70
179.48
322.33
418.28
481.97
521.63
541.81
546.23
530.07
493.65
447.35
404.61
372.03
348.38
324.69
292.14
251.43
196.27
125.41
45.53
-34.05
-108.63
-153.89
-159.09
-132.46
-92.62
-59.17
-39.39
-29.45
-21.91
-12.54
-1.67
4.37
1.03
-10.00
-24.55
-35.19
-33.91
-16.33
15.07
52.45
84.03
102.11
106.80
102.94
96.98
93.68
94.95
100.15
107.54
113.41
114.07
106.31
87.24
55.43
13.27
-31.63
-68.33
-86.52
-82.12
-58.55
-24.90
8.24
32.85
46.08
49.85
48.43
45.48
42.18
37.99
32.31
25.70
19.71
16.21
15.98
18.37
21.58
23.67
23.25
20.11
15.32
10.47
7.17
6.21
7.41
9.78
11.77
12.56
12.48
13.45
17.97
27.35
39.95
51.21
55.23
47.45
27.43
-1.03
-31.43
-58.05
-78.33
-92.78
-102.84
-108.56
-107.95
-97.61
-77.99
-52.82
-28.61
-11.79
-5.67
-9.28
-18.54
-28.88
-36.89
-41.86
-44.21
-44.71
-43.30
-39.56
-33.23
-24.39
-13.71
-1.59
11.71
26.57
43.81
64.42
89.14
117.73
147.90
174.20
190.71
191.93
175.85
145.65
108.90
74.70
49.82
36.15
30.32
26.80
20.73
10.45
-2.42
-15.01
-25.45
-33.89
-42.32
-52.96
-66.56
-82.27
-98.17
-112.41
-124.10
-133.00
-138.34
-138.37
-130.64
-113.11
-86.14
-52.89
-18.12
13.58
39.32
58.30
70.65
76.01
72.85
59.25
35.09
3.79
-27.52
-50.30
-57.95
-48.68
-26.15
2.30
28.40
45.99
52.32
47.81
34.91
16.90
-2.77
-20.64
-33.58
-39.31
-36.91
-27.49
-14.02
-0.11
10.86
16.59
16.35
10.81
1.91
-7.64
-15.05
-18.53
-18.09
-15.79
-14.63
-16.98
-23.43
-32.33
-40.67
-45.20
-44.49
-37.94
-25.32
-5.87
21.14
54.35
88.66
116.38
131.13
131.92
124.58
118.80
122.39
135.73
150.52
154.57
139.53
106.34
64.17
23.18
-12.21
-45.30
-83.28
-130.62
-184.51
-235.54
-273.01
-288.25
-281.48
-262.39
-244.10
-234.27
-231.54
-228.89
-220.21
-204.87
-185.25
-165.41
-147.93
-131.73
-112.40
-84.77
-45.64
2.31
53.26
100.59
138.67
165.29
182.78
197.05
215.51
243.58
282.15
326.92
369.32
397.86
401.52
373.56
314.73
235.07
151.10
81.37
40.23
33.91
57.74
97.94
136.38
156.79
150.30
116.13
60.16
-8.22
-76.78
-133.77
-170.09
-180.69
-164.68
-123.78
-63.60
6.78
74.96
130.06
164.36
175.29
165.55
134.92
89.61
39.15
-0.99
-32.21
-62.88
-102.33
-152.23
-206.90
-255.56
-285.94
-290.86
-271.11
-235.86
-195.73
-158.21
-125.24
-94.34
-60.95
-20.97
25.62
74.30
116.60
144.95
154.58
143.24
110.80
59.95
-2.19
-65.23
-117.51
-149.75
-156.18
-134.87
-88.57
-24.11
49.25
121.43
182.79
225.58
245.34
236.91
203.40
155.85
108.91
73.82
53.72
44.98
41.62
38.86
35.00
31.60
30.57
32.58
36.78
40.99
43.40
42.98
39.59
33.62
26.55
20.09
14.30
8.29
-0.11
-12.65
-30.25
-52.79
-79.14
-107.04
-134.16
-158.90
-180.58
-200.37
-219.66
-239.99
-263.08
-290.73
-324.06
-363.15
-406.88
-445.71
-471.97
-479.61
-466.26
-434.28
-389.86
-340.46
-292.22
-248.23
-208.51
-172.44
-139.16
-108.39
-80.14
-54.00
-28.71
-2.58
25.46
55.14
83.91
108.65
126.76
137.33
141.46
141.73
141.12
141.73
144.15
147.15
149.02
148.62
146.17
143.31
142.66
147.20
159.57
181.32
211.83
247.73
282.80
309.02
318.86
307.94
276.75
230.47
176.95
123.63
75.44
34.05
-1.14
-31.43
-57.69
-80.17
-99.24
-115.97
-132.14
-149.23
-167.23
-183.88
-195.13
-196.38
-184.53
-159.36
-123.74
-82.56
-40.83
-1.79
33.83
67.52
101.82
139.07
180.87
227.59
278.02
328.84
374.44
407.79
422.49
415.34
388.00
346.76
300.16
255.88
218.11
187.06
160.23
134.69
108.75
82.26
55.76
29.47
2.87
-24.73
-53.30
-81.52
-106.92
-126.77
-139.23
-144.08
-142.92
-138.50
-133.69
-130.58
-129.81
-130.73
-131.95
-132.17
-130.68
-127.53
-123.28
-118.57
-113.69
-108.47
-102.38
-94.91
-85.81
-75.29
-63.96
-52.62
-42.00
-32.53
-24.35
-17.31
-11.27
-6.14
-1.95
1.35
3.90
6.02
7.97
9.85
11.48
12.55
12.85
12.44
11.66
10.87
10.27
9.70
8.85
7.45
5.56
3.55
1.99
1.33
1.62
2.49
3.28
3.29
2.18
0.01
-2.81
-5.79
-8.62
-11.32
-14.09
-17.17
-20.57
-24.05
-27.26
-29.87
-31.70
-32.73
-32.89
-32.09
-30.16
-27.00
-22.69
-17.54
-11.97
-6.41
-1.14
3.72
8.09
11.90
14.99
17.19
18.42
18.79
18.70
18.63
19.07
20.27
22.21
24.54
26.87
28.87
30.44
31.64
32.59
33.31
33.63
33.34
32.19
30.13
27.28
23.90
20.33
16.84
13.53
10.34
7.17
4.00
1.03
-1.35
-2.73
-2.91
-2.11
-0.94
-0.17
-0.48
-2.21
-5.27
-9.19
-13.21
-16.54
-18.41
-18.37
-16.29
-12.43
-7.33
-1.55
4.40
10.18
15.48
20.07
23.77
26.61
28.77
30.56
32.14
33.43
34.11
33.92
32.87
31.42
30.19
29.66
29.83
30.22
30.15
29.14
27.11
24.42
21.64
19.22
17.31
15.74
14.15
12.14
9.53
6.36
2.95
-0.30
-3.08
-5.26
-7.00
-8.62
-10.56
-13.17
-16.64
-20.86
-25.36
-29.30
-31.59
-31.21
-27.56
-20.80
-12.02
-3.04
4.12
7.82
7.42
3.54
-2.02
-6.81
-8.50
-5.78
1.06
10.18
18.86
24.59
26.01
23.32
17.93
11.60
5.70
0.79
-3.14
-6.29
-8.58
-9.66
-9.28
-7.64
-5.43
-3.56
-2.62
-2.49
-2.40
-1.40
1.03
4.57
8.11
10.23
9.87
6.72
1.37
-5.16
-11.85
-18.02
-23.44
-28.05
-31.72
-34.15
-34.95
-33.89
-31.09
-27.00
-22.24
-17.33
-12.65
-8.37
-4.60
-1.44
1.00
2.71
3.88
4.91
6.35
8.63
11.86
15.60
18.99
21.06
21.21
19.58
16.97
14.53
13.09
12.68
12.55
11.56
8.88
4.52
-0.68
-5.48
-8.87
-10.57
-11.01
-11.02
-11.33
-12.20
-13.43
-14.54
-15.13
-15.06
-14.59
-14.16
-14.18
-14.77
-15.67
-16.33
-16.14
-14.68
-11.91
-8.10
-3.72
0.77
5.10
9.19
13.09
16.79
20.17
22.95
24.76
25.37
24.68
22.85
20.16
16.91
13.35
9.64
5.91
2.34
-0.79
-3.12
-4.35
-4.36
-3.35
-1.88
-0.73
-0.67
-2.18
-5.24
-9.33
-13.63
-17.33
-19.99
-21.57
-22.39
-22.83
-23.11
-23.13
-22.53
-20.87
-17.83
-13.35
-7.76
-1.72
3.96
8.63
12.01
14.23
15.65
16.50
16.71
15.97
14.07
11.18
8.04
5.60
4.58
5.10
6.67
8.53
10.10
11.28
12.30
13.50
14.87
16.02
16.28
15.00
11.80
6.68
-0.14
-8.35
-17.53
-27.02
-35.55
-41.35
-42.53
-38.09
-28.65
-16.70
-5.80
0.84
1.77
-2.10
-8.13
-13.25
-15.39
-14.21
-10.78
-6.72
-3.14
-0.20
2.83
6.94
12.66
19.64
26.64
31.94
34.09
32.50
27.68
20.95
13.86
7.63
2.86
-0.29
-1.73
-1.25
1.44
6.35
12.86
19.74
25.46
28.68
28.68
25.48
19.72
12.31
4.21
-3.88
-11.50
-18.40
-24.39
-29.28
-32.86
-34.93
-35.49
-34.69
-32.89
-30.44
-27.62
-24.49
-21.00
-17.08
-12.72
-8.06
-3.34
1.17
5.21
8.63
11.38
13.55
15.36
17.00
18.59
20.08
21.29
22.08
22.48
22.73
23.21
24.19
25.64
27.17
28.25
28.37
27.39
25.60
23.53
21.73
20.51
19.82
19.40
19.04
18.61
17.99
16.77
14.03
8.69
0.02
-11.63
-24.62
-36.57
-45.51
-50.96
-54.02
-56.61
-60.02
-63.98
-66.82
-66.63
-62.60
-55.56
-47.43
-39.90
-33.46
-27.33
-20.32
-11.87
-2.66
5.88
12.33
16.13
17.68
17.94
17.83
17.92
18.33
19.01
19.85
20.77
21.73
22.74
23.89
25.30
27.02
28.91
30.60
31.56
31.37
29.83
27.06
23.43
19.35
15.19
11.22
7.63
4.55
2.11
0.34
-0.81
-1.51
-2.02
-2.60
-3.52
-4.96
-7.03
-9.74
-13.03
-16.75
-20.70
-24.65
-28.37
-31.67
-34.50
-36.96
-39.26
-41.77
-44.76
-48.32
-52.23
-55.89
-58.45
-58.97
-56.63
-50.97
-42.13
-30.88
-18.48
-6.48
3.78
11.42
16.29
18.79
19.66
19.62
19.19
18.63
18.13
17.95
18.42
19.84
22.25
25.30
28.37
30.78
32.12
32.37
31.89
31.14
30.44
29.82
29.06
27.89
26.15
23.94
21.63
19.70
18.61
18.66
19.94
22.35
25.55
28.97
31.79
33.00
31.56
26.81
18.87
8.83
-1.36
-9.68
-14.79
-16.77
-16.99
-17.44
-19.70
-24.27
-30.58
-37.60
-44.57
-51.19
-57.45
-62.93
-66.61
-67.12
-63.54
-56.18
-46.62
-37.11
-29.43
-24.12
-20.30
-16.26
-10.30
-1.51
10.10
23.79
38.53
53.25
66.89
78.46
87.01
91.84
92.86
90.65
86.40
81.42
76.61
72.08
67.27
61.36
53.76
44.55
34.44
24.48
15.59
8.33
2.81
-1.08
-3.51
-4.67
-4.79
-4.27
-3.59
-3.16
-3.11
-3.25
-3.25
-2.82
-1.93
-0.81
0.20
0.81
0.89
0.47
-0.36
-1.53
-3.06
-5.08
-7.72
-11.05
-14.99
-19.21
-23.21
-26.46
-28.59
-29.54
-29.61
-29.36
-29.38
-30.10
-31.67
-33.89
-36.35
-38.49
-39.75
-39.67
-37.86
-33.95
-27.66
-18.79
-7.53
5.31
18.22
29.18
36.24
38.19
35.14
28.54
20.62
13.46
8.28
5.22
3.93
4.39
7.34
13.96
24.85
39.08
54.16
67.01
75.49
79.54
81.05
82.72
86.43
92.30
98.85
104.02
106.35
105.50
101.86
95.88
87.59
76.68
63.04
47.39
31.30
16.98
6.32
0.16
-2.29
-3.30
-5.97
-13.06
-25.86
-43.80
-64.65
-85.57
-104.28
-119.79
-132.31
-142.50
-150.48
-155.47
-156.18
-151.67
-142.32
-129.94
-117.21
-106.46
-98.70
-93.26
-88.35
-82.06
-73.31
-62.30
-50.26
-38.79
-29.11
-21.67
-16.18
-12.00
-8.57
-5.66
-3.37
-1.98
-1.71
-2.63
-4.63
-7.50
-10.97
-14.73
-18.45
-21.73
-24.07
-24.92
-23.77
-20.25
-14.36
-6.60
2.04
10.31
17.11
21.93
24.92
26.67
27.77
28.40
28.26
26.90
24.12
20.28
16.17
12.70
10.35
9.00
7.96
6.40
3.76
-0.00
-4.37
-8.59
-11.82
-13.38
-12.78
-9.68
-4.25
2.56
9.07
13.15
13.07
8.35
0.11
-9.27
-17.21
-22.13
-24.12
-24.69
-25.60
-27.77
-30.48
-31.82
-29.68
-23.11
-13.14
-2.65
4.88
7.05
3.75
-2.72
-8.83
-11.61
-10.04
-5.28
0.32
4.83
7.74
10.08
13.40
18.52
24.95
31.32
36.42
40.19
43.70
48.41
55.04
63.02
70.63
75.86
77.39
75.15
70.36
64.82
60.25
57.65
57.20
58.38
60.39
62.60
64.71
66.74
68.77
70.69
72.18
72.94
73.06
73.20
74.43
77.67
83.19
90.31
97.63
103.60
107.07
107.63
105.61
101.85
97.33
92.74
88.19
83.02
75.99
65.86
52.09
35.27
17.15
0.01
-14.11
-23.97
-29.12
-29.54
-25.28
-16.37
-3.08
13.64
32.19
50.67
67.71
83.08
97.67
112.77
129.12
146.13
161.94
174.34
181.95
184.96
184.94
183.77
182.60
181.13
178.00
171.70
161.40
147.27
130.10
110.73
89.69
67.41
44.70
22.92
3.86
-11.04
-21.40
-28.27
-33.90
-40.88
-51.23
-65.74
-83.76
-103.55
-122.91
-140.14
-154.43
-166.20
-176.89
-188.58
-203.50
-223.48
-249.47
-280.85
-315.09
-348.14
-375.58
-394.07
-402.42
-401.65
-394.13
-382.53
-369.17
-355.78
-343.33
-331.81
-320.15
-306.60
-289.81
-269.89
-248.72
-228.93
-212.03
-196.88
-179.69
-155.95
-122.99
-81.96
-37.38
4.93
40.51
67.70
87.49
102.06
113.18
121.41
126.24
127.01
123.83
118.11
112.16
108.17
106.89
107.26
106.93
103.72
96.98
87.83
78.30
69.79
62.22
54.30
45.05
35.23
27.75
26.65
35.08
53.68
80.00
109.24
135.79
154.72
162.73
158.41
141.90
114.74
79.58
40.06
0.53
-34.58
-61.62
-78.63
-85.85
-85.49
-80.86
-75.07
-70.10
-66.33
-62.83
-58.14
-51.13
-41.57
-30.14
-18.13
-6.86
2.80
10.62
16.89
21.93
25.57
26.88
24.53
17.74
7.36
-3.68
-11.13
-11.16
-2.31
13.49
31.37
45.37
50.78
45.80
31.88
12.79
-7.14
-24.40
-37.07
-44.69
-47.75
-47.11
-43.59
-37.85
-30.45
-22.08
-13.66
-6.33
-1.22
1.04
0.68
-1.28
-3.22
-3.63
-1.52
3.14
9.53
16.25
21.71
24.59
24.15
20.44
14.35
7.46
1.70
-1.20
-0.26
4.52
12.12
20.97
29.43
36.32
41.05
43.43
43.40
40.86
35.59
27.61
17.53
6.65
-3.18
-10.07
-12.58
-10.12
-2.96
7.81
20.55
33.17
43.32
48.72
47.74
40.10
27.26
12.25
-1.34
-10.61
-14.48
-13.89
-11.08
-8.33
-6.85
-6.41
-5.80
-3.75
0.16
5.22
9.85
12.20
10.83
5.03
-5.05
-18.46
-33.52
-48.14
-60.04
-67.34
-69.05
-65.49
-58.24
-49.75
-42.49
-38.12
-36.88
-37.78
-39.32
-40.42
-41.10
-42.39
-45.73
-52.19
-62.02
-74.56
-88.44
-101.63
-111.41
-114.63
-108.46
-91.72
-66.25
-37.29
-12.47
0.52
-3.34
-24.56
-58.89
-98.83
-135.86
-162.71
-174.74
-170.48
-151.45
-121.63
-86.53
-52.09
-23.20
-2.59
9.67
15.61
18.22
20.02
22.10
24.09
24.80
23.09
18.56
11.80
4.49
-0.81
-1.07
6.35
22.50
45.64
71.09
92.56
104.77
105.98
99.19
91.09
89.23
99.03
122.23
157.18
200.46
248.45
297.88
345.40
387.04
418.61
436.82
440.76
432.41
415.75
395.02
372.78
349.33
323.22
292.75
257.24
217.68
176.23
135.37
96.90
61.43
28.48
-2.95
-33.60
-63.59
-92.53
-120.02
-145.90
-170.01
-191.77
-209.66
-221.55
-225.49
-220.81
-208.63
-191.62
-172.84
-154.59
-137.68
-121.59
-105.27
-87.96
-69.66
-51.04
-32.99
-16.29
-1.51
10.76
19.57
23.38
20.23
8.37
-12.83
-42.20
-76.76
-112.38
-144.74
-170.21
-186.12
-190.94
-184.22
-166.88
-141.26
-110.88
-79.77
-51.43
-28.18
-11.03
-0.14
4.67
3.73
-2.20
-11.48
-21.63
-29.87
-34.01
-33.29
-28.58
-21.99
-16.00
-12.55
-12.34
-14.62
-17.48
-18.66
-16.56
-10.96
-3.14
4.73
10.61
13.41
13.30
11.37
8.86
6.63
4.97
3.84
3.22
3.25
4.05
5.50
7.11
8.14
7.98
6.44
3.84
0.83
-1.88
-3.80
-4.70
-4.69
-4.03
-3.05
-2.06
-1.24
-0.71
-0.50
-0.69
-1.39
-2.74
-4.86
-7.70
-11.02
-14.38
-17.36
-19.68
-21.29
-22.29
-22.67
-22.25
-20.62
-17.43
-12.65
-6.79
-0.72
4.59
8.55
11.14
12.78
14.06
15.34
16.62
17.65
18.17
18.10
17.60
16.95
16.37
16.00
15.84
15.85
16.00
16.27
16.61
16.96
17.20
17.18
16.84
16.19
15.30
14.28
13.23
12.15
10.95
9.56
7.95
6.23
4.53
3.02
1.78
0.73
-0.26
-1.34
-2.58
-3.90
-5.10
-6.03
-6.59
-6.88
-7.17
-7.81
-9.18
-11.54
-15.02
-19.49
-24.49
-29.10
-32.03
-31.88
-27.53
-18.64
-5.93
8.82
23.11
34.35
40.54
40.76
35.45
26.23
15.50
5.76
-1.01
-3.94
-3.23
0.04
4.47
8.93
12.90
16.40
19.78
23.25
26.70
29.63
31.40
31.52
29.84
26.62
22.39
17.69
12.91
8.19
3.51
-1.10
-5.40
-8.91
-11.06
-11.51
-10.41
-8.40
-6.46
-5.44
-5.75
-7.11
-8.74
-9.83
-9.97
-9.31
-8.47
-8.10
-8.54
-9.68
-11.10
-12.33
-13.07
-13.18
-12.53
-10.93
-8.26
-4.59
-0.40
3.54
6.44
7.93
8.17
7.80
7.55
7.87
8.76
9.86
10.67
10.91
10.60
10.03
9.58
9.52
9.88
10.45
10.95
11.15
11.07
10.85
10.73
10.84
11.12
11.34
11.22
10.59
9.46
8.05
6.63
5.44
4.56
3.91
3.29
2.49
1.40
0.01
-1.51
-2.91
-4.01
-4.72
-5.15
-5.51
-6.05
-6.91
-8.05
-9.32
-10.58
-11.76
-12.94
-14.27
-15.81
-17.55
-19.31
-20.95
-22.34
-23.37
-23.84
-23.39
-21.62
-18.25
-13.43
-7.73
-2.02
2.88
6.54
9.01
10.69
12.03
13.30
14.48
15.40
15.87
15.82
15.32
14.54
13.64
12.75
11.94
11.28
10.82
10.56
10.50
10.58
10.70
10.78
10.76
10.66
10.49
10.30
10.08
9.76
9.28
8.61
7.79
6.95
6.20
5.60
5.10
4.60
4.01
3.31
2.54
1.76
1.00
0.24
-0.58
-1.53
-2.62
-3.82
-5.07
-6.30
-7.46
-8.52
-9.46
-10.34
-11.22
-12.16
-13.16
-14.17
-15.17
-16.17
-17.34
-18.80
-20.48
-21.96
-22.51
-21.36
-18.12
-13.01
-6.88
-0.89
4.05
7.50
9.63
10.93
11.87
12.65
13.20
13.34
12.97
12.16
11.20
10.42
10.05
10.13
10.47
10.75
10.73
10.36
9.83
9.50
9.65
10.34
11.28
11.95
11.88
10.89
9.17
7.21
5.62
4.77
4.72
5.12
5.50
5.39
4.52
2.96
1.09
-0.52
-1.31
-0.85
1.00
3.93
7.26
10.00
11.09
9.74
5.72
-0.50
-7.85
-14.99
-20.78
-24.61
-26.45
-26.64
-25.55
-23.25
-19.60
-14.56
-8.52
-2.48
2.26
4.60
4.17
1.54
-1.99
-5.06
-6.74
-6.90
-6.04
-4.87
-3.88
-3.11
-2.28
-1.00
0.93
3.34
5.82
7.87
9.18
9.82
10.22
10.96
12.49
14.88
17.76
20.46
22.26
22.75
21.89
19.99
17.53
14.89
12.28
9.64
6.87
3.93
0.97
-1.68
-3.61
-4.47
-4.14
-2.76
-0.70
1.56
3.56
4.98
5.71
5.78
5.34
4.58
3.61
2.50
1.23
-0.22
-1.85
-3.58
-5.25
-6.70
-7.84
-8.68
-9.34
-10.03
-10.86
-11.86
-12.88
-13.76
-14.38
-14.83
-15.28
-15.86
-16.41
-16.51
-15.56
-13.18
-9.43
-4.91
-0.48
3.06
5.34
6.52
7.05
7.47
8.05
8.79
9.49
9.89
9.84
9.31
8.46
7.50
6.68
6.16
6.02
6.17
6.44
6.66
6.73
6.68
6.59
6.47
6.25
5.83
5.12
4.21
3.30
2.67
2.51
2.80
3.33
3.76
3.81
3.37
2.51
1.46
0.49
-0.18
-0.49
-0.51
-0.42
-0.43
-0.72
-1.35
-2.24
-3.23
-4.09
-4.69
-5.05
-5.33
-5.80
-6.68
-7.95
-9.42
-10.79
-11.81
-12.47
-12.92
-13.36
-13.86
-14.36
-14.73
-15.00
-15.31
-15.82
-16.48
-16.92
-16.55
-14.91
-11.92
-8.02
-3.94
-0.41
2.20
3.93
5.11
6.06
6.96
7.80
8.44
8.74
8.59
8.00
7.07
6.04
5.18
4.75
4.88
5.45
6.24
6.92
7.33
7.44
7.33
7.13
6.86
6.46
5.90
5.22
4.58
4.16
4.03
4.14
4.31
4.33
4.07
3.51
2.74
1.88
1.09
0.43
-0.05
-0.41
-0.74
-1.13
-1.65
-2.29
-2.98
-3.64
-4.21
-4.70
-5.16
-5.65
-6.24
-6.93
-7.73
-8.64
-9.65
-10.68
-11.60
-12.28
-12.67
-12.86
-13.13
-13.69
-14.54
-15.33
-15.42
-14.22
-11.51
-7.64
-3.37
0.50
3.46
5.46
6.81
7.84
8.68
9.24
9.37
9.03
8.36
7.56
6.85
6.31
5.96
5.78
5.77
5.96
6.34
6.84
7.39
7.91
8.32
8.51
8.35
7.73
6.62
5.16
3.62
2.33
1.54
1.32
1.54
1.90
2.11
1.92
1.31
0.46
-0.34
-0.89
-1.07
-0.99
-0.89
-0.97
-1.29
-1.77
-2.26
-2.75
-3.33
-4.24
-5.64
-7.50
-9.55
-11.40
-12.72
-13.37
-13.48
-13.28
-13.00
-12.77
-12.62
-12.53
-12.51
-12.55
-12.54
-12.19
-11.13
-9.12
-6.24
-2.94
0.09
2.26
3.35
3.58
3.45
3.45
3.87
4.64
5.50
6.19
6.56
6.69
6.81
7.16
7.92
9.08
10.52
11.97
13.14
13.80
13.83
13.26
12.26
11.04
9.74
8.45
7.16
5.91
4.75
3.81
3.19
2.94
2.99
3.19
3.36
3.36
3.18
2.84
2.38
1.86
1.31
0.78
0.36
0.09
-0.05
-0.17
-0.44
-0.95
-1.73
-2.66
-3.53
-4.20
-4.61
-4.84
-5.01
-5.26
-5.64
-6.11
-6.59
-7.04
-7.50
-8.05
-8.75
-9.56
-10.40
-11.17
-11.83
-12.44
-13.00
-13.40
-13.34
-12.44
-10.45
-7.45
-3.83
-0.21
2.89
5.21
6.83
7.96
8.77
9.26
9.34
8.93
8.11
7.13
6.30
5.81
5.70
5.86
6.15
6.50
6.88
7.35
7.90
8.47
8.94
9.23
9.28
9.10
8.66
7.97
7.02
5.85
4.60
3.43
2.51
1.88
1.52
1.33
1.18
1.02
0.82
0.56
0.19
-0.33
-1.02
-1.83
-2.62
-3.25
-3.64
-3.80
-3.81
-3.79
-3.84
-4.04
-4.38
-4.85
-5.43
-6.08
-6.75
-7.37
-7.85
-8.14
-8.29
-8.50
-9.02
-10.04
-11.51
-13.00
-13.82
-13.30
-11.11
-7.47
-3.11
1.08
4.40
6.60
7.86
8.58
9.09
9.48
9.64
9.41
8.75
7.80
6.81
6.05
5.63
5.57
5.74
6.03
6.33
6.60
6.86
7.10
7.34
7.50
7.48
7.18
6.56
5.71
4.76
3.89
3.23
2.81
2.55
2.29
1.94
1.44
0.85
0.25
-0.25
-0.64
-0.96
-1.25
-1.59
-1.99
-2.41
-2.79
-3.08
-3.31
-3.54
-3.85
-4.31
-4.92
-5.62
-6.33
-6.99
-7.61
-8.23
-8.91
-9.65
-10.42
-11.17
-11.88
-12.54
-13.13
-13.50
-13.37
-12.44
-10.51
-7.63
-4.10
-0.38
3.08
5.93
8.02
9.34
9.94
9.93
9.43
8.63
7.71
6.86
6.21
5.85
5.78
5.99
6.41
6.95
7.48
7.88
8.11
8.20
8.25
8.33
8.44
8.51
8.48
8.39
8.33
8.39
8.59
8.83
8.94
8.79
8.38
7.80
7.21
6.73
6.33
5.91
5.38
4.63
3.64
2.47
1.21
0.08
-0.68
-0.83
-0.27
0.91
2.34
3.56
4.11
3.75
2.48
0.55
-1.67
-3.82
-5.63
-6.95
-7.71
-7.96
-7.84
-7.53
-7.19
-6.87
-6.54
-6.11
-5.47
-4.52
-3.20
-1.40
0.98
4.03
7.78
12.22
17.23
22.67
28.31
33.83
38.87
43.15
46.63
49.61
52.67
56.43
61.28
67.14
73.48
79.68
85.25
90.19
94.87
99.87
105.72
112.74
121.10
130.87
141.94
153.65
164.38
171.44
171.62
162.38
143.12
115.85
84.61
54.05
27.67
6.87
-8.90
-21.05
-30.76
-38.51
-44.62
-50.08
-56.97
-67.91
-84.66
-106.89
-131.85
-155.21
-172.82
-182.30
-183.72
-179.24
-171.87
-164.12
-157.19
-150.94
-144.47
-136.98
-128.29
-118.99
-110.06
-102.31
-95.97
-90.56
-85.21
-79.18
-72.30
-65.09
-58.46
-53.21
-49.57
-47.09
-44.88
-42.00
-37.85
-32.29
-25.58
-18.33
-11.23
-5.02
-0.28
2.71
4.03
4.10
3.50
2.72
2.06
1.62
1.43
1.51
1.92
2.70
3.79
5.02
6.13
6.84
6.94
6.28
4.82
2.72
0.29
-2.06
-4.03
-5.54
-6.81
-8.21
-10.07
-12.43
-15.00
-17.35
-19.11
-20.21
-20.95
-21.81
-23.21
-25.28
-27.74
-30.10
-31.84
-32.70
-32.74
-32.31
-31.83
-31.67
-32.07
-33.18
-35.11
-37.88
-41.29
-44.76
-47.41
-48.23
-46.52
-42.15
-35.59
-27.66
-19.15
-10.63
-2.42
5.29
12.18
17.90
22.15
25.07
27.22
29.45
32.50
36.59
41.29
45.74
49.01
50.58
50.52
49.36
47.84
46.56
45.77
45.37
45.10
44.75
44.23
43.57
42.79
41.87
40.70
39.20
37.40
35.48
33.69
32.26
31.31
30.76
30.44
30.12
29.59
28.74
27.54
26.05
24.35
22.53
20.65
18.76
16.86
14.96
13.03
11.08
9.12
7.12
5.09
3.03
1.01
-0.88
-2.49
-3.70
-4.54
-5.13
-5.69
-6.37
-7.14
-7.72
-7.65
-6.54
-4.27
-1.09
2.42
5.62
8.02
9.51
10.28
10.68
10.97
11.19
11.13
10.54
9.29
7.55
5.73
4.31
3.61
3.67
4.25
4.97
5.51
5.71
5.61
5.31
4.90
4.38
3.67
2.78
1.80
0.94
0.40
0.28
0.50
0.81
0.94
0.69
0.05
-0.82
-1.65
-2.23
-2.46
-2.43
-2.31
-2.28
-2.44
-2.80
-3.27
-3.78
-4.30
-4.86
-5.45
-6.08
-6.63
-7.06
-7.35
-7.64
-8.09
-8.77
-9.53
-9.97
-9.67
-8.33
-6.02
-3.15
-0.33
1.92
3.34
4.02
4.25
4.34
4.46
4.59
4.62
4.48
4.22
4.01
4.09
4.59
5.45
6.45
7.30
7.76
7.78
7.45
6.92
6.30
5.56
4.64
3.45
1.98
0.34
-1.24
-2.48
-3.19
-3.33
-3.03
-2.59
-2.29
-2.27
-2.41
-2.45
-2.06
-1.10
0.30
1.78
2.88
3.27
2.86
1.79
0.37
-1.15
-2.65
-4.17
-5.79
-7.53
-9.30
-10.90
-12.18
-13.07
-13.63
-13.83
-13.54
-12.44
-10.26
-6.97
-2.96
1.11
4.51
6.81
7.99
8.36
8.33
8.14
7.88
7.46
6.83
6.03
5.14
4.29
3.58
3.06
2.77
2.75
2.99
3.44
4.01
4.64
5.24
5.77
6.17
6.32
6.08
5.38
4.28
3.01
1.86
1.10
0.84
1.02
1.42
1.84
2.11
2.20
2.11
1.92
1.62
1.24
0.78
0.29
-0.17
-0.57
-0.92
-1.30
-1.81
-2.53
-3.46
-4.52
-5.57
-6.45
-7.06
-7.40
-7.54
-7.61
-7.71
-7.93
-8.31
-8.89
-9.64
-10.46
-11.13
-11.27
-10.55
-8.79
-6.03
-2.65
0.88
4.14
6.82
8.79
9.99
10.44
10.18
9.35
8.19
6.97
5.92
5.15
4.64
4.36
4.29
4.45
4.88
5.59
6.46
7.33
8.02
8.40
8.44
8.18
7.71
7.13
6.49
5.76
4.90
3.93
2.95
2.13
1.61
1.38
1.29
1.10
0.69
0.13
-0.34
-0.45
-0.14
0.41
0.82
0.77
0.20
-0.65
-1.39
-1.73
-1.66
-1.48
-1.57
-2.23
-3.46
-4.99
-6.42
-7.44
-7.94
-7.96
-7.60
-6.98
-6.30
-5.85
-6.02
-7.10
-9.03
-11.27
-12.91
-13.04
-11.20
-7.62
-3.16
1.14
4.43
6.43
7.32
7.55
7.46
7.18
6.66
5.82
4.70
3.53
2.64
2.32
2.68
3.58
4.63
5.39
5.55
5.12
4.43
3.98
4.17
5.08
6.38
7.51
8.00
7.64
6.60
5.27
3.98
2.89
1.94
1.00
-0.02
-1.06
-1.97
-2.66
-3.11
-3.41
-3.70
-4.03
-4.36
-4.56
-4.54
-4.32
-4.04
-3.87
-3.98
-4.36
-4.93
-5.55
-6.11
-6.61
-7.15
-7.84
-8.76
-9.92
-11.21
-12.44
-13.33
-13.53
-12.72
-10.76
-7.76
-4.17
-0.58
2.41
4.49
5.66
6.22
6.57
6.99
7.58
8.21
8.66
8.73
8.34
7.56
6.58
5.67
5.07
4.94
5.28
5.95
6.75
7.45
7.92
8.09
7.95
7.48
6.68
5.55
4.20
2.83
1.70
1.01
0.76
0.79
0.83
0.64
0.12
-0.63
-1.40
-1.99
-2.29
-2.37
-2.35
-2.40
-2.54
-2.71
-2.79
-2.74
-2.68
-2.82
-3.38
-4.45
-5.87
-7.37
-8.62
-9.43
-9.82
-9.94
-9.98
-10.08
-10.29
-10.66
-11.21
-11.93
-12.64
-12.99
-12.52
-10.81
-7.76
-3.67
0.85
5.05
8.35
10.52
11.60
11.84
11.53
10.83
9.83
8.57
7.19
5.88
4.88
4.38
4.40
4.80
5.36
5.87
6.27
6.58
6.92
7.31
7.69
7.87
7.69
7.09
6.18
5.13
4.12
3.25
2.48
1.72
0.93
0.12
-0.63
-1.23
-1.66
-2.02
-2.40
-2.91
-3.56
-4.26
-4.87
-5.26
-5.38
-5.32
-5.23
-5.27
-5.52
-5.91
-6.30
-6.51
-6.51
-6.40
-6.41
-6.72
-7.37
-8.21
-9.09
-9.94
-10.87
-12.10
-13.61
-15.05
-15.70
-14.80
-11.94
-7.35
-1.83
3.55
7.94
10.94
12.64
13.40
13.51
13.07
12.07
10.47
8.41
6.23
4.32
3.01
2.44
2.51
2.97
3.56
4.09
4.54
5.02
5.68
6.56
7.52
8.25
8.45
7.95
6.84
5.45
4.13
3.15
2.56
2.23
1.96
1.60
1.10
0.51
-0.12
-0.72
-1.26
-1.70
-2.04
-2.28
-2.47
-2.71
-3.06
-3.53
-4.09
-4.66
-5.17
-5.60
-5.99
-6.40
-6.86
-7.38
-7.95
-8.53
-9.13
-9.78
-10.56
-11.56
-12.82
-14.27
-15.67
-16.57
-16.45
-14.85
-11.64
-7.12
-1.97
2.94
6.83
9.30
10.40
10.55
10.27
9.93
9.66
9.30
8.68
7.68
6.42
5.18
4.26
3.85
3.97
4.53
5.38
6.50
7.90
9.63
11.55
13.37
14.63
14.95
14.18
12.50
10.38
8.29
6.46
4.80
2.95
0.64
-2.09
-4.76
-6.66
-7.26
-6.52
-5.00
-3.56
-2.94
-3.35
-4.45
-5.57
-6.18
-6.15
-5.76
-5.46
-5.63
-6.41
-7.74
-9.56
-11.85
-14.59
-17.63
-20.62
-23.12
-24.85
-25.82
-26.43
-27.16
-28.26
-29.50
-30.15
-29.26
-26.18
-20.90
-14.13
-7.10
-1.04
3.20
5.44
6.09
5.85
5.41
5.16
5.09
4.92
4.33
3.10
1.21
-1.17
-3.78
-6.45
-9.04
-11.43
-13.38
-14.44
-14.03
-11.77
-7.75
-2.74
1.97
4.94
5.21
2.67
-1.77
-6.41
-9.19
-8.30
-2.62
7.87
21.99
37.38
50.92
59.43
60.74
54.68
43.58
31.80
24.20
24.16
31.89
44.34
56.46
63.54
63.05
55.23
42.34
27.14
11.82
-2.33
-14.48
-23.81
-29.47
-31.04
-28.98
-24.58
-19.40
-14.57
-10.51
-7.20
-4.68
-3.32
-3.53
-5.28
-7.76
-9.71
-10.01
-8.20
-4.52
0.45
6.25
12.55
18.76
23.66
25.34
22.00
13.04
-0.04
-13.78
-23.91
-27.17
-22.82
-13.03
-2.05
5.56
6.71
0.85
-10.02
-22.37
-32.60
-38.37
-39.20
-36.27
-31.47
-26.46
-22.01
-18.14
-14.54
-11.22
-8.65
-7.61
-8.63
-11.59
-15.63
-19.42
-21.64
-21.36
-18.14
-12.00
-3.41
6.80
17.34
26.70
33.41
36.51
35.86
32.12
26.46
20.11
14.05
8.85
4.81
2.04
0.62
0.46
1.28
2.59
3.79
4.33
3.83
2.16
-0.51
-3.66
-6.43
-7.72
-6.45
-2.03
5.33
14.35
22.94
28.74
29.93
25.93
17.69
7.36
-2.45
-9.66
-13.35
-13.94
-12.70
-11.05
-9.89
-9.35
-8.99
-8.31
-7.13
-5.71
-4.60
-4.26
-4.82
-5.97
-7.17
-7.94
-8.01
-7.51
-6.76
-6.20
-6.13
-6.68
-7.76
-9.20
-10.80
-12.37
-13.79
-14.85
-15.42
-15.40
-14.84
-14.05
-13.60
-14.09
-15.69
-17.76
-18.74
-16.68
-10.03
1.42
16.18
31.44
44.06
51.73
53.66
50.53
43.89
35.43
26.44
17.72
9.75
2.89
-2.49
-6.15
-7.97
-8.16
-7.10
-5.32
-3.42
-1.84
-0.82
-0.33
-0.12
0.16
0.71
1.49
2.19
2.37
1.76
0.39
-1.37
-2.93
-3.76
-3.61
-2.70
-1.55
-0.82
-0.97
-2.09
-3.84
-5.67
-7.10
-7.90
-8.17
-8.27
-8.60
-9.39
-10.61
-11.95
-12.93
-13.04
-11.98
-9.70
-6.49
-2.80
0.86
4.09
6.69
8.65
10.08
11.11
11.78
12.10
12.08
11.72
11.14
10.42
9.65
8.89
8.16
7.49
6.91
6.45
6.08
5.76
5.44
5.11
4.81
4.58
4.49
4.50
4.53
4.41
4.03
3.35
2.42
1.38
0.33
-0.65
-1.59
-2.52
-3.46
-4.40
-5.29
-6.07
-6.76
-7.40
-8.08
-8.86
-9.72
-10.56
-11.33
-11.97
-12.54
-13.19
-14.01
-14.92
-15.62
-15.66
-14.56
-12.09
-8.39
-3.98
0.44
4.28
7.23
9.34
10.88
12.13
13.21
14.08
14.58
14.55
13.98
12.98
11.75
10.55
9.57
8.92
8.59
8.48
8.45
8.39
8.24
7.99
7.65
7.22
6.67
5.97
5.12
4.17
3.21
2.35
1.63
1.03
0.47
-0.13
-0.82
-1.59
-2.38
-3.10
-3.72
-4.25
-4.76
-5.34
-6.08
-7.01
-8.10
-9.31
-10.52
-11.62
-12.53
-13.19
-13.67
-14.08
-14.51
-14.93
-15.13
-14.78
-13.57
-11.37
-8.31
-4.81
-1.38
1.55
3.77
5.31
6.36
7.12
7.72
8.21
8.55
8.73
8.77
8.76
8.75
8.76
8.77
8.70
8.48
8.09
7.58
7.03
6.53
6.17
5.97
5.91
5.88
5.76
5.41
4.81
3.99
3.12
2.34
1.72
1.22
0.69
-0.03
-0.98
-2.07
-3.11
-3.90
-4.32
-4.43
-4.41
-4.49
-4.89
-5.68
-6.79
-8.10
-9.45
-10.72
-11.81
-12.65
-13.20
-13.46
-13.48
-13.37
-13.22
-13.06
-12.81
-12.25
-11.16
-9.44
-7.21
-4.77
-2.48
-0.56
0.99
2.30
3.54
4.79
5.96
6.88
7.43
7.57
7.41
7.13
6.89
6.77
6.71
6.64
6.46
6.10
5.59
5.05
4.62
4.41
4.49
4.77
5.08
5.17
4.92
4.31
3.51
2.76
2.24
2.03
2.05
2.09
1.97
1.57
0.86
-0.09
-1.17
-2.27
-3.29
-4.15
-4.85
-5.43
-6.03
-6.75
-7.60
-8.52
-9.32
-9.87
-10.10
-10.04
-9.84
-9.67
-9.67
-9.92
-10.39
-10.88
-11.07
-10.65
-9.45
-7.61
-5.55
-3.74
-2.51
-1.84
-1.37
-0.66
0.54
2.14
3.83
5.25
6.28
7.06
7.86
8.89
10.11
11.31
12.18
12.54
12.39
11.87
11.20
10.53
9.89
9.25
8.50
7.59
6.49
5.23
3.86
2.44
1.02
-0.30
-1.43
-2.26
-2.74
-2.84
-2.65
-2.30
-1.97
-1.81
-1.91
-2.29
-2.82
-3.35
-3.75
-3.98
-4.14
-4.41
-4.99
-6.01
-7.46
-9.19
-11.00
-12.74
-14.30
-15.63
-16.73
-17.62
-18.37
-19.09
-19.88
-20.68
-21.25
-21.21
-20.16
-17.96
-14.78
-11.05
-7.21
-3.57
-0.16
3.13
6.37
9.52
12.43
14.99
17.30
19.61
22.20
25.21
28.48
31.58
33.95
35.08
34.68
32.77
29.65
25.80
21.84
18.31
15.65
14.06
13.50
13.69
14.09
14.04
12.90
10.25
6.06
0.75
-4.97
-10.32
-14.73
-17.98
-20.13
-21.37
-21.88
-21.73
-21.01
-19.83
-18.39
-16.85
-15.27
-13.59
-11.78
-10.00
-8.58
-7.98
-8.47
-9.99
-12.17
-14.56
-16.83
-18.95
-21.02
-23.05
-24.73
-25.46
-24.56
-21.61
-16.73
-10.60
-4.21
1.41
5.50
7.81
8.52
8.20
7.54
7.10
7.20
7.86
8.84
9.81
10.42
10.44
9.85
8.87
8.02
7.97
9.28
12.17
16.21
20.47
23.81
25.27
24.56
22.02
18.44
14.65
11.30
8.69
6.94
6.06
5.93
6.28
6.63
6.38
5.06
2.61
-0.56
-3.71
-6.16
-7.63
-8.32
-8.81
-9.64
-11.01
-12.53
-13.44
-12.92
-10.58
-6.75
-2.44
0.98
2.34
1.12
-2.36
-7.11
-11.88
-15.63
-17.85
-18.52
-17.95
-16.55
-14.66
-12.58
-10.67
-9.34
-9.00
-9.84
-11.64
-13.73
-15.18
-15.16
-13.19
-9.39
-4.47
0.50
4.31
6.01
5.32
2.96
0.70
0.92
5.73
15.97
30.51
46.45
60.02
67.97
68.59
62.16
50.41
35.68
20.11
5.37
-7.30
-16.87
-22.60
-24.31
-22.60
-18.88
-14.86
-12.03
-11.06
-11.77
-13.36
-14.99
-16.14
-16.79
-17.24
-17.85
-18.77
-19.87
-20.87
-21.59
-21.97
-22.15
-22.20
-22.04
-21.29
-19.43
-16.11
-11.35
-5.68
0.03
4.91
8.41
10.46
11.37
11.57
11.42
11.05
10.41
9.50
8.40
7.39
6.79
6.83
7.52
8.65
9.82
10.64
10.85
10.41
9.52
8.47
7.55
6.86
6.29
5.63
4.63
3.21
1.44
-0.44
-2.16
-3.54
-4.56
-5.32
-5.94
-6.46
-6.82
-6.90
-6.63
-6.13
-5.64
-5.43
-5.62
-6.16
-6.81
-7.39
-7.81
-8.13
-8.40
-8.51
-8.14
-6.95
-4.75
-1.74
1.59
4.59
6.82
8.19
8.92
9.38
9.82
10.24
10.50
10.39
9.85
9.04
8.23
7.67
7.52
7.76
8.27
8.82
9.24
9.40
9.22
8.73
8.00
7.15
6.28
5.44
4.65
3.79
2.80
1.61
0.30
-1.04
-2.28
-3.38
-4.40
-5.43
-6.52
-7.63
-8.59
-9.24
-9.50
-9.43
-9.24
-9.19
-9.47
-10.14
-11.17
-12.47
-13.90
-15.36
-16.69
-17.72
-18.27
-18.22
-17.54
-16.27
-14.48
-12.23
-9.61
-6.79
-4.01
-1.63
0.00
0.67
0.36
-0.75
-2.37
-4.12
-5.63
-6.39
-5.82
-3.31
1.56
8.67
17.21
25.73
32.49
36.00
35.51
31.18
23.85
14.65
4.66
-5.16
-13.69
-19.37
-20.45
-15.65
-5.15
8.93
22.92
32.90
36.30
32.88
24.67
14.87
6.38
0.80
-1.79
-2.22
-1.39
0.37
3.31
7.95
14.49
22.30
29.86
34.98
35.54
30.29
19.60
5.55
-8.54
-19.29
-24.35
-23.19
-17.07
-8.33
0.46
7.43
11.72
13.42
13.14
11.56
9.17
6.23
2.94
-0.35
-3.11
-4.76
-4.92
-3.67
-1.57
0.55
1.90
2.13
1.45
0.48
-0.06
0.27
1.49
3.22
4.93
6.23
6.96
7.23
7.27
7.21
7.04
6.53
5.35
3.17
-0.16
-4.59
-9.73
-14.92
-19.44
-22.72
-24.46
-24.71
-23.73
-21.81
-19.24
-16.28
-13.32
-10.88
-9.54
-9.68
-11.30
-13.94
-16.86
-19.25
-20.51
-20.37
-18.86
-16.18
-12.65
-8.64
-4.51
-0.60
2.79
5.49
7.50
9.01
10.42
12.12
14.35
16.99
19.50
21.08
21.01
18.94
15.10
10.18
5.03
0.25
-3.87
-7.37
-10.33
-12.71
-14.31
-14.93
-14.51
-13.24
-11.48
-9.47
-7.26
-4.69
-1.53
2.27
6.46
10.54
13.96
16.32
17.51
17.66
16.99
15.73
13.96
11.69
8.96
5.90
2.69
-0.44
-3.31
-5.84
-8.01
-9.81
-11.22
-12.22
-12.85
-13.18
-13.29
-13.25
-13.07
-12.72
-12.21
-11.57
-10.88
-10.26
-9.77
-9.51
-9.53
-9.85
-10.37
-10.82
-10.85
-10.13
-8.54
-6.29
-3.81
-1.56
0.14
1.28
2.07
2.80
3.66
4.66
5.67
6.48
6.96
7.06
6.88
6.57
6.28
6.10
6.01
5.93
5.78
5.56
5.35
5.28
5.43
5.72
5.96
5.92
5.51
4.78
3.94
3.20
2.68
2.34
1.99
1.44
0.59
-0.49
-1.64
-2.62
-3.28
-3.54
-3.46
-3.20
-2.94
-2.87
-3.12
-3.69
-4.50
-5.42
-6.35
-7.24
-8.13
-9.02
-9.91
-10.79
-11.65
-12.51
-13.42
-14.32
-15.00
-15.14
-14.41
-12.68
-10.07
-6.92
-3.63
-0.55
2.13
4.38
6.23
7.74
8.92
9.76
10.20
10.24
9.85
9.14
8.25
7.40
6.74
6.34
6.12
5.99
5.82
5.64
5.51
5.55
5.80
6.21
6.66
6.99
7.07
6.88
6.45
5.91
5.36
4.80
4.21
3.48
2.58
1.59
0.61
-0.25
-0.99
-1.67
-2.39
-3.17
-3.95
-4.58
-4.99
-5.20
-5.32
-5.48
-5.73
-6.06
-6.39
-6.75
-7.19
-7.83
-8.69
-9.71
-10.74
-11.70
-12.63
-13.66
-14.91
-16.28
-17.39
-17.75
-16.90
-14.74
-11.53
-7.82
-4.20
-1.06
1.49
3.51
5.09
6.23
6.92
7.17
7.12
7.01
7.06
7.37
7.89
8.44
8.81
8.92
8.81
8.64
8.56
8.67
8.89
9.12
9.21
9.01
8.38
7.20
5.43
3.10
0.34
-2.62
-5.43
-7.82
-9.74
-11.30
-12.71
-14.17
-15.73
-17.38
-19.11
-20.67
-21.92
-22.95
-23.92
-24.93
-25.94
-26.82
-27.49
-28.08
-28.34
-28.32
-28.40
-29.08
-30.52
-32.29
-33.60
-33.89
-33.39
-32.39
-31.84
-32.60
-34.38
-34.95
-30.38
-16.41
10.05
49.94
103.10
166.96
236.35
303.88
361.08
400.38
416.98
410.56
378.35
324.65
259.46
195.00
141.03
101.68
76.06
60.56
51.69
46.94
45.54
46.44
47.77
47.51
44.16
37.39
26.72
12.10
-6.56
-28.65
-51.75
-74.71
-97.17
-118.97
-139.61
-159.87
-180.22
-200.61
-219.80
-236.30
-249.54
-259.76
-267.65
-273.87
-281.00
-290.98
-304.53
-320.56
-336.84
-351.54
-363.38
-371.71
-362.54
-327.28
-264.48
-181.37
-90.04
-1.52
77.14
143.49
197.89
241.85
275.05
297.47
309.99
314.82
315.12
313.45
311.79
311.21
311.57
310.66
306.54
298.27
286.48
273.06
259.65
247.87
238.82
231.69
224.01
213.19
197.05
173.99
147.66
120.67
95.54
74.35
55.76
37.39
16.95
-6.94
-34.30
-63.92
-94.23
-123.02
-148.40
-173.46
-201.88
-236.61
-278.92
-328.35
-383.71
-444.38
-509.71
-577.90
-649.36
-719.32
-778.15
-814.84
-822.62
-803.03
-765.94
-724.44
-656.84
-551.53
-407.13
-236.09
-59.37
102.78
236.93
338.28
409.64
458.85
489.86
505.91
509.25
502.25
487.72
469.08
449.91
433.73
422.40
412.74
401.36
385.96
366.15
343.39
320.09
299.01
281.92
269.91
260.70
251.68
240.75
226.88
209.87
189.44
169.51
151.64
136.45
122.60
108.66
93.74
77.94
62.20
47.84
36.00
26.53
18.75
11.15
2.41
-8.11
-20.07
-32.32
-43.46
-52.49
-59.86
-66.78
-74.89
-85.58
-99.35
-115.59
-132.88
-149.57
-164.53
-177.92
-190.81
-204.99
-222.82
-247.02
-280.16
-323.57
-375.81
-431.78
-483.40
-521.67
-539.99
-536.77
-516.06
-485.58
-453.43
-424.92
-401.35
-380.86
-360.52
-338.26
-313.65
-287.48
-260.66
-233.62
-206.19
-177.99
-148.94
-119.39
-90.21
-62.39
-36.69
-13.38
8.17
29.30
51.85
77.60
107.62
142.12
180.88
223.92
271.91
325.45
383.51
441.87
492.95
527.46
537.51
519.51
475.17
409.97
330.16
240.48
144.05
44.19
-53.32
-139.89
-206.29
-246.33
-259.78
-252.59
-234.08
-212.93
-194.14
-178.44
-163.80
-148.13
-131.06
-114.05
-99.19
-87.71
-79.09
-71.44
-62.39
-50.05
-33.54
-13.00
10.80
36.71
63.22
88.55
110.81
128.48
140.91
148.44
152.26
153.88
154.56
155.01
155.40
155.57
155.13
153.52
149.88
143.23
132.79
118.58
101.68
84.16
68.38
56.12
47.95
43.01
39.50
35.47
29.63
21.81
12.72
3.55
-4.81
-12.05
-18.48
-24.57
-30.50
-35.91
-39.99
-41.88
-41.06
-37.64
-32.28
-25.86
-19.17
-12.61
-6.27
-0.11
5.82
11.33
16.11
19.95
22.81
24.83
26.21
27.17
27.84
28.34
28.85
29.52
30.52
31.86
33.36
34.72
35.54
35.55
34.68
33.08
31.06
28.95
27.01
25.37
24.05
22.97
21.97
20.76
19.01
16.38
12.76
8.36
3.75
-0.30
-3.17
-4.63
-5.03
-5.13
-5.80
-7.61
-10.67
-14.59
-18.79
-22.75
-26.14
-28.90
-31.10
-32.86
-34.30
-35.56
-36.79
-38.05
-39.10
-39.37
-38.02
-34.29
-27.88
-19.12
-8.94
1.46
11.01
19.07
25.48
30.36
33.96
36.46
37.99
38.68
38.72
38.39
37.95
37.61
37.57
38.03
39.20
41.23
44.07
47.31
50.24
52.01
51.95
49.87
46.17
41.64
37.12
33.19
29.95
27.16
24.48
21.73
18.93
16.25
13.77
11.45
9.09
6.50
3.67
0.71
-2.12
-4.65
-6.88
-8.90
-10.84
-12.73
-14.53
-16.21
-17.83
-19.55
-21.54
-23.82
-26.17
-28.29
-29.96
-31.26
-32.60
-34.50
-37.23
-40.51
-43.41
-44.67
-43.13
-38.25
-30.37
-20.58
-10.35
-0.96
6.81
12.79
17.24
20.59
23.20
25.27
26.85
27.92
28.40
28.30
27.69
26.74
25.70
24.86
24.50
24.76
25.62
26.88
28.21
29.27
29.74
29.46
28.39
26.67
24.53
22.24
20.09
18.28
16.93
16.03
15.40
14.84
14.06
12.82
11.02
8.75
6.26
3.93
2.15
1.15
0.91
1.12
1.35
1.11
0.07
-1.85
-4.43
-7.30
-10.02
-12.34
-14.23
-15.96
-17.87
-20.32
-23.45
-27.19
-31.26
-35.27
-38.76
-41.22
-42.12
-40.96
-37.52
-31.91
-24.67
-16.61
-8.59
-1.21
5.25
10.77
15.51
19.61
23.16
26.17
28.62
30.43
31.54
31.88
31.54
30.76
29.92
29.46
29.67
30.59
32.04
33.69
35.20
36.36
37.08
37.31
37.01
36.11
34.62
32.65
30.42
28.21
26.20
24.41
22.76
21.10
19.36
17.61
15.97
14.53
13.27
12.03
10.71
9.24
7.73
6.38
5.37
4.71
4.24
3.65
2.65
1.13
-0.76
-2.72
-4.47
-5.91
-7.24
-8.83
-10.99
-13.78
-16.91
-19.97
-22.59
-24.69
-26.39
-27.93
-29.47
-31.07
-32.78
-34.66
-36.80
-39.06
-40.91
-41.49
-39.89
-35.59
-28.82
-20.52
-11.96
-4.31
1.83
6.46
10.00
12.93
15.52
17.71
19.26
19.90
19.53
18.34
16.77
15.32
14.40
14.18
14.55
15.23
15.95
16.57
17.09
17.60
18.06
18.32
18.13
17.30
15.82
13.93
12.01
10.45
9.51
9.22
9.36
9.57
9.52
8.97
7.90
6.48
4.95
3.54
2.34
1.30
0.24
-1.00
-2.49
-4.13
-5.73
-7.12
-8.23
-9.15
-10.07
-11.20
-12.62
-14.32
-16.17
-18.11
-20.09
-22.12
-24.13
-25.95
-27.43
-28.54
-29.51
-30.79
-32.68
-35.09
-37.27
-38.13
-36.58
-32.17
-25.29
-17.03
-8.73
-1.42
4.46
8.99
12.49
15.22
17.22
18.35
18.56
17.97
16.91
15.78
14.98
14.69
14.93
15.59
16.50
17.52
18.57
19.63
20.67
21.64
22.38
22.76
22.63
21.94
20.73
19.19
17.57
16.12
15.04
14.37
13.97
13.65
13.19
12.49
11.60
10.62
9.67
8.84
8.16
7.62
7.22
6.93
6.67
6.34
5.79
4.87
3.58
1.97
0.24
-1.39
-2.73
-3.71
-4.38
-4.95
-5.71
-6.91
-8.72
-11.12
-13.90
-16.71
-19.19
-21.06
-22.30
-23.13
-24.01
-25.39
-27.41
-29.76
-31.56
-31.77
-29.53
-24.61
-17.59
-9.61
-2.01
4.27
8.83
11.85
13.81
15.18
16.26
17.13
17.75
18.08
18.14
18.01
17.87
17.89
18.22
18.87
19.73
20.58
21.20
21.51
21.59
21.60
21.69
21.83
21.81
21.31
20.14
18.32
16.17
14.16
12.65
11.80
11.48
11.42
11.34
11.09
10.69
10.23
9.79
9.38
8.87
8.12
7.06
5.72
4.32
3.08
2.19
1.62
1.17
0.50
-0.63
-2.19
-3.91
-5.38
-6.30
-6.72
-6.99
-7.53
-8.61
-10.19
-11.95
-13.58
-14.90
-15.99
-17.01
-18.06
-19.11
-20.17
-21.37
-23.03
-25.41
-28.32
-31.02
-32.31
-31.07
-26.85
-20.22
-12.54
-5.40
0.10
3.73
6.01
7.71
9.38
10.99
12.15
12.40
11.64
10.25
8.89
8.21
8.47
9.46
10.68
11.65
12.15
12.30
12.43
12.83
13.57
14.41
14.95
14.83
13.91
12.37
10.60
9.05
8.03
7.66
7.79
8.08
8.18
7.85
7.02
5.86
4.62
3.60
2.93
2.61
2.47
2.28
1.83
0.99
-0.23
-1.69
-3.19
-4.50
-5.54
-6.32
-7.00
-7.75
-8.74
-9.98
-11.37
-12.77
-14.07
-15.24
-16.28
-17.21
-18.03
-18.80
-19.72
-21.02
-22.82
-24.86
-26.46
-26.65
-24.66
-20.30
-14.14
-7.35
-1.16
3.61
6.78
8.68
9.84
10.64
11.16
11.29
10.93
10.11
9.05
8.02
7.26
6.91
6.93
7.23
7.70
8.26
8.91
9.68
10.60
11.57
12.43
12.93
12.86
12.18
11.02
9.70
8.57
7.86
7.58
7.56
7.50
7.15
6.37
5.23
3.93
2.71
1.76
1.12
0.73
0.45
0.16
-0.26
-0.82
-1.48
-2.15
-2.77
-3.31
-3.83
-4.39
-5.04
-5.74
-6.42
-6.98
-7.36
-7.61
-7.84
-8.17
-8.67
-9.34
-10.17
-11.12
-12.23
-13.44
-14.67
-15.75
-16.57
-17.17
-17.81
-18.73
-19.96
-21.09
-21.35
-19.93
-16.47
-11.33
-5.43
0.08
4.44
7.43
9.32
10.55
11.41
11.89
11.83
11.22
10.19
9.11
8.32
7.94
7.87
7.87
7.77
7.50
7.20
7.06
7.24
7.73
8.40
9.04
9.41
9.36
8.88
8.02
6.91
5.70
4.53
3.55
2.82
2.39
2.21
2.18
2.17
1.99
1.53
0.75
-0.30
-1.43
-2.45
-3.16
-3.48
-3.41
-3.12
-2.81
-2.68
-2.85
-3.37
-4.16
-5.08
-5.97
-6.68
-7.13
-7.31
-7.31
-7.30
-7.45
-7.85
-8.47
-9.19
-9.87
-10.43
-10.81
-11.04
-11.18
-11.43
-12.06
-13.39
-15.47
-17.91
-19.84
-20.18
-18.15
-13.71
-7.71
-1.48
3.69
7.14
8.96
9.76
10.16
10.47
10.62
10.30
9.33
7.80
6.03
4.48
3.45
3.05
3.17
3.56
4.01
4.40
4.77
5.20
5.76
6.41
7.01
7.32
7.17
6.50
5.45
4.24
3.18
2.47
2.17
2.16
2.23
2.21
1.99
1.61
1.15
0.66
0.16
-0.40
-1.00
-1.56
-1.99
-2.23
-2.38
-2.62
-3.14
-4.03
-5.15
-6.22
-6.93
-7.14
-6.88
-6.45
-6.18
-6.33
-6.98
-8.01
-9.19
-10.28
-11.12
-11.63
-11.82
-11.75
-11.50
-11.26
-11.27
-11.74
-12.67
-13.71
-14.18
-13.34
-10.76
-6.59
-1.52
3.44
7.43
10.01
11.25
11.52
11.24
10.63
9.71
8.40
6.69
4.74
2.80
1.21
0.18
-0.19
0.08
0.86
1.96
3.22
4.54
5.81
6.99
8.03
8.85
9.42
9.64
9.48
8.92
8.04
7.00
5.99
5.17
4.55
4.04
3.43
2.55
1.36
-0.01
-1.33
-2.35
-2.99
-3.34
-3.65
-4.18
-5.08
-6.28
-7.57
-8.69
-9.47
-9.91
-10.13
-10.30
-10.54
-10.89
-11.28
-11.61
-11.81
-11.91
-12.04
-12.34
-12.90
-13.71
-14.68
-15.77
-16.99
-18.36
-19.63
-20.14
-18.99
-15.46
-9.51
-2.07
5.34
11.35
15.53
18.56
21.72
25.88
30.67
34.49
35.30
31.89
24.65
15.61
7.44
2.20
0.48
1.35
3.11
4.22
4.04
2.83
1.27
-0.07
-1.13
-2.18
-3.50
-5.04
-6.38
-6.95
-6.41
-4.82
-2.72
-0.79
0.37
0.56
-0.03
-0.91
-1.50
-1.45
-0.78
0.13
0.75
0.68
-0.14
-1.35
-2.41
-2.88
-2.64
-1.91
-1.08
-0.45
-0.07
0.19
0.53
0.93
1.20
0.96
-0.05
-1.84
-4.17
-6.65
-8.97
-10.96
-12.57
-13.77
-14.46
-14.56
-14.06
-13.13
-12.06
-11.06
-10.11
-8.95
-7.28
-4.96
-2.18
0.60
2.93
4.54
5.53
6.17
6.75
7.36
7.86
8.02
7.63
6.69
5.32
3.83
2.49
1.54
1.08
1.08
1.45
2.10
3.00
4.13
5.43
6.76
7.90
8.59
8.63
7.96
6.69
5.04
3.30
1.72
0.47
-0.35
-0.76
-0.88
-0.92
-1.08
-1.42
-1.92
-2.42
-2.82
-3.08
-3.34
-3.83
-4.71
-6.08
-7.85
-9.84
-11.90
-13.92
-15.90
-17.82
-19.69
-21.42
-22.94
-24.24
-25.41
-26.56
-27.84
-29.32
-31.03
-33.01
-35.33
-38.08
-41.28
-44.75
-48.01
-50.44
-51.46
-50.82
-48.75
-45.96
-43.34
-41.73
-41.63
-43.18
-46.21
-50.40
-55.45
-61.09
-67.06
-73.05
-78.71
-83.73
-88.01
-91.68
-95.11
-98.47
-101.44
-103.08
-102.25
-98.25
-91.56
-83.99
-78.02
-75.60
-77.03
-80.47
-82.37
-78.82
-66.87
-45.29
-14.62
23.24
65.33
107.89
146.77
178.06
199.09
208.99
208.63
199.74
183.87
161.88
134.20
101.71
66.37
31.17
-0.72
-27.01
-46.95
-61.20
-71.21
-78.68
-85.32
-92.86
-102.97
-116.80
-134.47
-154.99
-176.51
-196.95
-214.64
-228.54
-238.12
-243.10
-243.29
-238.66
-229.41
-215.78
-197.78
-174.92
-146.36
-111.54
-70.85
-25.94
20.60
66.16
109.06
148.91
186.36
222.06
255.84
286.44
312.09
331.40
344.08
350.96
353.37
352.25
347.76
339.40
326.65
309.62
289.34
267.54
246.11
226.58
209.85
196.21
185.54
177.49
171.39
166.32
161.05
154.25
144.71
131.67
115.00
95.33
73.95
52.57
32.91
16.32
3.39
-6.01
-12.63
-17.47
-21.44
-25.16
-28.93
-32.85
-36.90
-41.03
-45.19
-49.28
-53.14
-56.56
-59.26
-61.00
-61.57
-60.85
-58.81
-55.62
-51.57
-47.06
-42.54
-38.35
-34.76
-31.85
-29.62
-28.02
-26.99
-26.50
-26.51
-26.91
-27.55
-28.21
-28.74
-29.11
-29.37
-29.64
-30.00
-30.42
-30.74
-30.74
-30.25
-29.23
-27.74
-26.02
-24.29
-22.78
-21.62
-20.86
-20.40
-20.04
-19.52
-18.66
-17.43
-15.95
-14.49
-13.29
-12.52
-12.19
-12.24
-12.59
-13.14
-13.80
-14.47
-14.98
-15.17
-14.95
-14.35
-13.52
-12.71
-12.14
-11.97
-12.23
-12.87
-13.79
-14.88
-16.09
-17.34
-18.51
-19.43
-19.85
-19.57
-18.46
-16.62
-14.34
-11.99
-9.84
-8.02
-6.52
-5.23
-4.16
-3.38
-3.08
-3.34
-4.07
-4.96
-5.62
-5.74
-5.22
-4.22
-3.06
-2.05
-1.43
-1.28
-1.50
-1.92
-2.31
-2.51
-2.44
-2.20
-1.96
-1.96
-2.37
-3.19
-4.28
-5.36
-6.17
-6.58
-6.62
-6.41
-6.14
-5.91
-5.79
-5.74
-5.81
-6.03
-6.44
-7.07
-7.85
-8.66
-9.38
-10.00
-10.54
-11.15
-11.87
-12.71
-13.57
-14.29
-14.77
-14.96
-14.84
-14.38
-13.49
-12.11
-10.19
-7.81
-5.17
-2.56
-0.33
1.29
2.17
2.39
2.15
1.69
1.21
0.79
0.45
0.16
-0.06
-0.18
-0.14
0.08
0.41
0.78
1.12
1.39
1.64
1.88
2.08
2.20
2.20
2.12
2.03
1.99
2.00
1.99
1.85
1.51
0.95
0.24
-0.55
-1.41
-2.37
-3.44
-4.62
-5.84
-7.00
-8.09
-9.10
-10.11
-11.18
-12.34
-13.58
-14.89
-16.28
-17.79
-19.44
-21.21
-23.02
-24.67
-25.94
-26.62
-26.57
-25.71
-23.98
-21.44
-18.15
-14.28
-10.10
-5.94
-2.17
0.92
3.17
4.63
5.45
5.84
5.93
5.81
5.52
5.14
4.85
4.83
5.24
6.07
7.18
8.34
9.31
9.96
10.27
10.28
10.04
9.53
8.74
7.69
6.47
5.26
4.20
3.35
2.69
2.11
1.55
0.99
0.48
0.04
-0.32
-0.71
-1.27
-2.12
-3.24
-4.51
-5.72
-6.62
-7.04
-6.92
-6.34
-5.51
-4.74
-4.37
-4.71
-5.93
-8.07
-10.98
-14.44
-18.16
-21.95
-25.66
-29.23
-32.61
-35.63
-38.05
-39.45
-39.39
-37.47
-33.55
-27.80
-20.76
-13.24
-6.11
-0.10
4.38
7.25
8.67
8.94
8.31
7.01
5.28
3.41
1.84
1.00
1.24
2.63
4.95
7.77
10.64
13.26
15.53
17.48
19.13
20.37
21.03
20.91
19.96
18.31
16.25
14.07
12.02
10.23
8.72
7.46
6.42
5.55
4.78
4.10
3.50
3.03
2.74
2.71
2.93
3.34
3.83
4.24
4.39
4.19
3.56
2.53
1.19
-0.34
-1.94
-3.53
-5.07
-6.55
-7.95
-9.30
-10.63
-12.04
-13.62
-15.38
-17.24
-18.99
-20.41
-21.37
-21.96
-22.43
-23.12
-24.28
-25.96
-27.93
-29.77
-30.97
-31.06
-29.66
-26.55
-21.73
-15.40
-7.99
-0.13
7.50
14.22
19.57
23.31
25.45
26.18
25.79
24.59
22.85
20.84
18.81
17.01
15.64
14.86
14.70
15.07
15.79
16.65
17.48
18.15
18.59
18.71
18.40
17.61
16.34
14.74
12.99
11.31
9.83
8.59
7.56
6.70
5.98
5.36
4.80
4.23
3.59
2.87
2.15
1.50
1.01
0.69
0.44
0.14
-0.35
-1.10
-2.10
-3.29
-4.55
-5.73
-6.73
-7.48
-8.07
-8.63
-9.38
-10.47
-11.97
-13.80
-15.82
-17.87
-19.82
-21.65
-23.39
-25.11
-26.81
-28.49
-29.98
-31.09
-31.50
-30.84
-28.82
-25.25
-20.23
-14.08
-7.43
-0.98
4.60
8.87
11.65
13.07
13.40
13.00
12.19
11.19
10.15
9.18
8.37
7.82
7.62
7.81
8.41
9.35
10.47
11.60
12.54
13.18
13.50
13.54
13.42
13.22
12.97
12.66
12.26
11.75
11.18
10.60
10.03
9.44
8.77
7.94
6.95
5.88
4.86
4.01
3.36
2.83
2.27
1.57
0.69
-0.26
-1.16
-1.97
-2.76
-3.77
-5.22
-7.21
-9.65
-12.27
-14.80
-17.09
-19.19
-21.25
-23.44
-25.79
-28.16
-30.28
-31.84
-32.55
-32.11
-30.31
-26.98
-22.14
-16.05
-9.19
-2.23
4.12
9.29
12.95
15.03
15.75
15.48
14.62
13.55
12.50
11.64
11.03
10.67
10.56
10.74
11.19
11.91
12.81
13.77
14.65
15.31
15.68
15.73
15.47
14.94
14.18
13.22
12.14
11.03
10.00
9.10
8.32
7.60
6.83
5.95
4.97
3.99
3.14
2.49
2.02
1.59
1.04
0.23
-0.82
-2.00
-3.14
-4.15
-5.07
-6.03
-7.18
-8.61
-10.27
-12.04
-13.80
-15.52
-17.26
-19.08
-20.98
-22.94
-24.89
-26.82
-28.79
-30.87
-33.00
-34.96
-36.29
-36.43
-34.78
-31.01
-25.12
-17.50
-8.97
-0.51
6.93
12.67
16.41
18.27
18.58
17.81
16.40
14.72
13.10
11.83
11.14
11.18
11.91
13.16
14.66
16.15
17.52
18.78
20.07
21.56
23.32
25.25
27.06
28.30
28.55
27.52
25.24
22.06
18.56
15.40
13.02
11.61
11.04
10.99
11.19
11.47
11.85
12.41
13.23
14.32
15.65
17.15
18.82
20.72
22.95
25.60
28.73
32.30
36.19
40.19
44.11
47.87
51.51
55.23
59.22
63.61
68.38
73.38
78.44
83.55
88.90
94.95
102.31
111.48
122.80
136.35
152.11
170.14
190.78
214.56
241.88
272.56
305.49
338.75
370.16
397.82
420.48
437.40
447.94
451.30
446.55
432.96
410.43
379.67
342.05
299.30
253.20
205.56
158.14
112.39
68.99
27.44
-13.94
-57.47
-104.77
-155.73
-208.27
-258.87
-304.00
-341.58
-371.81
-397.23
-421.95
-450.35
-485.34
-526.98
-571.47
-611.39
-637.39
-640.89
-617.21
-567.61
-499.36
-423.78
-353.18
-297.36
-261.17
-243.68
-239.42
-241.21
-243.71
-245.25
-248.02
-256.31
-273.45
-299.25
-329.31
-356.82
-376.10
-386.34
-390.75
-394.15
-399.39
-405.12
-406.28
-397.03
-374.16
-339.12
-298.97
-261.53
-231.78
-209.85
-191.84
-172.51
-148.39
-119.16
-87.25
-58.04
-35.23
-19.36
-8.00
2.61
15.44
31.31
48.85
77.69
120.47
174.25
231.31
282.80
322.70
349.00
362.56
365.42
359.74
345.73
324.17
296.83
266.47
236.15
208.27
184.24
164.51
148.80
135.42
123.00
110.81
98.87
87.65
77.70
69.43
63.17
59.14
56.73
55.21
53.95
52.67
51.53
51.10
52.45
57.17
65.06
76.33
91.29
109.97
131.58
153.97
173.60
186.28
188.56
179.08
159.61
134.45
109.19
88.85
76.47
72.41
74.80
80.66
87.06
92.21
95.30
96.21
95.01
91.71
86.23
78.70
69.74
60.55
52.60
46.87
43.38
41.29
39.38
36.78
33.49
30.26
28.10
27.61
28.54
29.81
30.05
28.13
23.62
16.92
8.98
1.01
-5.85
-10.81
-13.46
-13.74
-11.89
-8.37
-3.82
0.92
4.97
7.44
7.71
5.50
1.00
-5.20
-12.20
-18.98
-24.65
-28.53
-30.31
-30.05
-28.10
-25.02
-21.37
-17.64
-14.18
-11.19
-8.77
-6.97
-5.75
-5.04
-4.67
-4.43
-4.03
-3.13
-1.47
1.10
4.46
8.27
11.99
15.10
17.24
18.31
18.47
17.98
17.10
15.98
14.67
13.17
11.42
9.36
6.82
3.65
-0.21
-4.56
-8.99
-12.99
-16.28
-19.04
-21.84
-25.39
-30.10
-35.76
-41.60
-46.62
-50.02
-51.51
-51.38
-50.20
-48.54
-46.70
-44.76
-42.70
-40.55
-38.44
-36.45
-34.54
-32.47
-29.93
-26.65
-22.64
-18.18
-13.77
-9.86
-6.73
-4.38
-2.55
-0.89
0.88
2.81
4.75
6.33
7.10
6.68
4.89
1.79
-2.28
-6.69
-10.66
-13.44
-14.47
-13.62
-11.07
-7.39
-3.37
0.24
2.94
4.59
5.44
5.92
6.45
7.43
8.92
10.68
12.26
13.18
13.12
12.02
10.06
7.62
5.37
3.86
3.43
4.16
5.94
8.71
12.62
18.18
24.64
31.47
37.95
43.31
46.87
48.28
47.59
45.10
41.18
36.07
30.07
23.45
16.51
9.75
3.68
-1.23
-4.76
-7.00
-8.32
-9.06
-9.58
-10.08
-10.65
-11.22
-11.70
-11.97
-12.01
-11.83
-11.42
-10.84
-10.16
-9.46
-8.80
-8.25
-7.85
-7.63
-7.62
-7.77
-8.02
-8.31
-8.57
-8.68
-8.51
-7.87
-6.61
-4.70
-2.27
0.39
2.90
4.93
6.32
7.04
7.20
6.90
6.27
5.43
4.53
3.78
3.43
3.64
4.50
5.95
7.85
9.95
12.09
13.89
15.14
15.45
14.61
12.55
9.40
5.38
0.84
-3.90
-8.50
-12.71
-16.33
-19.17
-21.14
-22.22
-22.55
-22.31
-21.68
-20.77
-19.60
-18.13
-16.36
-14.35
-12.26
-10.32
-8.66
-7.39
-6.50
-5.93
-5.59
-5.46
-5.54
-5.86
-6.45
-7.21
-8.01
-8.65
-8.95
-8.86
-8.43
-7.86
-7.36
-7.08
-7.06
-7.24
-7.49
-7.73
-7.91
-8.00
-7.99
-7.86
-7.53
-6.82
-5.59
-3.73
-1.29
1.49
4.35
6.92
8.94
10.22
10.76
10.65
10.04
9.13
7.82
6.25
4.64
3.28
2.35
1.92
1.89
2.06
2.22
2.30
2.40
2.71
3.40
4.48
5.76
6.88
7.47
7.22
6.04
4.02
1.46
-1.30
-3.97
-6.35
-8.36
-9.98
-11.15
-11.77
-11.69
-10.79
-9.08
-6.72
-3.91
-0.90
2.16
5.20
8.10
10.74
12.92
14.42
15.09
14.88
13.79
11.93
9.46
6.60
3.59
0.69
-1.97
-4.37
-6.61
-8.86
-11.24
-13.76
-16.21
-18.33
-19.76
-20.20
-19.44
-17.38
-14.13
-9.91
-5.09
-0.12
4.52
8.44
11.43
13.45
14.66
15.26
15.48
15.44
15.15
14.63
13.91
13.06
12.20
11.39
10.60
9.79
8.90
7.93
6.98
6.14
5.50
5.06
4.75
4.40
3.86
3.03
1.89
0.57
-0.75
-1.86
-2.64
-3.06
-3.25
-3.43
-3.82
-4.65
-5.95
-7.74
-9.88
-12.15
-14.27
-16.01
-17.18
-17.70
-17.53
-16.68
-15.15
-12.99
-10.27
-7.19
-4.04
-1.15
1.19
2.77
3.57
3.64
3.15
2.23
0.98
-0.55
-2.35
-4.41
-6.75
-9.31
-12.01
-14.62
-16.84
-18.30
-18.56
-17.34
-14.56
-10.51
-5.72
-0.88
3.44
6.86
9.27
10.80
11.65
12.03
12.13
12.10
12.09
12.23
12.55
13.00
13.39
13.56
13.38
12.88
12.25
11.75
11.59
11.83
12.35
12.93
13.32
13.37
13.04
12.40
11.49
10.35
9.01
7.50
5.96
4.50
3.21
2.14
1.21
0.31
-0.63
-1.62
-2.60
-3.46
-4.15
-4.69
-5.14
-5.60
-6.14
-6.80
-7.58
-8.44
-9.32
-10.19
-11.04
-11.87
-12.73
-13.67
-14.78
-16.17
-17.90
-19.96
-22.30
-24.78
-27.24
-29.50
-31.35
-32.53
-32.74
-31.62
-28.92
-24.57
-18.77
-11.97
-4.81
2.09
8.21
13.23
17.08
19.77
21.44
22.23
22.29
21.76
20.80
19.61
18.37
17.25
16.34
15.68
15.28
15.10
15.07
15.15
15.24
15.26
15.10
14.66
13.92
12.90
11.67
10.34
9.01
7.78
6.74
5.91
5.31
4.84
4.40
3.84
3.08
2.14
1.12
0.17
-0.58
-1.11
-1.47
-1.83
-2.36
-3.19
-4.38
-5.89
-7.60
-9.35
-11.06
-12.63
-14.07
-15.41
-16.72
-18.06
-19.52
-21.14
-22.93
-24.80
-26.55
-27.93
-28.64
-28.44
-27.23
-25.08
-22.19
-18.84
-15.35
-12.01
-9.13
-6.88
-5.33
-4.38
-3.76
-3.15
-2.21
-0.70
1.48
4.33
7.75
11.56
15.51
19.31
22.68
25.43
27.47
28.78
29.37
29.22
28.34
26.79
24.80
22.66
20.69
19.05
17.69
16.38
14.82
12.83
10.43
7.91
5.57
3.68
2.31
1.32
0.46
-0.50
-1.71
-3.15
-4.70
-6.25
-7.70
-9.02
-10.22
-11.33
-12.37
-13.40
-14.41
-15.41
-16.35
-17.16
-17.76
-18.16
-18.45
-18.75
-19.16
-19.66
-20.07
-20.16
-19.64
-18.32
-16.13
-13.11
-9.44
-5.36
-1.17
2.81
6.28
9.02
10.90
11.90
12.08
11.63
10.79
9.80
8.87
8.15
7.68
7.44
7.43
7.66
8.14
8.87
9.76
10.66
11.42
11.92
12.12
12.05
11.83
11.57
11.37
11.25
11.18
11.12
11.00
10.80
10.51
10.14
9.70
9.20
8.63
8.01
7.34
6.63
5.84
4.92
3.85
2.64
1.38
0.15
-1.00
-2.06
-3.10
-4.16
-5.26
-6.37
-7.42
-8.39
-9.30
-10.20
-11.15
-12.18
-13.35
-14.65
-16.08
-17.57
-18.98
-20.13
-20.74
-20.60
-19.55
-17.55
-14.65
-11.07
-7.04
-2.90
1.04
4.46
7.14
8.98
10.02
10.41
10.38
10.13
9.82
9.52
9.24
9.04
8.94
9.03
9.38
9.99
10.81
11.68
12.40
12.84
12.88
12.51
11.81
10.87
9.82
8.74
7.67
6.65
5.71
4.87
4.17
3.60
3.15
2.74
2.31
1.78
1.11
0.31
-0.59
-1.53
-2.43
-3.23
-3.93
-4.58
-5.32
-6.31
-7.67
-9.43
-11.45
-13.51
-15.41
-17.03
-18.41
-19.75
-21.27
-23.10
-25.24
-27.56
-29.82
-31.81
-33.29
-34.02
-33.81
-32.51
-30.11
-26.75
-22.71
-18.34
-13.97
-9.78
-5.81
-1.98
1.83
5.68
9.50
13.15
16.42
19.18
21.34
22.97
24.17
25.06
25.69
26.06
26.19
26.09
25.80
25.39
24.91
24.36
23.71
22.86
21.73
20.30
18.68
17.02
15.52
14.32
13.45
12.79
12.17
11.42
10.47
9.41
8.37
7.49
6.77
6.13
5.43
4.54
3.46
2.31
1.22
0.30
-0.45
-1.11
-1.79
-2.63
-3.65
-4.87
-6.23
-7.69
-9.20
-10.75
-12.33
-13.94
-15.59
-17.27
-18.98
-20.70
-22.45
-24.17
-25.78
-27.13
-27.97
-27.97
-26.86
-24.48
-20.88
-16.39
-11.48
-6.68
-2.38
1.19
4.03
6.23
7.93
9.23
10.17
10.80
11.17
11.40
11.62
11.93
12.35
12.87
13.40
13.92
14.41
14.87
15.31
15.69
15.94
16.01
15.85
15.47
14.88
14.14
13.30
12.44
11.67
11.06
10.63
10.34
10.06
9.69
9.17
8.50
7.76
7.01
6.31
5.65
5.03
4.38
3.66
2.82
1.81
0.62
-0.72
-2.12
-3.46
-4.66
-5.72
-6.68
-7.68
-8.84
-10.19
-11.71
-13.22
-14.56
-15.62
-16.39
-16.98
-17.57
-18.38
-19.51
-21.03
-22.83
-24.67
-26.20
-26.98
-26.66
-25.03
-22.12
-18.21
-13.71
-9.09
-4.75
-0.98
2.05
4.23
5.62
6.33
6.60
6.70
6.91
7.38
8.12
9.04
9.97
10.81
11.55
12.24
12.96
13.72
14.43
14.94
15.11
14.86
14.31
13.62
12.99
12.52
12.21
11.90
11.48
10.87
10.12
9.35
8.66
8.07
7.47
6.72
5.69
4.43
3.08
1.82
0.80
-0.01
-0.71
-1.44
-2.30
-3.24
-4.19
-5.08
-5.92
-6.81
-7.84
-9.06
-10.39
-11.69
-12.82
-13.71
-14.43
-15.12
-15.97
-17.11
-18.57
-20.29
-22.08
-23.67
-24.74
-25.03
-24.35
-22.61
-19.87
-16.26
-12.01
-7.42
-2.79
1.49
5.15
7.97
9.89
10.98
11.40
11.35
11.05
10.69
10.46
10.46
10.73
11.20
11.74
12.23
12.59
12.82
12.99
13.12
13.25
13.34
13.33
13.19
12.86
12.33
11.63
10.78
9.84
8.85
7.84
6.78
5.67
4.58
3.61
2.92
2.64
2.71
2.98
3.19
3.10
2.62
1.78
0.73
-0.35
-1.32
-2.12
-2.69
-3.07
-3.32
-3.50
-3.73
-4.12
-4.76
-5.69
-6.92
-8.40
-10.07
-11.90
-13.82
-15.83
-17.93
-20.13
-22.45
-24.87
-27.42
-30.09
-32.83
-35.48
-37.85
-39.62
-40.45
-40.04
-38.18
-34.79
-29.96
-23.93
-17.13
-10.04
-3.17
3.17
8.82
13.79
18.13
21.79
24.64
26.53
27.44
27.53
27.15
26.64
26.26
26.06
25.94
25.76
25.44
24.98
24.42
23.80
23.07
22.19
21.15
19.97
18.77
17.65
16.72
16.00
15.43
14.87
14.23
13.41
12.41
11.26
10.04
8.84
7.75
6.84
6.14
5.59
5.12
4.55
3.79
2.80
1.63
0.41
-0.77
-1.88
-2.99
-4.19
-5.56
-7.13
-8.89
-10.80
-12.82
-14.85
-16.77
-18.44
-19.75
-20.70
-21.45
-22.27
-23.38
-24.86
-26.55
-28.07
-28.91
-28.65
-27.03
-24.05
-19.95
-15.15
-10.12
-5.34
-1.18
2.16
4.62
6.30
7.35
7.94
8.25
8.39
8.48
8.61
8.83
9.18
9.64
10.16
10.69
11.21
11.73
12.26
12.86
13.46
13.98
14.27
14.17
13.61
12.62
11.31
9.84
8.29
6.68
4.99
3.19
1.39
-0.22
-1.44
-2.07
-2.10
-1.65
-0.97
-0.32
0.06
0.08
-0.27
-0.91
-1.80
-2.88
-4.12
-5.49
-6.92
-8.32
-9.62
-10.87
-12.22
-13.90
-16.11
-18.88
-22.03
-25.15
-27.78
-29.46
-29.84
-28.78
-26.24
-22.35
-17.33
-11.56
-5.49
0.40
5.65
10.00
13.31
15.64
17.09
17.81
17.92
17.57
16.98
16.39
16.08
16.21
16.79
17.68
18.64
19.46
20.00
20.21
20.10
19.78
19.38
19.03
18.84
18.78
18.67
18.26
17.34
15.82
13.86
11.74
9.76
8.08
6.62
5.17
3.52
1.59
-0.54
-2.64
-4.53
-6.15
-7.59
-9.05
-10.71
-12.60
-14.55
-16.33
-17.70
-18.59
-19.08
-19.39
-19.73
-20.24
-21.00
-22.08
-23.52
-25.32
-27.42
-29.54
-31.24
-32.03
-31.56
-29.73
-26.74
-22.99
-18.90
-14.86
-11.09
-7.73
-4.77
-2.20
0.13
2.41
4.81
7.45
10.32
13.33
16.30
19.10
21.61
23.74
25.41
26.55
27.13
27.20
26.90
26.45
25.99
25.62
25.28
24.83
24.14
23.13
21.81
20.28
18.65
16.99
15.32
13.65
11.96
10.26
8.57
6.91
5.31
3.78
2.33
0.93
-0.48
-1.98
-3.64
-5.50
-7.52
-9.63
-11.66
-13.48
-15.04
-16.41
-17.80
-19.44
-21.46
-23.75
-25.98
-27.60
-28.07
-27.08
-24.60
-20.89
-16.38
-11.45
-6.37
-1.37
3.31
7.36
10.44
12.35
13.11
13.02
12.49
11.89
11.36
10.88
10.31
9.58
8.74
7.96
7.38
7.02
6.77
6.48
6.01
5.36
4.58
3.75
2.88
1.92
0.82
-0.41
-1.65
-2.75
-3.60
-4.20
-4.67
-5.18
-5.89
-6.90
-8.24
-9.81
-11.51
-13.10
-14.41
-15.32
-15.83
-16.08
-16.33
-16.80
-17.62
-18.78
-20.11
-21.34
-22.17
-22.28
-21.45
-19.55
-16.61
-12.85
-8.57
-4.15
0.09
3.94
7.30
10.16
12.53
14.44
15.90
16.91
17.51
17.82
17.97
18.12
18.36
18.72
19.13
19.50
19.74
19.82
19.73
19.47
19.00
18.23
17.07
15.51
13.63
11.58
9.52
7.60
5.94
4.58
3.56
2.82
2.28
1.80
1.25
0.57
-0.21
-1.02
-1.83
-2.73
-3.86
-5.34
-7.16
-9.11
-10.96
-12.53
-13.83
-15.02
-16.34
-17.93
-19.82
-21.86
-23.82
-25.41
-26.38
-26.49
-25.53
-23.42
-20.23
-16.16
-11.53
-6.69
-1.93
2.47
6.35
9.57
12.09
13.92
15.17
15.95
16.43
16.74
16.98
17.24
17.58
18.01
18.49
18.93
19.20
19.23
18.98
18.48
17.77
16.86
15.74
14.37
12.76
10.99
9.23
7.67
6.48
5.72
5.33
5.14
4.94
4.57
3.91
2.95
1.73
0.34
-1.13
-2.64
-4.12
-5.51
-6.72
-7.72
-8.55
-9.31
-10.19
-11.27
-12.51
-13.68
-14.51
-14.85
-14.79
-14.66
-14.89
-15.85
-17.57
-19.81
-22.08
-23.81
-24.54
-23.96
-22.01
-18.76
-14.49
-9.59
-4.54
0.21
4.28
7.51
9.92
11.61
12.74
13.37
13.54
13.32
12.77
12.06
11.36
10.77
10.30
9.86
9.36
8.71
7.96
7.13
6.29
5.47
4.69
3.98
3.41
3.07
3.06
3.47
4.31
5.57
7.18
9.04
10.96
12.74
14.12
14.89
14.91
14.20
12.89
11.17
9.17
7.00
4.65
2.12
-0.51
-3.10
-5.45
-7.42
-8.95
-10.18
-11.32
-12.61
-14.23
-16.24
-18.59
-21.17
-23.83
-26.30
-28.27
-29.31
-29.02
-27.12
-23.61
-18.81
-13.27
-7.63
-2.41
2.08
5.74
8.57
10.57
11.76
12.22
12.15
11.88
11.73
11.89
12.36
13.01
13.63
14.14
14.55
14.98
15.50
16.07
16.61
16.96
17.05
16.87
16.47
15.89
15.13
14.13
12.88
11.39
9.77
8.19
6.78
5.59
4.60
3.72
2.88
2.06
1.24
0.47
-0.26
-0.98
-1.79
-2.76
-3.96
-5.40
-7.04
-8.77
-10.45
-11.91
-13.05
-13.85
-14.42
-14.95
-15.69
-16.79
-18.33
-20.29
-22.51
-24.75
-26.64
-27.76
-27.75
-26.34
-23.50
-19.44
-14.53
-9.24
-3.98
0.89
5.14
8.61
11.18
12.87
13.78
14.08
14.01
13.74
13.43
13.19
13.07
13.12
13.34
13.72
14.24
14.86
15.51
16.12
16.58
16.77
16.61
16.10
15.28
14.26
13.15
12.01
10.87
9.76
8.66
7.59
6.55
5.52
4.51
3.58
2.78
2.19
1.79
1.50
1.15
0.57
-0.30
-1.42
-2.65
-3.85
-4.97
-6.07
-7.24
-8.53
-9.93
-11.34
-12.68
-13.86
-14.88
-15.78
-16.60
-17.41
-18.26
-19.28
-20.57
-22.23
-24.26
-26.49
-28.54
-29.91
-30.13
-28.84
-25.96
-21.66
-16.37
-10.66
-5.08
-0.09
4.03
7.12
9.17
10.28
10.64
10.54
10.27
10.11
10.21
10.58
11.14
11.72
12.23
12.59
12.85
13.07
13.30
13.56
13.83
14.06
14.18
14.14
13.93
13.55
13.05
12.50
12.02
11.68
11.53
11.53
11.57
11.50
11.18
10.55
9.64
8.58
7.49
6.47
5.53
4.60
3.62
2.52
1.28
-0.11
-1.64
-3.31
-5.05
-6.75
-8.29
-9.59
-10.67
-11.66
-12.75
-14.11
-15.83
-17.82
-19.94
-21.97
-23.61
-24.58
-24.60
-23.48
-21.18
-17.85
-13.81
-9.46
-5.17
-1.24
2.15
4.94
7.10
8.65
9.58
9.91
9.66
8.89
7.80
6.65
5.74
5.34
5.53
6.24
7.29
8.46
9.61
10.65
11.52
12.14
12.45
12.35
11.80
10.81
9.41
7.66
5.59
3.26
0.80
-1.62
-3.80
-5.58
-6.84
-7.58
-7.86
-7.84
-7.74
-7.78
-8.20
-9.15
-10.76
-13.02
-15.79
-18.79
-21.66
-24.02
-25.61
-26.24
-25.88
-24.62
-22.65
-20.24
-17.74
-15.49
-13.75
-12.57
-11.73
-10.86
-9.54
-7.51
-4.74
-1.45
2.08
5.60
8.94
12.04
14.83
17.17
18.93
19.98
20.31
20.09
19.59
19.07
18.67
18.42
18.25
18.12
18.05
18.12
18.38
18.79
19.18
19.34
19.10
18.42
17.41
16.26
15.10
13.99
12.87
11.65
10.26
8.76
7.28
5.96
4.90
4.09
3.46
2.93
2.45
1.99
1.51
0.97
0.27
-0.65
-1.84
-3.27
-4.90
-6.64
-8.39
-10.11
-11.74
-13.25
-14.62
-15.81
-16.80
-17.61
-18.35
-19.13
-20.10
-21.31
-22.69
-24.02
-25.01
-25.36
-24.91
-23.62
-21.53
-18.72
-15.32
-11.49
-7.49
-3.61
-0.16
2.64
4.68
5.99
6.64
6.79
6.60
6.27
6.06
6.16
6.70
7.66
8.86
10.15
11.37
12.49
13.56
14.57
15.41
15.92
15.89
15.27
14.14
12.75
11.35
10.12
9.10
8.21
7.33
6.37
5.28
4.12
2.97
1.94
1.13
0.59
0.29
0.08
-0.28
-1.01
-2.24
-3.93
-5.86
-7.75
-9.32
-10.47
-11.25
-11.85
-12.51
-13.42
-14.68
-16.26
-18.03
-19.76
-21.14
-21.83
-21.52
-20.05
-17.44
-13.94
-9.96
-5.96
-2.38
0.53
2.64
4.01
4.74
4.94
4.68
4.01
3.01
1.74
0.31
-1.14
-2.46
-3.52
-4.19
-4.36
-3.93
-2.82
-0.99
1.53
4.54
7.76
10.80
13.32
15.10
16.07
16.34
16.13
15.64
14.98
14.18
13.20
12.01
10.65
9.19
7.75
6.33
4.88
3.35
1.68
-0.10
-1.86
-3.46
-4.85
-6.03
-7.11
-8.26
-9.61
-11.22
-13.09
-15.12
-17.13
-18.87
-20.04
-20.34
-19.59
-17.71
-14.83
-11.18
-7.13
-3.07
0.67
3.82
6.25
7.96
9.05
9.71
10.13
10.46
10.76
11.00
11.14
11.16
11.10
11.09
11.23
11.54
11.98
12.42
12.75
12.90
12.83
12.51
11.93
11.08
10.00
8.80
7.62
6.61
5.86
5.40
5.21
5.20
5.27
5.25
5.00
4.41
3.49
2.37
1.23
0.23
-0.62
-1.42
-2.35
-3.57
-5.09
-6.86
-8.73
-10.61
-12.37
-13.97
-15.37
-16.55
-17.55
-18.42
-19.26
-20.18
-21.23
-22.39
-23.52
-24.37
-24.60
-23.93
-22.16
-19.33
-15.69
-11.64
-7.62
-3.97
-0.87
1.69
3.84
5.75
7.49
9.07
10.37
11.30
11.80
11.96
12.02
12.21
12.69
13.44
14.27
14.91
15.18
15.07
14.73
14.34
14.04
13.85
13.69
13.50
13.24
12.94
12.62
12.27
11.79
11.12
10.23
9.22
8.22
7.40
6.82
6.47
6.23
5.95
5.51
4.82
3.88
2.72
1.42
0.01
-1.43
-2.83
-4.14
-5.35
-6.45
-7.54
-8.69
-9.96
-11.33
-12.72
-14.03
-15.19
-16.20
-17.18
-18.27
-19.55
-20.94
-22.23
-23.09
-23.19
-22.32
-20.43
-17.64
-14.17
-10.28
-6.25
-2.30
1.31
4.39
6.73
8.23
8.91
8.90
8.43
7.76
7.13
6.67
6.46
6.51
6.80
7.34
8.12
9.11
10.20
11.23
12.03
12.49
12.61
12.40
11.95
11.27
10.41
9.39
8.30
7.29
6.51
6.05
5.90
5.93
5.93
5.73
5.27
4.61
3.87
3.19
2.60
2.03
1.33
0.37
-0.91
-2.41
-3.92
-5.23
-6.25
-7.05
-7.83
-8.83
-10.20
-11.94
-13.88
-15.85
-17.71
-19.42
-20.95
-22.23
-23.00
-22.97
-21.86
-19.63
-16.47
-12.82
-9.19
-6.05
-3.73
-2.37
-1.97
-2.37
-3.32
-4.47
-5.50
-6.15
-6.28
-5.83
-4.75
-2.96
-0.38
2.96
6.85
10.92
14.76
18.03
20.55
22.33
23.44
23.97
23.97
23.49
22.63
21.59
20.53
19.56
18.69
17.81
16.86
15.79
14.65
13.48
12.31
11.07
9.69
8.10
6.34
4.56
2.91
1.50
0.33
-0.71
-1.76
-2.92
-4.17
-5.44
-6.60
-7.59
-8.46
-9.34
-10.34
-11.55
-12.95
-14.43
-15.84
-17.10
-18.15
-18.96
-19.45
-19.48
-18.90
-17.60
-15.60
-13.08
-10.24
-7.30
-4.35
-1.45
1.37
3.97
6.14
7.66
8.43
8.56
8.33
8.03
7.92
8.09
8.54
9.20
10.01
10.94
12.00
13.10
14.18
15.16
16.10
17.10
18.32
19.85
21.66
23.57
25.35
26.72
27.52
27.70
27.34
26.61
25.73
24.94
24.39
24.12
24.07
24.04
23.80
23.17
22.03
20.45
18.59
16.70
15.03
13.66
12.48
11.10
8.98
5.61
0.67
-5.76
-13.26
-21.12
-28.62
-35.17
-40.48
-44.55
-47.58
-49.82
-51.46
-52.53
-52.92
-52.49
-51.10
-48.73
-45.45
-41.47
-37.09
-32.69
-28.68
-25.49
-23.44
-22.67
-23.04
-24.20
-25.68
-27.01
-27.87
-28.10
-27.66
-26.55
-24.85
-22.68
-20.27
-17.90
-15.79
-14.01
-12.39
-10.57
-8.19
-5.02
-1.07
3.42
8.04
12.39
16.14
19.07
21.09
22.21
22.55
22.34
21.82
21.28
20.88
20.69
20.66
20.66
20.54
20.11
19.24
17.82
15.79
13.13
9.89
6.20
2.31
-1.47
-4.73
-7.13
-8.44
-8.56
-7.60
-5.76
-3.28
-0.39
2.71
5.77
8.53
10.69
12.02
12.45
12.08
11.19
10.13
9.23
8.70
8.68
9.13
9.96
11.01
12.06
12.90
13.39
13.47
13.18
12.65
12.02
11.37
10.76
10.18
9.66
9.22
8.84
8.46
7.97
7.24
6.27
5.16
4.07
3.16
2.47
1.92
1.35
0.64
-0.27
-1.45
-2.98
-5.07
-7.98
-11.90
-16.85
-22.52
-28.34
-33.53
-37.38
-39.36
-39.29
-37.36
-34.02
-29.95
-25.78
-22.00
-18.82
-16.21
-13.97
-11.88
-9.78
-7.63
-5.38
-3.01
-0.39
2.55
5.79
9.15
12.28
14.81
16.48
17.24
17.28
16.89
16.36
15.82
15.28
14.63
13.80
12.83
11.85
11.05
10.58
10.37
10.25
9.93
9.19
7.97
6.35
4.50
2.58
0.71
-1.09
-2.82
-4.52
-6.26
-8.12
-10.20
-12.55
-15.11
-17.63
-19.74
-21.01
-21.09
-19.83
-17.29
-13.73
-9.49
-4.99
-0.60
3.35
6.61
9.02
10.53
11.21
11.20
10.71
9.95
9.08
8.24
7.53
7.03
6.77
6.76
7.00
7.47
8.12
8.92
9.78
10.57
11.15
11.34
11.03
10.19
8.87
7.19
5.35
3.56
1.99
0.71
-0.27
-1.06
-1.84
-2.79
-3.98
-5.47
-7.19
-9.10
-11.12
-13.09
-14.78
-15.84
-15.89
-14.70
-12.21
-8.69
-4.54
-0.29
3.63
6.88
9.34
10.99
11.88
12.12
11.79
11.01
9.87
8.54
7.23
6.19
5.63
5.67
6.21
7.02
7.75
8.12
7.99
7.36
6.40
5.27
4.12
3.01
1.94
0.86
-0.30
-1.62
-3.13
-4.81
-6.60
-8.39
-10.13
-11.78
-13.38
-15.00
-16.67
-18.37
-19.97
-21.23
-21.85
-21.56
-20.19
-17.73
-14.35
-10.38
-6.17
-2.06
1.75
5.12
7.98
10.29
11.99
13.06
13.51
13.42
12.94
12.22
11.45
10.80
10.40
10.27
10.37
10.58
10.72
10.65
10.31
9.72
8.97
8.13
7.23
6.26
5.18
4.01
2.77
1.53
0.33
-0.84
-2.03
-3.30
-4.65
-6.07
-7.46
-8.80
-10.11
-11.49
-13.02
-14.67
-16.21
-17.26
-17.44
-16.43
-14.16
-10.79
-6.62
-2.09
2.34
6.31
9.52
11.83
13.26
13.98
14.21
14.21
14.09
13.91
13.63
13.22
12.69
12.06
11.39
10.75
10.17
9.72
9.43
9.31
9.28
9.23
8.98
8.39
7.41
6.10
4.64
3.18
1.84
0.60
-0.65
-2.00
-3.51
-5.12
-6.69
-8.10
-9.29
-10.27
-11.15
-12.07
-13.11
-14.35
-15.79
-17.39
-19.09
-20.72
-22.01
-22.61
-22.13
-20.32
-17.16
-12.88
-7.99
-3.06
1.36
4.96
7.67
9.62
11.02
12.02
12.67
12.94
12.81
12.37
11.78
11.27
10.98
10.94
11.10
11.35
11.60
11.84
12.06
12.20
12.16
11.83
11.12
10.02
8.65
7.15
5.66
4.29
3.07
2.00
1.08
0.29
-0.39
-1.05
-1.76
-2.65
-3.76
-5.09
-6.53
-7.93
-9.16
-10.17
-10.98
-11.71
-12.51
-13.53
-14.87
-16.52
-18.35
-20.06
-21.22
-21.46
-20.46
-18.23
-14.96
-11.06
-6.96
-3.00
0.61
3.79
6.46
8.56
9.99
10.72
10.81
10.43
9.85
9.29
8.89
8.65
8.48
8.26
7.91
7.44
6.93
6.44
6.04
5.74
5.50
5.32
5.18
5.08
5.00
4.85
4.56
4.07
3.41
2.73
2.20
1.96
2.02
2.22
2.37
2.31
2.02
1.57
1.05
0.51
-0.07
-0.77
-1.59
-2.47
-3.28
-3.98
-4.63
-5.39
-6.40
-7.64
-8.92
-9.91
-10.32
-9.96
-8.84
-7.14
-5.07
-2.86
-0.67
1.35
3.06
4.35
5.17
5.49
5.40
4.97
4.30
3.50
2.69
2.00
1.59
1.51
1.75
2.15
2.52
2.74
2.82
2.91
3.19
3.77
4.56
5.34
5.87
6.00
5.79
5.43
5.12
4.95
4.81
4.57
4.12
3.53
3.00
2.73
2.81
3.10
3.34
3.21
2.51
1.26
-0.33
-1.96
-3.35
-4.44
-5.27
-6.06
-7.02
-8.29
-9.92
-11.87
-14.06
-16.37
-18.65
-20.69
-22.19
-22.82
-22.31
-20.58
-17.76
-14.17
-10.22
-6.28
-2.64
0.50
2.96
4.57
5.19
4.77
3.43
1.50
-0.61
-2.48
-3.82
-4.52
-4.62
-4.26
-3.57
-2.72
-1.87
-1.17
-0.75
-0.68
-0.92
-1.37
-1.93
-2.48
-2.95
-3.24
-3.27
-2.97
-2.33
-1.45
-0.49
0.36
1.03
1.54
2.00
2.50
3.07
3.62
4.07
4.34
4.48
4.54
4.56
4.51
4.26
3.63
2.48
0.80
-1.22
-3.21
-4.66
-5.10
-4.27
-2.23
0.67
3.91
7.01
9.66
11.80
13.44
14.65
15.39
15.60
15.24
14.35
13.08
11.65
10.29
9.13
8.25
7.62
7.15
6.73
6.29
5.79
5.25
4.71
4.18
3.65
3.09
2.39
1.52
0.41
-0.90
-2.39
-3.96
-5.51
-6.96
-8.21
-9.24
-10.09
-10.82
-11.54
-12.29
-13.08
-13.85
-14.57
-15.21
-15.78
-16.31
-16.88
-17.56
-18.42
-19.47
-20.64
-21.72
-22.40
-22.33
-21.17
-18.72
-15.01
-10.27
-4.97
0.37
5.22
9.25
12.34
14.59
16.19
17.31
18.00
18.23
17.92
17.11
15.92
14.59
13.35
12.38
11.75
11.47
11.49
11.77
12.26
12.83
13.31
13.49
13.24
12.53
11.46
10.22
9.03
8.00
7.14
6.35
5.49
4.42
3.07
1.45
-0.36
-2.22
-4.04
-5.75
-7.32
-8.81
-10.27
-11.75
-13.27
-14.82
-16.37
-17.87
-19.33
-20.77
-22.25
-23.83
-25.47
-27.05
-28.28
-28.78
-28.13
-26.07
-22.55
-17.80
-12.30
-6.57
-1.09
3.83
8.02
11.46
14.14
16.04
17.14
17.48
17.20
16.56
15.87
15.40
15.28
15.50
15.97
16.55
17.13
17.64
18.04
18.25
18.23
17.93
17.33
16.48
15.44
14.29
13.09
11.86
10.66
9.51
8.42
7.39
6.37
5.28
4.04
2.60
1.00
-0.64
-2.18
-3.48
-4.51
-5.37
-6.23
-7.32
-8.77
-10.59
-12.66
-14.81
-16.82
-18.55
-19.93
-20.96
-21.76
-22.56
-23.64
-25.23
-27.43
-30.03
-32.54
-34.33
-34.80
-33.61
-30.84
-26.85
-22.20
-17.39
-12.80
-8.56
-4.70
-1.19
2.01
4.84
7.33
9.54
11.62
13.76
16.07
18.46
20.73
22.55
23.68
24.10
23.94
23.44
22.87
22.34
21.83
21.22
20.39
19.30
17.99
16.63
15.32
14.18
13.20
12.31
11.42
10.48
9.50
8.53
7.66
6.95
6.39
5.97
5.64
5.34
4.97
4.43
3.64
2.58
1.30
-0.10
-1.50
-2.83
-4.05
-5.16
-6.16
-7.09
-8.04
-9.15
-10.64
-12.63
-15.18
-18.12
-21.09
-23.59
-25.08
-25.10
-23.43
-20.12
-15.56
-10.36
-5.11
-0.30
3.77
6.98
9.30
10.71
11.26
11.05
10.33
9.39
8.48
7.79
7.37
7.22
7.35
7.78
8.53
9.54
10.68
11.76
12.63
13.20
13.44
13.34
12.91
12.18
11.22
10.17
9.18
8.38
7.78
7.31
6.77
5.97
4.80
3.24
1.43
-0.38
-1.94
-3.08
-3.82
-4.33
-4.87
-5.66
-6.79
-8.23
-9.84
-11.53
-13.24
-14.92
-16.58
-18.15
-19.65
-21.12
-22.66
-24.33
-26.07
-27.62
-28.60
-28.52
-27.00
-23.90
-19.33
-13.66
-7.41
-1.17
4.57
9.44
13.28
16.04
17.76
18.52
18.48
17.81
16.80
15.69
14.73
14.01
13.56
13.34
13.34
13.58
14.02
14.55
15.00
15.18
14.97
14.35
13.42
12.28
11.06
9.82
8.61
7.50
6.52
5.68
4.95
4.31
3.73
3.22
2.83
2.54
2.30
2.02
1.59
0.97
0.20
-0.68
-1.58
-2.49
-3.40
-4.35
-5.39
-6.54
-7.84
-9.28
-10.82
-12.38
-13.87
-15.25
-16.58
-17.97
-19.58
-21.50
-23.69
-25.87
-27.63
-28.47
-28.00
-26.02
-22.58
-18.01
-12.74
-7.27
-1.99
2.82
6.98
10.33
12.76
14.18
14.64
14.30
13.46
12.52
11.74
11.31
11.24
11.46
11.90
12.51
13.27
14.15
15.07
15.88
16.46
16.71
16.62
16.24
15.62
14.80
13.79
12.59
11.24
9.85
8.55
7.45
6.61
5.99
5.47
4.93
4.29
3.59
2.92
2.38
1.98
1.66
1.27
0.67
-0.17
-1.19
-2.25
-3.22
-4.02
-4.70
-5.37
-6.17
-7.19
-8.46
-9.89
-11.35
-12.73
-13.99
-15.16
-16.32
-17.56
-18.93
-20.47
-22.17
-23.98
-25.76
-27.22
-27.98
-27.60
-25.75
-22.32
-17.52
-11.82
-5.81
-0.05
5.05
9.28
12.54
14.82
16.16
16.64
16.40
15.61
14.53
13.46
12.62
12.19
12.23
12.66
13.35
14.14
14.86
15.38
15.59
15.48
15.04
14.32
13.38
12.30
11.12
9.87
8.57
7.24
5.94
4.74
3.67
2.71
1.85
1.02
0.24
-0.48
-1.12
-1.64
-2.04
-2.36
-2.64
-2.94
-3.33
-3.86
-4.59
-5.53
-6.62
-7.75
-8.82
-9.74
-10.51
-11.20
-11.89
-12.66
-13.62
-14.87
-16.51
-18.56
-20.91
-23.25
-25.13
-26.01
-25.45
-23.22
-19.33
-14.10
-8.07
-1.89
3.81
8.56
12.12
14.52
15.91
16.49
16.39
15.73
14.66
13.42
12.35
11.78
11.84
12.42
13.16
13.70
13.82
13.55
13.16
12.92
12.99
13.30
13.60
13.61
13.17
12.26
11.04
9.68
8.35
7.08
5.88
4.69
3.56
2.58
1.86
1.48
1.39
1.45
1.46
1.25
0.73
-0.07
-1.04
-2.05
-3.01
-3.89
-4.67
-5.37
-6.00
-6.58
-7.17
-7.84
-8.67
-9.70
-10.91
-12.23
-13.55
-14.79
-15.93
-17.05
-18.34
-19.98
-22.10
-24.65
-27.33
-29.61
-30.81
-30.34
-27.86
-23.46
-17.62
-11.06
-4.58
1.19
5.91
9.52
12.12
13.88
14.97
15.49
15.53
15.21
14.70
14.18
13.82
13.73
13.95
14.40
14.97
15.54
16.03
16.43
16.74
16.92
16.89
16.52
15.74
14.53
13.00
11.33
9.77
8.47
7.53
6.91
6.48
6.09
5.62
5.01
4.32
3.66
3.14
2.82
2.63
2.43
2.04
1.38
0.46
-0.60
-1.60
-2.41
-2.98
-3.40
-3.82
-4.42
-5.26
-6.32
-7.49
-8.62
-9.68
-10.65
-11.58
-12.52
-13.47
-14.42
-15.40
-16.48
-17.79
-19.41
-21.33
-23.33
-25.00
-25.80
-25.27
-23.12
-19.40
-14.48
-8.95
-3.45
1.54
5.75
9.12
11.66
13.40
14.31
14.39
13.70
12.44
10.88
9.33
8.07
7.27
6.99
7.22
7.89
8.92
10.19
11.53
12.77
13.69
14.11
13.93
13.18
12.04
10.76
9.60
8.71
8.05
7.49
6.87
6.10
5.18
4.24
3.41
2.79
2.38
2.07
1.71
1.12
0.23
-0.97
-2.38
-3.85
-5.21
-6.36
-7.28
-7.97
-8.49
-8.92
-9.38
-9.98
-10.79
-11.81
-12.97
-14.18
-15.43
-16.81
-18.47
-20.52
-22.89
-25.28
-27.18
-28.05
-27.47
-25.26
-21.58
-16.79
-11.41
-5.94
-0.77
3.79
7.60
10.57
12.64
13.79
14.08
13.63
12.70
11.60
10.67
10.18
10.26
10.90
11.90
12.98
13.88
14.44
14.67
14.71
14.71
14.75
14.74
14.51
13.87
12.77
11.29
9.66
8.12
6.84
5.85
5.07
4.38
3.66
2.87
2.08
1.40
0.95
0.78
0.83
0.94
0.95
0.77
0.42
0.06
-0.16
-0.19
-0.13
-0.22
-0.74
-1.86
-3.58
-5.75
-8.13
-10.48
-12.68
-14.68
-16.49
-18.10
-19.52
-20.79
-22.01
-23.31
-24.80
-26.41
-27.83
-28.52
-27.89
-25.54
-21.47
-16.09
-10.11
-4.25
0.96
5.30
8.78
11.47
13.43
14.61
15.01
14.71
14.00
13.21
12.64
12.41
12.45
12.58
12.63
12.59
12.54
12.65
13.05
13.72
14.49
15.12
15.34
15.02
14.17
12.92
11.51
10.19
9.07
8.18
7.47
6.82
6.15
5.44
4.73
4.08
3.52
3.04
2.58
2.08
1.45
0.68
-0.20
-1.11
-1.96
-2.71
-3.40
-4.17
-5.15
-6.40
-7.84
-9.33
-10.68
-11.78
-12.65
-13.41
-14.17
-15.04
-16.05
-17.22
-18.60
-20.19
-21.90
-23.53
-24.71
-25.08
-24.28
-22.14
-18.64
-14.03
-8.66
-3.05
2.28
6.85
10.33
12.61
13.74
13.92
13.40
12.42
11.24
10.07
9.13
8.59
8.54
8.98
9.77
10.72
11.62
12.35
12.85
13.12
13.18
13.01
12.58
11.86
10.89
9.71
8.42
7.11
5.84
4.64
3.53
2.53
1.62
0.81
0.05
-0.68
-1.38
-2.03
-2.62
-3.20
-3.88
-4.77
-5.93
-7.29
-8.70
-10.00
-11.08
-11.99
-12.85
-13.79
-14.87
-16.14
-17.57
-19.18
-20.98
-22.87
-24.61
-25.79
-25.91
-24.58
-21.64
-17.24
-11.79
-5.82
0.17
5.78
10.78
14.99
18.29
20.57
21.75
21.80
20.83
19.05
16.77
14.35
12.16
10.44
9.33
8.78
8.67
8.85
9.22
9.72
10.33
10.98
11.55
11.90
11.94
11.62
11.02
10.27
9.53
8.88
8.35
7.88
7.40
6.88
6.27
5.60
4.91
4.18
3.38
2.40
1.15
-0.39
-2.13
-3.89
-5.50
-6.94
-8.36
-10.00
-12.05
-14.44
-16.83
-18.72
-19.70
-19.69
-18.98
-18.16
-17.80
-18.21
-19.27
-20.46
-21.08
-20.52
-18.41
-14.75
-9.88
-4.31
1.37
6.65
11.16
14.68
17.11
18.44
18.72
18.10
16.80
15.10
13.30
11.66
10.38
9.60
9.36
9.64
10.30
11.12
11.84
12.23
12.21
11.83
11.28
10.66
10.04
9.31
8.36
7.17
5.87
4.70
3.90
3.57
3.62
3.79
3.77
3.34
2.45
1.20
-0.18
-1.50
-2.63
-3.60
-4.56
-5.67
-7.04
-8.71
-10.56
-12.40
-14.02
-15.30
-16.17
-16.71
-17.07
-17.47
-18.08
-18.98
-20.06
-21.05
-21.54
-21.15
-19.64
-17.01
-13.46
-9.36
-5.11
-1.01
2.70
5.91
8.54
10.53
11.78
12.25
11.94
11.01
9.73
8.45
7.48
7.02
7.08
7.53
8.20
8.94
9.70
10.46
11.20
11.86
12.33
12.48
12.23
11.54
10.46
9.10
7.62
6.18
4.88
3.75
2.73
1.70
0.58
-0.68
-2.06
-3.48
-4.83
-6.05
-7.07
-7.86
-8.44
-8.92
-9.47
-10.33
-11.69
-13.61
-15.95
-18.36
-20.37
-21.56
-21.57
-20.25
-17.68
-14.07
-9.77
-5.19
-0.70
3.35
6.74
9.33
11.10
12.11
12.48
12.36
11.93
11.32
10.65
10.01
9.46
9.00
8.64
8.37
8.16
7.97
7.75
7.47
7.10
6.63
6.04
5.33
4.53
3.62
2.61
1.53
0.39
-0.74
-1.77
-2.61
-3.16
-3.42
-3.44
-3.35
-3.31
-3.45
-3.85
-4.51
-5.39
-6.41
-7.46
-8.46
-9.33
-10.09
-10.84
-11.75
-12.96
-14.55
-16.37
-18.11
-19.33
-19.61
-18.64
-16.36
-12.92
-8.62
-3.91
0.78
5.05
8.61
11.34
13.26
14.51
15.25
15.62
15.68
15.47
15.07
14.59
14.22
14.06
14.14
14.35
14.53
14.54
14.32
13.88
13.27
12.51
11.59
10.47
9.14
7.63
5.99
4.33
2.73
1.25
-0.05
-1.19
-2.21
-3.17
-4.09
-4.95
-5.71
-6.33
-6.85
-7.34
-7.93
-8.71
-9.67
-10.71
-11.69
-12.47
-13.02
-13.40
-13.72
-14.09
-14.55
-15.09
-15.71
-16.45
-17.44
-18.78
-20.47
-22.26
-23.71
-24.25
-23.44
-21.09
-17.38
-12.80
-7.90
-3.19
0.98
4.48
7.32
9.53
11.16
12.24
12.80
12.92
12.73
12.40
12.10
11.93
11.92
12.06
12.29
12.60
13.01
13.56
14.26
15.05
15.80
16.33
16.45
16.06
15.16
13.85
12.31
10.74
9.31
8.14
7.25
6.61
6.13
5.70
5.21
4.53
3.54
2.16
0.40
-1.68
-3.90
-6.06
-7.94
-9.36
-10.23
-10.60
-10.62
-10.55
-10.64
-11.12
-12.09
-13.58
-15.53
-17.83
-20.30
-22.67
-24.54
-25.49
-25.15
-23.36
-20.23
-16.07
-11.37
-6.56
-1.96
2.21
5.84
8.86
11.22
12.86
13.81
14.15
14.03
13.61
13.01
12.35
11.72
11.24
11.03
11.21
11.76
12.56
13.39
14.01
14.30
14.23
13.89
13.38
12.72
11.87
10.73
9.31
7.72
6.21
4.99
4.17
3.66
3.24
2.70
1.96
1.04
0.05
-0.90
-1.77
-2.55
-3.27
-3.95
-4.62
-5.32
-6.14
-7.17
-8.42
-9.81
-11.20
-12.47
-13.58
-14.60
-15.65
-16.91
-18.50
-20.44
-22.61
-24.70
-26.30
-26.94
-26.29
-24.21
-20.81
-16.41
-11.43
-6.28
-1.31
3.20
7.04
10.00
11.96
12.91
13.01
12.55
11.90
11.41
11.32
11.71
12.49
13.43
14.27
14.82
15.02
14.95
14.76
14.61
14.55
14.51
14.33
13.88
13.12
12.13
11.05
10.01
9.06
8.17
7.28
6.39
5.57
4.91
4.43
4.08
3.71
3.19
2.51
1.78
1.15
0.71
0.44
0.20
-0.17
-0.74
-1.49
-2.30
-3.10
-3.86
-4.67
-5.63
-6.79
-8.15
-9.61
-11.05
-12.40
-13.62
-14.69
-15.66
-16.56
-17.48
-18.54
-19.88
-21.58
-23.57
-25.61
-27.24
-27.96
-27.34
-25.21
-21.67
-17.07
-11.90
-6.66
-1.78
2.42
5.76
8.19
9.80
10.77
11.28
11.50
11.57
11.54
11.47
11.38
11.33
11.37
11.57
11.97
12.59
13.41
14.33
15.19
15.80
16.04
15.88
15.36
14.59
13.64
12.52
11.22
9.78
8.26
6.82
5.58
4.61
3.84
3.14
2.34
1.38
0.26
-0.94
-2.14
-3.30
-4.44
-5.56
-6.67
-7.73
-8.75
-9.75
-10.75
-11.80
-12.86
-13.83
-14.60
-15.12
-15.39
-15.54
-15.79
-16.29
-17.16
-18.34
-19.60
-20.55
-20.74
-19.75
-17.40
-13.79
-9.31
-4.47
0.22
4.43
7.96
10.75
12.75
13.92
14.26
13.87
12.94
11.76
10.62
9.70
9.10
8.82
8.79
8.95
9.28
9.74
10.27
10.82
11.36
11.86
12.32
12.72
13.00
13.06
12.81
12.19
11.21
9.92
8.44
6.88
5.31
3.78
2.30
0.87
-0.51
-1.81
-2.91
-3.68
-3.99
-3.78
-3.15
-2.33
-1.63
-1.34
-1.59
-2.42
-3.71
-5.34
-7.19
-9.19
-11.27
-13.41
-15.56
-17.75
-19.98
-22.29
-24.60
-26.75
-28.40
-29.13
-28.54
-26.39
-22.75
-17.96
-12.55
-7.09
-2.09
2.12
5.35
7.51
8.61
8.72
8.04
6.88
5.62
4.60
4.01
3.87
4.10
4.59
5.26
6.14
7.28
8.69
10.33
12.06
13.70
15.07
16.02
16.50
16.52
16.15
15.51
14.73
13.92
13.16
12.46
11.79
11.10
10.39
9.71
9.12
8.62
8.14
7.53
6.65
5.47
4.04
2.57
1.17
-0.07
-1.24
-2.53
-4.11
-6.08
-8.36
-10.78
-13.06
-14.99
-16.48
-17.58
-18.49
-19.43
-20.58
-21.98
-23.50
-24.89
-25.82
-25.92
-24.88
-22.52
-18.86
-14.16
-8.84
-3.41
1.68
6.09
9.66
12.35
14.16
15.14
15.37
14.94
14.06
12.98
11.98
11.29
11.04
11.27
11.87
12.68
13.53
14.27
14.85
15.26
15.51
15.59
15.46
15.10
14.52
13.80
13.03
12.31
11.73
11.33
11.11
11.04
11.04
10.99
10.76
10.27
9.49
8.51
7.41
6.24
5.01
3.63
2.03
0.20
-1.79
-3.82
-5.80
-7.71
-9.55
-11.38
-13.20
-14.93
-16.47
-17.68
-18.46
-18.82
-18.88
-18.89
-19.13
-19.90
-21.38
-23.58
-26.26
-28.95
-31.05
-31.95
-31.20
-28.59
-24.32
-18.85
-12.87
-7.09
-2.06
1.94
4.89
6.99
8.48
9.53
10.24
10.63
10.79
10.85
11.02
11.49
12.28
13.32
14.44
15.47
16.35
17.07
17.65
18.05
18.19
17.94
17.26
16.24
15.05
13.84
12.68
11.56
10.38
9.12
7.78
6.41
5.09
3.86
2.69
1.54
0.34
-0.98
-2.46
-4.07
-5.78
-7.49
-9.12
-10.63
-12.02
-13.33
-14.63
-16.00
-17.48
-19.08
-20.77
-22.44
-23.87
-24.77
-24.77
-23.56
-21.00
-17.17
-12.37
-7.03
-1.65
3.40
7.82
11.46
14.22
16.06
16.96
16.96
16.22
14.99
13.60
12.37
11.52
11.16
11.22
11.59
12.11
12.64
13.09
13.41
13.59
13.58
13.34
12.78
11.82
10.45
8.74
6.84
4.92
3.12
1.54
0.18
-0.99
-2.06
-3.15
-4.39
-5.86
-7.54
-9.32
-11.00
-12.40
-13.41
-14.12
-14.70
-15.36
-16.31
-17.68
-19.44
-21.42
-23.23
-24.32
-24.11
-22.22
-18.59
-13.61
-7.94
-2.28
2.78
6.94
10.11
12.30
13.58
14.02
13.74
13.01
12.12
11.41
11.05
11.07
11.35
11.74
12.11
12.49
12.94
13.53
14.20
14.79
15.04
14.77
13.93
12.63
11.07
9.46
7.91
6.43
4.95
3.41
1.77
0.08
-1.62
-3.23
-4.70
-6.01
-7.17
-8.23
-9.23
-10.25
-11.34
-12.62
-14.23
-16.29
-18.83
-21.62
-24.18
-25.84
-25.99
-24.25
-20.69
-15.77
-10.17
-4.57
0.56
5.03
8.81
11.89
14.21
15.67
16.23
16.01
15.28
14.46
13.88
13.73
13.95
14.36
14.73
14.96
15.08
15.19
15.40
15.70
15.95
15.98
15.67
14.99
13.99
12.78
11.44
10.05
8.64
7.25
5.92
4.63
3.38
2.11
0.77
-0.65
-2.13
-3.63
-5.07
-6.37
-7.44
-8.26
-8.86
-9.36
-9.95
-10.77
-11.90
-13.27
-14.73
-16.10
-17.28
-18.27
-19.18
-20.14
-21.29
-22.72
-24.47
-26.43
-28.32
-29.70
-30.01
-28.74
-25.65
-20.88
-14.94
-8.57
-2.46
2.89
7.28
10.70
13.22
14.89
15.74
15.87
15.44
14.77
14.17
13.93
14.15
14.80
15.68
16.59
17.34
17.86
18.15
18.28
18.30
18.20
17.87
17.19
16.08
14.58
12.84
11.08
9.49
8.21
7.24
6.53
5.95
5.39
4.73
3.85
2.72
1.39
0.01
-1.27
-2.36
-3.25
-4.03
-4.83
-5.75
-6.84
-8.11
-9.50
-10.99
-12.49
-13.87
-15.03
-15.88
-16.44
-16.87
-17.39
-18.19
-19.38
-20.93
-22.65
-24.25
-25.36
-25.62
-24.72
-22.52
-19.09
-14.75
-9.94
-5.14
-0.74
3.08
6.30
8.99
11.27
13.16
14.63
15.60
16.06
16.04
15.67
15.14
14.68
14.46
14.58
15.00
15.57
16.06
16.22
15.95
15.31
14.54
13.94
13.71
13.85
14.16
14.34
14.16
13.54
12.61
11.53
10.47
9.43
8.32
7.00
5.37
3.45
1.40
-0.50
-1.93
-2.65
-2.55
-1.71
-0.34
1.22
2.67
3.76
4.32
4.33
3.83
2.92
1.73
0.35
-1.22
-2.99
-5.00
-7.22
-9.51
-11.72
-13.67
-15.30
-16.55
-17.44
-18.00
-18.28
-18.47
-18.86
-19.82
-21.57
-24.03
-26.75
-29.06
-30.26
-29.95
-28.05
-24.79
-20.55
-15.72
-10.65
-5.69
-1.12
2.77
5.76
7.80
9.02
9.62
9.91
10.16
10.55
11.17
12.01
12.98
13.98
14.93
15.76
16.46
17.02
17.42
17.63
17.63
17.36
16.78
15.87
14.64
13.18
11.59
10.05
8.72
7.66
6.88
6.28
5.78
5.34
4.97
4.69
4.45
4.12
3.56
2.67
1.53
0.31
-0.73
-1.41
-1.71
-1.72
-1.65
-1.72
-2.10
-2.92
-4.18
-5.81
-7.62
-9.33
-10.71
-11.65
-12.21
-12.65
-13.28
-14.36
-15.97
-18.04
-20.35
-22.62
-24.53
-25.78
-26.08
-25.24
-23.19
-20.06
-16.14
-11.85
-7.60
-3.76
-0.52
2.04
3.99
5.42
6.45
7.15
7.54
7.63
7.46
7.15
6.84
6.74
6.98
7.60
8.55
9.68
10.88
12.03
13.05
13.91
14.47
14.68
14.46
13.83
12.91
11.85
10.80
9.83
8.98
8.22
7.51
6.79
6.02
5.15
4.12
2.90
1.53
0.09
-1.27
-2.41
-3.30
-3.95
-4.46
-4.93
-5.46
-6.09
-6.86
-7.80
-8.93
-10.23
-11.63
-12.98
-14.15
-15.10
-15.90
-16.73
-17.80
-19.24
-21.04
-23.02
-24.86
-26.13
-26.38
-25.30
-22.78
-18.99
-14.37
-9.45
-4.78
-0.74
2.51
4.96
6.75
8.00
8.83
9.25
9.31
9.06
8.64
8.26
8.16
8.47
9.16
10.11
11.15
12.12
12.95
13.60
14.03
14.18
14.00
13.54
12.91
12.29
11.84
11.62
11.54
11.45
11.18
10.58
9.65
8.44
7.13
5.94
5.05
4.51
4.21
3.94
3.46
2.67
1.61
0.41
-0.82
-2.05
-3.29
-4.59
-5.91
-7.17
-8.28
-9.25
-10.19
-11.29
-12.64
-14.23
-15.93
-17.61
-19.20
-20.73
-22.30
-23.86
-25.31
-26.37
-26.74
-26.17
-24.54
-21.85
-18.26
-13.99
-9.34
-4.64
-0.19
3.77
7.07
9.60
11.31
12.23
12.43
12.10
11.49
10.91
10.63
10.81
11.49
12.53
13.72
14.82
15.66
16.12
16.23
16.07
15.72
15.24
14.63
13.85
12.91
11.89
10.86
9.91
9.04
8.17
7.23
6.22
5.20
4.29
3.55
2.94
2.34
1.58
0.59
-0.58
-1.79
-2.88
-3.76
-4.45
-5.06
-5.77
-6.70
-7.95
-9.49
-11.22
-12.99
-14.61
-15.92
-16.83
-17.39
-17.81
-18.42
-19.53
-21.26
-23.39
-25.41
-26.62
-26.42
-24.53
-21.02
-16.30
-10.84
-5.12
0.47
5.57
9.82
12.94
14.78
15.43
15.18
14.43
13.54
12.79
12.31
12.18
12.41
12.96
13.72
14.55
15.33
15.97
16.48
16.86
17.11
17.17
16.93
16.33
15.37
14.13
12.74
11.29
9.88
8.58
7.49
6.64
6.04
5.63
5.27
4.83
4.20
3.39
2.50
1.67
1.05
0.71
0.57
0.46
0.17
-0.46
-1.43
-2.60
-3.77
-4.80
-5.67
-6.52
-7.52
-8.79
-10.31
-11.95
-13.53
-14.95
-16.17
-17.25
-18.32
-19.51
-20.94
-22.65
-24.47
-26.02
-26.74
-26.08
-23.71
-19.66
-14.37
-8.53
-2.85
2.13
6.14
9.11
11.09
12.14
12.33
11.78
10.73
9.43
8.17
7.11
6.30
5.63
4.93
4.01
2.79
1.25
-0.58
-2.68
-4.99
-7.40
-9.70
-11.65
-13.02
-13.70
-13.77
-13.42
-12.84
-12.21
-11.58
-11.01
-10.59
-10.49
-11.00
-12.31
-14.51
-17.42
-20.77
-24.22
-27.45
-30.17
-32.11
-33.05
-32.79
-31.28
-28.62
-25.13
-21.28
-17.60
-14.52
-12.33
-11.15
-10.82
-11.06
-11.43
-11.40
-10.43
-8.07
-4.07
1.70
9.13
17.93
27.64
37.70
47.55
56.88
65.66
74.05
82.25
90.25
97.88
104.77
110.38
114.22
115.95
115.55
113.20
109.18
103.63
96.76
88.51
78.54
66.50
52.38
36.85
21.12
6.60
-5.77
-15.28
-21.76
-25.46
-26.73
-25.98
-23.79
-21.09
-19.18
-20.78
-27.06
-36.63
-46.34
-53.46
-57.19
-58.32
-58.39
-57.93
-56.72
-54.09
-49.84
-44.81
-40.52
-38.08
-38.12
-40.23
-43.17
-45.67
-46.84
-46.51
-45.18
-43.48
-41.74
-39.95
-37.90
-35.47
-32.96
-30.84
-29.60
-29.66
-31.22
-34.31
-38.83
-44.59
-51.19
-58.29
-65.53
-72.50
-78.68
-83.43
-86.20
-86.79
-85.36
-81.84
-76.38
-69.05
-59.70
-48.16
-34.18
-18.37
-2.48
11.01
20.74
25.72
25.56
20.81
12.66
3.68
-3.26
-5.44
-0.43
14.81
40.87
75.15
112.86
148.57
179.93
207.17
232.13
256.65
282.65
308.23
328.13
336.48
329.32
308.23
278.01
244.28
199.10
142.27
80.35
23.06
-17.75
-44.39
-59.48
-64.63
-62.00
-53.84
-41.46
-27.85
-16.84
-11.63
-14.12
-22.66
-34.78
-48.65
-63.36
-77.24
-89.67
-100.87
-111.41
-122.20
-132.66
-142.18
-150.50
-157.40
-161.63
-162.38
-159.63
-154.16
-147.57
-140.95
-135.41
-132.01
-131.04
-131.38
-131.13
-128.16
-120.69
-107.89
-89.89
-68.17
-45.25
-23.82
-5.80
7.93
17.51
23.63
26.87
27.41
24.96
19.21
10.54
0.33
-9.34
-16.41
-19.77
-19.58
-17.03
-13.53
-10.05
-6.77
-3.33
0.69
5.47
10.93
16.98
23.80
31.72
40.95
51.21
61.62
70.95
78.03
82.17
83.36
82.12
79.26
75.56
71.66
68.02
64.93
62.57
60.95
59.86
58.85
57.30
54.54
50.10
43.77
35.68
26.24
15.98
5.40
-5.01
-14.59
-22.44
-27.43
-28.50
-25.08
-17.54
-7.23
3.90
13.82
21.17
25.43
26.90
26.28
24.26
21.27
17.53
13.20
8.55
3.93
-0.26
-3.77
-6.48
-8.46
-9.84
-10.75
-11.27
-11.40
-11.13
-10.46
-9.49
-8.40
-7.48
-6.98
-7.03
-7.54
-8.25
-8.85
-9.13
-9.06
-8.81
-8.64
-8.73
-9.16
-9.81
-10.52
-11.12
-11.54
-11.81
-12.01
-12.25
-12.57
-12.99
-13.50
-14.06
-14.67
-15.34
-16.10
-16.97
-17.94
-19.01
-20.17
-21.39
-22.63
-23.77
-24.63
-24.94
-24.42
-22.82
-20.04
-16.19
-11.57
-6.63
-1.86
2.37
5.87
8.61
10.67
12.17
13.17
13.69
13.76
13.48
13.01
12.54
12.25
12.22
12.46
12.87
13.35
13.82
14.22
14.54
14.76
14.86
14.81
14.53
13.99
13.14
12.03
10.75
9.43
8.18
7.05
5.96
4.84
3.64
2.40
1.19
0.10
-0.89
-1.84
-2.86
-3.98
-5.20
-6.45
-7.65
-8.82
-9.99
-11.23
-12.55
-13.86
-15.06
-16.04
-16.84
-17.58
-18.47
-19.72
-21.43
-23.50
-25.66
-27.45
-28.35
-27.92
-25.95
-22.48
-17.82
-12.48
-7.04
-2.01
2.25
5.59
8.08
9.91
11.28
12.31
13.01
13.33
13.25
12.88
12.41
12.03
11.83
11.73
11.56
11.22
10.78
10.46
10.51
11.03
11.88
12.71
13.12
12.87
11.96
10.62
9.17
7.90
6.89
6.06
5.23
4.22
2.98
1.55
0.05
-1.42
-2.78
-4.06
-5.33
-6.62
-7.96
-9.30
-10.58
-11.73
-12.78
-13.77
-14.79
-15.97
-17.38
-19.07
-20.96
-22.89
-24.53
-25.51
-25.45
-24.10
-21.44
-17.69
-13.23
-8.54
-3.99
0.16
3.82
6.97
9.64
11.77
13.32
14.18
14.34
13.86
12.92
11.80
10.77
10.07
9.82
9.98
10.42
10.95
11.40
11.68
11.80
11.79
11.73
11.62
11.43
11.08
10.49
9.59
8.41
7.05
5.63
4.27
3.02
1.83
0.59
-0.81
-2.41
-4.21
-6.11
-8.01
-9.83
-11.55
-13.16
-14.68
-16.14
-17.58
-19.07
-20.69
-22.51
-24.51
-26.50
-28.12
-28.93
-28.49
-26.55
-23.11
-18.45
-13.04
-7.43
-2.10
2.63
6.57
9.68
11.99
13.52
14.34
14.55
14.37
14.05
13.81
13.79
13.98
14.24
14.40
14.41
14.29
14.19
14.24
14.52
14.96
15.39
15.58
15.39
14.73
13.63
12.17
10.48
8.70
6.94
5.31
3.88
2.70
1.70
0.80
-0.20
-1.44
-3.02
-4.90
-6.92
-8.91
-10.74
-12.40
-13.98
-15.60
-17.33
-19.22
-21.29
-23.55
-25.99
-28.45
-30.59
-31.86
-31.72
-29.76
-25.93
-20.53
-14.10
-7.26
-0.58
5.50
10.67
14.71
17.55
19.22
19.89
19.82
19.25
18.44
17.55
16.74
16.14
15.83
15.87
16.23
16.84
17.54
18.18
18.62
18.75
18.55
18.03
17.27
16.32
15.22
13.96
12.51
10.85
9.02
7.13
5.31
3.67
2.22
0.90
-0.44
-1.91
-3.54
-5.28
-7.03
-8.69
-10.21
-11.63
-13.03
-14.45
-15.94
-17.49
-19.11
-20.87
-22.82
-24.90
-26.89
-28.39
-28.83
-27.74
-24.83
-20.17
-14.14
-7.37
-0.55
5.71
10.98
15.06
17.90
19.59
20.26
20.06
19.20
17.92
16.52
15.29
14.50
14.24
14.49
15.09
15.85
16.60
17.24
17.69
17.89
17.76
17.27
16.42
15.29
13.98
12.61
11.19
9.71
8.11
6.36
4.51
2.67
0.98
-0.48
-1.67
-2.68
-3.61
-4.64
-5.88
-7.41
-9.21
-11.16
-13.07
-14.81
-16.31
-17.67
-19.06
-20.70
-22.71
-25.02
-27.47
-29.74
-31.46
-32.21
-31.59
-29.29
-25.20
-19.50
-12.71
-5.51
1.34
7.26
11.89
15.16
17.20
18.23
18.52
18.32
17.86
17.35
16.99
16.89
17.11
17.58
18.13
18.60
18.91
19.08
19.20
19.30
19.39
19.42
19.28
18.85
18.11
17.09
15.82
14.32
12.59
10.70
8.84
7.17
5.73
4.40
3.01
1.30
-0.93
-3.75
-6.94
-10.00
-12.48
-14.12
-14.74
-14.10
-12.12
-9.10
-5.66
-2.41
0.36
2.34
3.37
3.97
5.54
9.69
17.15
27.58
39.97
53.24
66.09
77.57
88.06
99.34
113.24
129.85
146.99
161.00
167.90
163.52
144.57
110.21
62.75
6.37
-55.07
-118.94
-183.33
-239.49
-274.73
-281.40
-262.83
-229.00
-189.09
-149.39
-113.99
-85.11
-63.36
-48.89
-41.85
-41.48
-44.89
-47.07
-43.14
-31.16
-10.76
14.94
39.38
54.93
57.27
48.18
35.12
26.32
26.41
34.73
45.90
52.38
47.75
29.66
-1.92
-39.96
-74.62
-98.31
-107.81
-103.86
-89.25
-67.58
-42.22
-15.98
9.10
31.63
49.69
61.35
65.69
63.52
56.35
46.07
34.59
23.67
14.08
5.51
-2.40
-11.33
-20.47
-28.48
-34.25
-37.25
-37.32
-34.80
-30.29
-24.18
-16.62
-7.73
1.56
9.72
15.33
17.77
17.41
15.37
13.10
11.76
11.94
13.24
14.70
15.52
15.58
15.41
15.91
17.86
21.60
26.92
33.01
38.86
43.73
47.31
49.63
50.84
51.03
50.36
49.20
48.17
47.83
48.05
47.39
43.23
32.63
14.10
-11.04
-38.35
-61.59
-75.11
-76.07
-65.47
-47.48
-27.50
-10.16
2.00
8.59
10.62
9.65
7.16
4.39
2.35
1.80
3.06
5.91
9.72
13.64
16.79
18.43
17.95
15.02
9.81
3.18
-3.27
-7.66
-8.42
-4.82
2.87
13.67
26.17
38.63
48.78
53.75
50.49
36.90
13.19
-17.41
-49.13
-75.40
-91.02
-93.92
-85.52
-69.83
-51.81
-35.78
-24.55
-19.11
-18.95
-22.38
-27.03
-30.41
-30.56
-26.66
-19.38
-10.69
-2.96
1.90
3.30
2.04
-0.20
-1.73
-1.70
-0.30
1.46
2.30
1.22
-2.03
-6.60
-10.42
-10.47
-3.82
10.96
32.47
56.17
75.56
84.64
80.46
64.53
42.09
19.83
3.08
-6.02
-8.56
-7.35
-5.14
-3.35
-2.12
-1.05
-0.02
0.49
-0.30
-2.79
-6.52
-10.19
-12.17
-11.25
-7.05
-0.30
7.58
14.89
20.25
22.94
23.04
21.33
18.82
16.38
14.29
12.18
9.33
5.07
-0.77
-7.73
-14.92
-21.40
-26.34
-28.93
-28.13
-22.95
-13.00
0.54
14.78
25.82
30.50
27.97
20.34
11.64
5.80
4.71
7.53
11.56
13.95
13.18
9.51
4.31
-0.98
-5.50
-9.04
-11.61
-13.06
-13.07
-11.26
-7.40
-1.62
5.65
13.97
23.09
33.25
45.25
60.11
78.26
98.65
118.21
132.12
135.25
124.26
99.41
65.21
29.21
-0.64
-19.05
-25.45
-24.21
-22.83
-28.98
-47.58
-79.11
-119.60
-162.12
-199.11
-224.42
-234.44
-228.34
-207.40
-174.06
-131.38
-82.62
-30.86
21.36
72.31
121.05
166.92
208.74
244.30
270.49
284.33
284.33
271.51
249.31
222.68
196.52
174.40
158.01
147.21
140.68
136.42
132.18
125.63
114.76
98.32
76.36
50.32
22.68
-3.77
-26.92
-46.03
-61.74
-75.58
-88.95
-102.48
-115.76
-127.82
-137.59
-144.35
-147.80
-148.07
-145.48
-140.57
-134.10
-127.18
-121.27
-117.40
-115.78
-115.88
-116.92
-118.31
-119.73
-120.80
-120.79
-119.22
-115.53
-109.38
-101.19
-92.29
-84.18
-77.45
-71.25
-63.79
-54.56
-44.00
-33.25
-23.63
-16.33
-11.87
-9.79
-8.89
-7.78
-6.89
-6.99
-8.42
-11.04
-14.76
-19.65
-25.84
-33.45
-34.17
-23.95
-5.31
15.00
32.03
44.51
53.09
58.52
61.24
61.77
59.83
55.96
51.68
48.58
47.22
47.15
47.81
49.04
51.12
53.29
54.88
55.79
56.54
57.53
58.86
60.66
63.15
66.39
69.38
70.87
70.64
69.04
66.21
62.30
57.69
52.99
48.83
45.28
42.37
40.37
39.83
40.46
41.41
41.97
41.89
41.21
39.83
37.90
36.21
36.12
38.06
40.78
43.45
46.43
50.23
54.46
57.81
58.14
60.12
63.92
65.22
61.27
52.93
42.74
32.03
20.28
6.03
-11.91
-34.29
-65.00
-102.82
-140.52
-170.42
-190.20
-202.96
-213.72
-225.88
-240.33
-262.04
-291.11
-321.43
-346.73
-365.79
-381.90
-399.38
-421.17
-399.83
-321.19
-213.27
-114.44
-42.14
5.13
34.83
53.93
67.52
78.61
81.70
73.18
56.51
38.44
25.52
22.68
33.44
58.77
93.48
129.05
156.95
175.37
187.24
197.69
210.57
226.71
243.16
251.30
242.77
214.70
175.59
133.55
96.86
69.87
52.14
39.63
26.98
8.94
-17.36
-46.31
-74.48
-99.85
-122.13
-140.70
-153.08
-155.16
-143.26
-116.72
-78.98
-37.98
-1.95
23.02
34.92
35.70
29.57
21.08
14.03
10.20
8.93
8.48
6.56
1.39
-7.22
-17.72
-27.75
-34.99
-39.20
-41.47
-41.50
-36.41
-21.58
6.60
47.67
95.99
144.02
184.08
211.88
228.04
236.29
240.63
243.28
245.25
238.57
222.64
200.07
174.99
151.04
129.57
109.47
88.21
63.88
36.40
9.14
-14.26
-31.15
-40.92
-45.01
-45.84
-45.07
-42.63
-37.29
-26.99
-12.04
5.20
21.70
35.90
48.93
63.69
82.32
103.56
122.99
134.17
132.38
117.38
93.45
66.74
41.84
19.70
-1.97
-25.80
-52.90
-81.83
-109.79
-134.62
-156.21
-176.29
-197.05
-219.78
-244.22
-269.23
-293.63
-316.87
-338.86
-359.43
-377.93
-393.01
-403.64
-409.43
-410.44
-406.11
-394.92
-374.64
-343.83
-303.15
-255.64
-206.19
-159.61
-118.72
-83.08
-50.22
-17.67
15.30
47.60
78.36
107.45
135.24
161.27
183.88
199.69
205.06
198.18
179.16
154.34
133.41
124.63
128.08
140.52
156.39
171.56
183.44
189.82
189.45
181.03
164.04
140.64
117.69
103.61
102.75
111.31
118.65
115.47
99.62
77.78
61.69
62.97
86.95
130.05
181.80
218.47
219.22
180.10
116.03
46.48
-14.84
-60.92
-89.60
-102.21
-103.06
-95.90
-83.44
-67.67
-50.81
-34.79
-21.21
-11.97
-8.70
-11.79
-18.05
-22.40
-21.16
-14.77
-6.29
0.80
3.47
0.79
-5.91
-13.54
-18.05
-16.20
-7.36
7.01
23.86
39.02
48.46
49.94
44.58
35.15
27.12
23.17
22.19
20.50
14.52
3.33
-10.54
-22.51
-28.70
-27.96
-22.70
-16.73
-12.70
-10.91
-9.74
-7.22
-2.69
3.16
8.84
12.76
14.07
13.19
11.34
9.86
9.62
10.28
10.32
8.16
2.41
-7.20
-19.62
-32.79
-44.52
-53.11
-58.01
-60.12
-60.63
-61.14
-63.23
-68.30
-76.84
-87.84
-98.12
-100.82
-92.04
-69.78
-36.31
1.80
36.05
59.60
69.85
69.04
62.29
54.52
49.01
46.66
47.05
49.30
52.33
54.48
53.02
45.06
29.09
7.04
-16.30
-34.14
-41.67
-37.71
-24.72
-7.17
10.59
25.84
37.83
46.89
53.48
57.76
59.95
60.55
60.23
59.41
58.00
55.47
50.90
43.63
33.35
20.49
6.01
-8.56
-22.53
-35.52
-47.32
-57.76
-66.47
-72.97
-76.98
-78.41
-77.81
-76.18
-74.51
-73.73
-74.59
-77.46
-82.13
-87.44
-90.81
-89.03
-79.58
-62.34
-40.57
-20.05
-6.66
-3.64
-9.88
-20.42
-29.33
-31.42
-24.67
-10.18
9.06
29.52
48.13
62.34
70.13
70.06
62.03
47.36
28.65
9.47
-6.82
-17.65
-21.52
-18.15
-8.61
4.91
19.30
31.17
38.09
39.17
35.42
29.12
22.81
18.11
15.40
13.91
12.66
11.37
10.59
11.54
15.32
22.01
30.41
38.37
43.73
44.87
41.21
32.85
20.45
4.96
-12.52
-30.15
-45.01
-53.61
-53.29
-43.54
-26.89
-8.31
6.83
14.73
15.04
10.88
6.99
6.98
11.76
19.43
26.68
30.00
27.14
17.96
4.61
-9.21
-19.34
-21.79
-13.63
5.97
34.91
67.16
94.44
109.37
107.84
89.97
59.68
22.58
-15.77
-46.15
-61.73
-62.00
-50.89
-32.77
-10.92
12.25
33.82
51.29
63.24
68.88
68.79
65.48
62.29
61.53
63.78
67.07
67.91
63.55
52.15
33.82
10.89
-12.96
-34.58
-52.22
-67.25
-81.95
-98.99
-121.34
-151.25
-188.70
-231.38
-276.14
-310.51
-326.73
-320.81
-293.58
-250.87
-201.12
-151.91
-107.74
-69.67
-36.59
-8.22
15.72
35.17
49.85
57.13
53.95
39.64
17.28
-8.64
-35.53
-62.16
-87.91
-112.43
-135.10
-154.86
-170.33
-180.16
-184.26
-184.45
-182.80
-180.96
-179.61
-178.20
-174.54
-168.32
-158.96
-146.64
-132.57
-118.11
-104.31
-91.78
-80.63
-70.41
-60.54
-50.32
-39.59
-28.74
-18.23
-8.34
0.81
9.30
17.33
25.02
32.55
39.84
46.59
52.61
57.83
62.28
65.99
68.92
70.92
71.95
72.00
71.27
70.30
69.89
70.91
74.06
79.62
87.45
97.16
108.28
120.37
133.26
146.97
161.68
177.71
195.47
215.26
236.94
259.45
280.61
297.49
307.23
308.08
300.09
285.08
265.82
245.04
224.55
205.12
186.80
169.50
153.32
138.46
124.93
112.37
100.13
87.63
74.71
61.81
49.76
39.47
31.59
26.26
23.07
21.30
20.05
18.49
16.08
12.57
8.04
2.79
-2.79
-8.24
-13.12
-16.99
-19.45
-20.26
-19.45
-17.34
-14.45
-11.31
-8.25
-5.37
-2.70
-0.41
1.11
1.36
-0.04
-3.16
-7.76
-13.50
-20.11
-27.37
-35.00
-42.38
-48.57
-52.57
-53.72
-52.04
-48.16
-43.12
-37.84
-32.92
-28.57
-24.76
-21.44
-18.54
-15.96
-13.41
-10.44
-6.59
-1.71
3.95
9.66
14.62
18.43
21.47
24.97
30.58
39.51
51.74
65.61
78.21
86.25
87.30
80.63
67.46
50.41
32.62
16.72
4.29
-4.29
-9.59
-12.76
-15.11
-17.79
-21.58
-26.75
-33.07
-39.80
-45.94
-50.43
-52.50
-51.84
-48.82
-44.38
-39.86
-36.58
-35.43
-36.62
-39.61
-43.33
-46.55
-48.30
-48.13
-46.09
-42.66
-38.48
-34.13
-29.98
-26.08
-22.21
-17.97
-12.92
-6.84
0.06
7.18
13.56
18.23
20.55
20.35
18.02
14.31
9.99
5.67
1.63
-2.08
-5.55
-8.77
-11.63
-13.86
-15.22
-15.63
-15.20
-14.24
-12.98
-11.49
-9.57
-6.95
-3.57
0.24
3.56
5.29
4.40
0.47
-6.19
-14.52
-23.17
-30.80
-36.47
-39.71
-40.45
-38.91
-35.40
-30.34
-24.23
-17.56
-10.81
-4.24
2.02
8.01
13.65
18.69
22.57
24.60
24.20
21.19
16.07
9.82
3.82
-0.67
-2.68
-1.86
1.59
6.99
13.35
19.63
24.77
28.00
28.82
27.20
23.49
18.34
12.54
6.82
1.76
-2.32
-5.34
-7.58
-9.56
-11.91
-15.11
-19.17
-23.60
-27.60
-30.44
-31.86
-32.10
-31.73
-31.13
-30.21
-28.35
-24.72
-18.72
-10.41
-0.47
9.92
19.42
26.84
31.23
31.96
28.78
21.99
12.63
2.40
-6.56
-12.21
-13.23
-9.41
-1.72
7.88
16.95
23.06
24.42
20.24
11.00
-1.58
-14.98
-26.56
-34.37
-37.62
-36.81
-33.27
-28.54
-23.81
-19.66
-16.07
-12.59
-8.51
-3.02
4.49
14.14
25.23
36.24
45.13
50.07
50.13
45.74
38.57
31.01
25.26
22.61
23.10
25.52
28.07
28.95
27.08
22.36
15.61
8.25
1.78
-2.60
-4.21
-3.01
0.53
5.53
10.91
15.55
18.60
19.60
18.62
16.23
13.22
10.48
8.66
8.11
8.84
10.56
12.76
14.82
16.18
16.47
15.59
13.71
11.15
8.27
5.29
2.24
-0.97
-4.45
-8.21
-12.12
-15.93
-19.34
-22.02
-23.66
-23.94
-22.63
-19.60
-14.95
-9.04
-2.41
4.38
10.80
16.49
21.12
24.39
26.04
25.86
23.86
20.40
16.01
11.38
7.05
3.36
0.44
-1.67
-2.93
-3.32
-2.86
-1.81
-0.64
0.07
-0.17
-1.57
-3.92
-6.79
-9.68
-12.26
-14.46
-16.42
-18.35
-20.38
-22.58
-24.91
-27.35
-29.94
-32.74
-35.82
-39.13
-42.47
-45.48
-47.70
-48.66
-47.94
-45.34
-40.88
-34.93
-28.04
-20.89
-14.11
-8.07
-2.93
1.32
4.76
7.38
9.09
9.82
9.57
8.61
7.38
6.42
6.14
6.75
8.09
9.83
11.57
12.97
13.91
14.42
14.56
14.34
13.64
12.25
10.03
6.96
3.25
-0.73
-4.52
-7.78
-10.36
-12.39
-14.22
-16.21
-18.66
-21.62
-24.95
-28.28
-31.18
-33.16
-33.80
-32.81
-30.04
-25.56
-19.69
-12.93
-5.87
0.93
7.00
11.99
15.80
18.43
20.05
20.89
21.15
20.98
20.50
19.81
19.13
18.71
18.77
19.35
20.28
21.21
21.80
21.85
21.38
20.53
19.40
18.03
16.39
14.46
12.32
10.10
7.91
5.77
3.55
1.06
-1.84
-5.14
-8.66
-12.12
-15.22
-17.75
-19.71
-21.19
-22.46
-23.80
-25.39
-27.22
-29.03
-30.31
-30.55
-29.34
-26.57
-22.41
-17.27
-11.60
-5.79
-0.18
4.98
9.42
12.90
15.20
16.25
16.19
15.36
14.25
13.29
12.82
12.88
13.41
14.22
15.12
15.97
16.63
16.99
16.88
16.22
14.98
13.33
11.57
9.96
8.62
7.44
6.12
4.29
1.74
-1.54
-5.33
-9.29
-13.13
-16.67
-19.86
-22.67
-25.12
-27.15
-28.73
-29.90
-30.82
-31.76
-32.86
-34.07
-35.00
-34.96
-33.33
-29.74
-24.35
-17.78
-10.91
-4.48
1.04
5.51
9.01
11.62
13.39
14.41
14.87
15.07
15.31
15.72
16.24
16.68
16.88
16.79
16.51
16.21
15.96
15.74
15.43
14.88
14.02
12.77
11.14
9.19
7.01
4.71
2.43
0.21
-1.98
-4.24
-6.65
-9.22
-11.86
-14.43
-16.80
-18.88
-20.65
-22.16
-23.48
-24.74
-26.14
-27.88
-30.09
-32.68
-35.21
-36.99
-37.20
-35.25
-30.93
-24.64
-17.21
-9.65
-2.80
2.88
7.33
10.80
13.57
15.72
17.21
17.88
17.72
16.90
15.80
14.81
14.21
14.04
14.13
14.27
14.29
14.17
13.99
13.79
13.61
13.33
12.84
11.97
10.65
8.81
6.50
3.81
0.90
-2.06
-4.93
-7.62
-10.13
-12.51
-14.84
-17.18
-19.54
-21.87
-24.14
-26.37
-28.58
-30.73
-32.61
-33.81
-33.80
-32.12
-28.64
-23.59
-17.54
-11.20
-5.17
0.24
4.97
9.09
12.68
15.71
18.02
19.49
20.02
19.71
18.82
17.70
16.74
16.21
16.21
16.67
17.36
18.02
18.46
18.56
18.31
17.76
16.95
15.92
14.71
13.36
11.93
10.56
9.31
8.21
7.13
5.82
4.02
1.60
-1.34
-4.46
-7.30
-9.55
-11.16
-12.40
-13.71
-15.45
-17.78
-20.64
-23.79
-26.93
-29.75
-31.91
-32.97
-32.49
-30.11
-25.75
-19.66
-12.45
-4.93
2.15
8.24
13.08
16.62
18.94
20.17
20.43
19.89
18.83
17.61
16.60
16.11
16.18
16.68
17.35
17.89
18.17
18.14
17.89
17.54
17.12
16.60
15.90
14.95
13.73
12.23
10.48
8.54
6.48
4.41
2.48
0.79
-0.59
-1.72
-2.69
-3.64
-4.71
-6.00
-7.58
-9.47
-11.63
-13.97
-16.36
-18.65
-20.70
-22.48
-24.07
-25.68
-27.49
-29.60
-31.83
-33.71
-34.57
-33.75
-30.81
-25.81
-19.25
-11.92
-4.69
1.83
7.33
11.75
15.18
17.65
19.17
19.75
19.56
18.93
18.26
17.93
18.10
18.73
19.63
20.62
21.59
22.55
23.49
24.35
25.02
25.33
25.18
24.55
23.54
22.31
20.96
19.57
18.16
16.76
15.36
13.96
12.57
11.19
9.81
8.43
7.02
5.48
3.79
1.90
-0.14
-2.24
-4.31
-6.33
-8.28
-10.20
-12.09
-13.87
-15.48
-16.88
-18.19
-19.64
-21.47
-23.67
-25.90
-27.50
-27.71
-25.96
-22.13
-16.56
-9.94
-3.05
3.51
9.32
14.18
17.98
20.63
22.08
22.37
21.69
20.31
18.57
16.81
15.24
14.01
13.15
12.57
12.17
11.82
11.45
11.03
10.58
10.13
9.69
9.23
8.69
8.00
7.11
6.02
4.80
3.52
2.29
1.18
0.25
-0.51
-1.08
-1.48
-1.70
-1.73
-1.60
-1.42
-1.32
-1.46
-1.89
-2.59
-3.38
-4.09
-4.60
-4.96
-5.40
-6.24
-7.76
-10.07
-12.93
-15.96
-18.66
-20.72
-22.09
-23.03
-23.89
-25.04
-26.62
-28.59
-30.78
-32.94
-34.84
-36.19
-36.65
-35.77
-33.22
-28.90
-23.09
-16.44
-9.74
-3.71
1.23
5.01
7.79
9.76
11.10
11.88
12.14
12.00
11.60
11.15
10.88
10.93
11.35
12.07
12.99
13.96
14.88
15.70
16.37
16.87
17.14
17.09
16.66
15.90
14.91
13.88
12.97
12.25
11.67
11.06
10.26
9.15
7.69
5.97
4.15
2.41
0.93
-0.22
-1.08
-1.78
-2.54
-3.55
-4.92
-6.66
-8.67
-10.80
-12.90
-14.86
-16.67
-18.37
-20.05
-21.75
-23.47
-25.18
-26.83
-28.41
-29.88
-31.21
-32.20
-32.53
-31.83
-29.72
-26.02
-20.83
-14.51
-7.62
-0.81
5.33
10.40
14.20
16.73
18.15
18.69
18.60
18.15
17.62
17.29
17.34
17.79
18.42
18.88
18.87
18.27
17.24
16.15
15.31
14.89
14.77
14.63
14.19
13.31
12.05
10.59
9.10
7.64
6.21
4.75
3.29
1.85
0.50
-0.69
-1.74
-2.71
-3.70
-4.82
-6.10
-7.48
-8.85
-10.10
-11.21
-12.27
-13.44
-14.84
-16.45
-18.09
-19.58
-20.77
-21.73
-22.69
-23.94
-25.65
-27.75
-29.91
-31.61
-32.30
-31.46
-28.78
-24.20
-17.99
-10.76
-3.29
3.59
9.30
13.58
16.54
18.44
19.56
20.06
20.01
19.50
18.69
17.86
17.26
17.01
17.07
17.29
17.49
17.59
17.62
17.66
17.78
17.97
18.13
18.11
17.79
17.10
16.06
14.76
13.34
11.92
10.60
9.39
8.23
7.06
5.82
4.48
3.09
1.70
0.36
-0.88
-2.02
-3.11
-4.21
-5.42
-6.84
-8.52
-10.46
-12.58
-14.70
-16.64
-18.28
-19.56
-20.58
-21.53
-22.62
-24.04
-25.86
-28.05
-30.36
-32.39
-33.59
-33.35
-31.23
-27.07
-21.17
-14.16
-6.89
-0.15
5.52
9.93
13.13
15.30
16.55
16.97
16.62
15.67
14.44
13.33
12.71
12.78
13.49
14.58
15.73
16.66
17.26
17.57
17.73
17.87
18.04
18.19
18.21
17.98
17.40
16.45
15.17
13.64
11.95
10.20
8.46
6.75
5.06
3.39
1.80
0.42
-0.65
-1.40
-1.96
-2.60
-3.57
-5.00
-6.84
-8.84
-10.71
-12.26
-13.50
-14.59
-15.78
-17.32
-19.33
-21.83
-24.62
-27.38
-29.59
-30.67
-30.07
-27.48
-22.90
-16.74
-9.68
-2.44
4.31
10.14
14.82
18.26
20.40
21.21
20.78
19.34
17.29
15.15
13.35
12.20
11.75
11.91
12.50
13.38
14.40
15.44
16.34
16.88
16.94
16.46
15.55
14.37
13.11
11.84
10.58
9.23
7.71
5.97
4.02
1.94
-0.13
-2.01
-3.55
-4.69
-5.53
-6.28
-7.19
-8.48
-10.14
-12.07
-14.01
-15.79
-17.35
-18.76
-20.22
-21.90
-23.92
-26.25
-28.71
-30.89
-32.24
-32.11
-29.97
-25.58
-19.14
-11.29
-2.93
4.99
11.72
16.82
20.19
21.94
22.34
21.65
20.21
18.30
16.26
14.39
12.97
12.23
12.30
13.16
14.66
16.51
18.40
20.03
21.19
21.77
21.77
21.23
20.20
18.76
17.01
15.05
12.97
10.91
8.97
7.22
5.71
4.49
3.53
2.76
2.07
1.33
0.48
-0.47
-1.42
-2.22
-2.76
-3.09
-3.40
-4.02
-5.21
-7.07
-9.47
-12.11
-14.67
-16.93
-18.86
-20.67
-22.64
-25.03
-27.93
-31.20
-34.42
-36.95
-38.03
-37.04
-33.66
-28.07
-20.91
-13.08
-5.48
1.20
6.65
10.82
13.85
15.88
17.01
17.32
16.97
16.25
15.50
15.07
15.10
15.50
16.01
16.40
16.55
16.51
16.43
16.40
16.39
16.19
15.63
14.63
13.30
11.79
10.28
8.78
7.22
5.56
3.83
2.14
0.64
-0.60
-1.63
-2.56
-3.51
-4.53
-5.54
-6.47
-7.29
-8.00
-8.71
-9.45
-10.27
-11.10
-11.91
-12.67
-13.39
-14.09
-14.77
-15.44
-16.15
-17.02
-18.21
-19.78
-21.51
-22.92
-23.29
-21.95
-18.57
-13.32
-6.83
0.04
6.43
11.78
15.80
18.44
19.75
19.87
18.98
17.43
15.64
14.07
13.09
12.89
13.40
14.42
15.60
16.61
17.22
17.34
17.02
16.42
15.71
14.98
14.23
13.32
12.14
10.66
8.97
7.23
5.56
4.01
2.52
1.04
-0.47
-1.96
-3.42
-4.86
-6.32
-7.90
-9.62
-11.38
-12.99
-14.29
-15.20
-15.84
-16.42
-17.19
-18.29
-19.75
-21.48
-23.36
-25.26
-27.01
-28.36
-28.94
-28.27
-25.94
-21.82
-16.17
-9.69
-3.23
2.44
6.88
10.01
12.01
13.07
13.39
13.03
12.13
10.92
9.74
8.93
8.75
9.24
10.32
11.79
13.38
14.83
15.94
16.55
16.62
16.20
15.36
14.16
12.59
10.65
8.39
6.02
3.87
2.27
1.42
1.28
1.58
1.93
2.04
1.82
1.34
0.77
0.22
-0.29
-0.87
-1.61
-2.53
-3.62
-4.80
-6.05
-7.40
-8.94
-10.75
-12.83
-15.13
-17.50
-19.75
-21.68
-23.18
-24.33
-25.37
-26.62
-28.36
-30.56
-32.80
-34.39
-34.55
-32.77
-28.95
-23.47
-17.00
-10.27
-3.85
1.92
6.90
11.08
14.42
16.88
18.41
19.07
19.01
18.53
17.96
17.59
17.52
17.70
17.95
18.12
18.13
18.07
18.08
18.28
18.66
19.10
19.45
19.57
19.44
19.08
18.54
17.87
17.10
16.25
15.39
14.54
13.67
12.73
11.62
10.30
8.77
7.12
5.50
4.04
2.80
1.75
0.82
-0.03
-0.85
-1.60
-2.23
-2.69
-3.04
-3.42
-4.08
-5.19
-6.79
-8.75
-10.81
-12.69
-14.29
-15.63
-16.91
-18.31
-19.91
-21.73
-23.68
-25.67
-27.61
-29.39
-30.82
-31.64
-31.49
-30.00
-26.97
-22.39
-16.53
-9.89
-3.10
3.18
8.43
12.36
14.99
16.52
17.26
17.50
17.40
17.01
16.44
15.82
15.41
15.41
15.95
16.92
18.01
18.86
19.20
19.02
18.50
17.89
17.38
16.96
16.49
15.80
14.80
13.58
12.37
11.33
10.54
9.94
9.36
8.66
7.82
6.86
5.88
4.93
4.05
3.25
2.52
1.84
1.11
0.24
-0.90
-2.34
-3.99
-5.66
-7.14
-8.35
-9.33
-10.29
-11.43
-12.89
-14.60
-16.44
-18.21
-19.77
-21.06
-22.13
-23.12
-24.18
-25.49
-27.11
-28.97
-30.81
-32.16
-32.54
-31.50
-28.82
-24.59
-19.19
-13.19
-7.22
-1.80
2.77
6.38
9.08
11.00
12.29
13.09
13.51
13.67
13.66
13.57
13.45
13.37
13.37
13.51
13.84
14.36
15.01
15.65
16.09
16.18
15.86
15.18
14.29
13.35
12.48
11.73
11.06
10.42
9.74
9.03
8.35
7.76
7.29
6.94
6.61
6.17
5.52
4.64
3.57
2.48
1.54
0.89
0.52
0.32
0.10
-0.26
-0.80
-1.48
-2.25
-3.12
-4.12
-5.26
-6.53
-7.84
-9.08
-10.23
-11.38
-12.63
-14.05
-15.61
-17.15
-18.54
-19.73
-20.81
-21.91
-23.14
-24.53
-26.03
-27.53
-28.92
-30.05
-30.69
-30.61
-29.53
-27.28
-23.89
-19.60
-14.77
-9.76
-4.85
-0.22
3.97
7.55
10.32
12.13
12.99
13.11
12.88
12.69
12.86
13.45
14.35
15.31
16.12
16.66
16.99
17.24
17.58
18.14
18.94
19.89
20.85
21.67
22.26
22.58
22.59
22.19
21.24
19.53
16.93
13.38
8.97
3.90
-1.52
-6.88
-11.73
-15.62
-18.18
-19.30
-19.05
-17.75
-15.84
-13.76
-11.90
-10.60
-10.06
-10.39
-11.48
-13.08
-14.78
-16.17
-17.00
-17.21
-16.99
-16.66
-16.56
-16.94
-17.89
-19.31
-20.97
-22.57
-23.88
-24.73
-25.04
-24.75
-23.81
-22.10
-19.57
-16.24
-12.27
-7.94
-3.54
0.67
4.54
7.99
10.94
13.26
14.82
15.53
15.45
14.79
13.87
13.02
12.44
12.22
12.34
12.74
13.37
14.19
15.13
16.06
16.81
17.23
17.25
16.86
16.19
15.32
14.38
13.41
12.47
11.64
10.94
10.39
9.93
9.53
9.14
8.77
8.49
8.32
8.27
8.23
8.05
7.62
6.91
5.98
4.95
3.91
2.87
1.82
0.73
-0.33
-1.34
-2.25
-3.10
-3.97
-4.95
-6.09
-7.39
-8.80
-10.30
-11.92
-13.68
-15.57
-17.54
-19.46
-21.24
-22.78
-24.04
-24.98
-25.51
-25.46
-24.63
-22.88
-20.16
-16.65
-12.67
-8.65
-4.97
-1.85
0.68
2.73
4.42
5.77
6.68
7.03
6.81
6.20
5.53
5.19
5.37
6.08
7.12
8.18
9.00
9.50
9.68
9.68
9.62
9.58
9.58
9.60
9.55
9.40
9.11
8.70
8.22
7.74
7.28
6.83
6.38
5.87
5.36
4.91
4.59
4.43
4.33
4.18
3.85
3.30
2.62
1.94
1.40
1.07
0.89
0.73
0.44
-0.15
-1.14
-2.51
-4.17
-5.98
-7.84
-9.71
-11.69
-13.88
-16.35
-19.05
-21.74
-24.06
-25.61
-26.08
-25.22
-22.99
-19.49
-15.03
-10.09
-5.19
-0.85
2.62
5.09
6.66
7.55
8.01
8.27
8.46
8.67
8.92
9.26
9.78
10.58
11.79
13.48
15.64
18.10
20.54
22.53
23.68
23.75
22.71
20.91
18.93
17.55
17.41
18.85
21.65
25.14
28.38
30.50
31.03
29.92
27.54
24.42
21.06
17.75
14.65
11.73
8.93
6.13
3.14
-0.19
-3.99
-8.25
-12.76
-17.24
-21.33
-24.84
-27.72
-30.08
-32.15
-34.16
-36.25
-38.38
-40.26
-41.41
-41.28
-39.44
-35.84
-30.80
-25.00
-19.18
-13.85
-9.20
-5.13
-1.42
1.99
4.91
7.01
7.99
7.78
6.56
4.77
2.94
1.58
1.05
1.45
2.63
4.20
5.66
6.63
6.96
6.80
6.45
6.26
6.35
6.65
6.87
6.72
6.00
4.73
3.14
1.58
0.39
-0.27
-0.47
-0.49
-0.66
-1.17
-1.99
-2.85
-3.47
-3.70
-3.70
-3.79
-4.29
-5.39
-7.00
-8.90
-10.87
-12.85
-14.93
-17.19
-19.60
-21.98
-24.10
-25.85
-27.35
-28.90
-30.85
-33.31
-36.08
-38.63
-40.30
-40.50
-38.79
-35.02
-29.26
-21.80
-13.15
-3.94
5.12
13.39
20.42
26.07
30.42
33.73
36.24
38.08
39.27
39.72
39.43
38.48
37.10
35.58
34.18
33.05
32.23
31.70
31.35
31.15
31.01
30.84
30.52
29.93
28.96
27.60
25.88
23.87
21.67
19.32
16.82
14.18
11.41
8.55
5.63
2.73
-0.11
-2.83
-5.39
-7.81
-10.12
-12.44
-14.88
-17.49
-20.20
-22.86
-25.26
-27.24
-28.78
-29.96
-30.91
-31.76
-32.61
-33.55
-34.63
-35.96
-37.63
-39.64
-41.84
-43.86
-45.15
-45.12
-43.29
-39.45
-33.70
-26.50
-18.51
-10.47
-3.00
3.47
8.75
12.79
15.67
17.48
18.34
18.44
18.05
17.42
16.82
16.39
16.18
16.14
16.22
16.42
16.78
17.32
17.99
18.64
19.09
19.16
18.75
17.85
16.49
14.80
12.96
11.17
9.62
8.40
7.44
6.58
5.60
4.39
2.96
1.44
-0.00
-1.28
-2.42
-3.54
-4.78
-6.21
-7.83
-9.58
-11.40
-13.30
-15.30
-17.46
-19.85
-22.51
-25.42
-28.48
-31.52
-34.24
-36.24
-37.04
-36.19
-33.40
-28.64
-22.21
-14.66
-6.66
1.13
8.18
14.14
18.81
22.13
24.12
24.95
24.92
24.44
23.92
23.64
23.68
23.92
24.14
24.22
24.17
24.16
24.33
24.74
25.25
25.65
25.75
25.45
24.80
23.87
22.77
21.52
20.19
18.88
17.69
16.70
15.87
15.07
14.14
12.95
11.54
10.05
8.63
7.38
6.28
5.20
4.04
2.73
1.28
-0.22
-1.72
-3.26
-4.96
-7.02
-9.50
-12.32
-15.24
-17.95
-20.23
-22.02
-23.47
-24.86
-26.47
-28.52
-31.09
-34.19
-37.73
-41.51
-45.08
-47.81
-48.94
-47.75
-43.90
-37.53
-29.30
-20.15
-11.04
-2.68
4.58
10.62
15.50
19.24
21.83
23.28
23.71
23.37
22.61
21.78
21.15
20.86
20.91
21.23
21.78
22.55
23.57
24.83
26.22
27.56
28.55
28.95
28.64
27.67
26.25
24.63
23.08
21.74
20.68
19.85
19.13
18.41
