1552510757.00
64.000000
-0.00
-0.00
-0.00
-0.00
-0.00
-0.00
-0.00
-0.00
-0.00
-0.00
0.00
0.01
0.01
-0.00
-0.03
-0.05
-0.05
0.00
0.13
0.36
0.66
1.01
1.37
1.72
2.06
2.40
2.79
3.24
3.80
4.42
5.06
5.67
6.22
6.71
7.20
7.77
8.47
9.40
10.49
11.61
12.67
13.60
14.46
15.40
16.64
18.32
20.67
23.49
26.52
29.47
32.17
34.68
37.32
40.54
44.64
50.04
56.38
63.15
69.77
75.88
81.54
87.24
93.70
101.46
111.09
122.11
133.74
145.10
155.60
165.27
174.71
185.28
195.75
208.41
223.91
242.37
262.59
281.64
295.12
298.36
288.01
263.25
226.53
181.76
133.31
84.39
36.53
-10.12
-55.75
-100.08
-142.23
-180.71
-214.63
-243.47
-266.96
-284.73
-296.12
-300.76
-298.27
-288.80
-272.98
-252.37
-228.87
-204.38
-180.38
-157.79
-136.87
-117.38
-99.00
-81.46
-64.91
-49.72
-36.43
-24.98
-15.34
-7.25
-0.36
5.64
10.95
15.56
19.36
22.24
24.18
25.22
25.55
25.41
25.09
24.79
24.59
24.46
24.29
24.00
23.39
22.34
20.80
18.76
16.27
13.47
10.53
7.69
5.17
3.14
1.75
1.05
1.02
1.54
2.42
3.43
4.30
4.78
4.69
3.89
2.35
0.17
-2.48
-5.35
-8.18
-10.69
-12.63
-13.85
-14.28
-13.96
-13.03
-11.64
-10.04
-8.45
-7.07
-6.10
-5.62
-5.64
-6.14
-6.99
-8.08
-9.27
-10.38
-11.30
-11.94
-12.32
-12.47
-12.42
-12.27
-12.11
-12.03
-12.10
-12.35
-12.77
-13.30
-13.88
-14.51
-15.10
-15.60
-15.96
-16.20
-16.36
-16.46
-16.46
-16.38
-16.12
-15.64
-14.86
-13.71
-12.14
-10.14
-7.73
-5.11
-2.41
0.15
2.40
4.11
5.13
5.41
5.00
4.01
2.70
1.27
-0.01
-0.89
-1.23
-0.92
0.02
1.42
3.12
4.88
6.52
7.85
8.76
9.29
9.56
9.80
10.33
11.41
13.28
16.06
19.76
24.19
29.08
33.91
38.24
41.49
43.23
43.11
40.94
36.78
30.85
23.54
15.42
7.02
-1.01
-8.20
-14.15
-18.63
-21.60
-23.17
-23.52
-22.88
-21.45
-19.49
-17.20
-14.73
-12.27
-9.97
-7.80
-5.65
-3.27
-0.40
3.18
7.63
12.90
18.83
25.16
31.68
38.23
44.73
51.23
57.81
64.39
70.66
76.18
80.52
83.42
84.95
85.53
85.87
86.56
87.83
89.29
90.12
89.24
85.82
79.80
71.85
63.17
54.79
47.07
39.39
30.39
18.55
3.06
-15.65
-35.93
-55.59
-72.94
-87.59
-100.74
-114.37
-130.41
-149.81
-172.47
-198.05
-226.23
-256.42
-286.81
-313.24
-330.15
-332.83
-320.16
-296.30
-268.84
-245.07
-228.32
-216.54
-204.45
-187.41
-164.60
-139.80
-118.85
-106.09
-101.45
-100.42
-96.92
-86.80
-70.22
-51.66
-36.80
-29.42
-29.20
-31.79
-31.79
-25.68
-13.81
-0.39
9.21
11.45
6.89
0.12
-3.18
0.57
10.91
23.45
32.72
35.10
30.75
23.54
18.41
18.80
24.60
32.24
37.04
35.70
28.57
19.41
12.90
12.05
16.43
22.68
26.81
26.50
22.39
17.54
15.42
18.03
24.43
31.45
35.65
35.00
30.38
24.52
20.17
18.69
19.04
19.03
16.89
12.39
7.25
4.19
5.31
11.08
19.49
26.96
30.24
27.87
21.66
15.18
11.96
13.47
18.06
22.32
22.97
18.86
11.83
5.35
2.60
4.75
9.95
14.59
15.35
11.06
4.00
-1.97
-3.37
0.94
8.82
16.48
20.26
18.63
13.13
7.05
3.64
4.32
7.70
10.74
10.42
5.67
-1.39
-7.28
-8.69
-4.51
3.45
11.79
17.08
17.68
14.68
10.79
8.79
9.74
12.25
13.60
11.23
4.83
-2.85
-7.94
-7.18
-0.09
10.53
20.41
25.71
24.99
19.95
13.93
10.07
9.39
10.30
10.15
6.86
0.80
-5.01
-7.08
-3.24
5.62
15.93
23.39
24.95
20.43
12.76
6.30
4.71
8.82
16.18
22.57
24.32
20.62
14.11
8.79
7.95
11.97
18.17
22.33
20.96
13.30
1.93
-8.66
-14.40
-13.85
-9.13
-4.45
-3.66
-7.79
-14.30
-18.86
-17.84
-10.76
-0.67
7.42
9.27
4.12
-4.69
-11.47
-11.58
-4.07
7.54
17.36
20.54
16.15
7.66
0.69
-0.32
5.47
14.89
22.66
24.28
18.69
8.78
-0.12
-3.67
-0.73
5.95
11.53
12.08
6.93
-0.85
-6.48
-6.38
-0.17
8.88
15.78
16.48
10.17
-0.00
-8.64
-11.43
-7.26
1.01
8.38
10.81
7.34
0.73
-4.28
-3.99
2.33
11.62
18.78
19.51
12.43
0.33
-11.47
-18.23
-18.04
-12.99
-7.47
-5.32
-7.69
-12.17
-14.44
-11.10
-1.60
10.65
20.26
22.80
17.00
6.06
-4.45
-9.80
-8.43
-2.95
2.02
2.81
-1.20
-7.18
-10.77
-8.81
-1.04
9.30
17.37
19.49
14.98
7.06
0.61
-0.69
3.74
10.61
15.05
13.43
5.51
-4.92
-12.36
-12.55
-4.90
6.71
16.09
18.05
11.24
-0.53
-10.96
-14.67
-10.07
-0.44
8.49
11.68
7.55
-0.93
-8.46
-10.51
-5.81
2.61
9.44
9.97
2.88
-8.45
-18.40
-22.04
-17.88
-8.83
-0.07
3.70
1.03
-5.33
-10.45
-10.10
-3.52
5.77
12.23
11.15
1.91
-11.20
-21.66
-24.06
-17.27
-5.03
6.60
12.45
11.07
5.44
0.58
0.66
6.26
14.07
19.32
18.45
11.60
2.58
-3.82
-4.42
0.18
6.27
9.41
6.87
-0.66
-9.37
-14.65
-13.51
-6.53
2.24
7.70
6.34
-1.42
-11.65
-19.21
-20.43
-15.35
-7.20
-0.25
2.46
0.87
-2.47
-4.16
-1.89
4.10
11.41
17.09
19.35
18.77
17.54
17.75
20.17
23.47
25.21
23.22
16.86
7.97
0.11
-3.10
0.03
8.01
16.68
21.21
18.91
11.07
1.67
-4.58
-5.03
-0.61
5.21
8.64
7.82
3.95
0.04
-0.96
1.82
6.72
10.88
12.15
10.53
8.31
8.08
11.24
16.89
22.43
25.12
23.62
18.45
11.77
5.83
2.04
0.14
-1.28
-3.72
-7.69
-12.14
-14.87
-14.52
-10.91
-5.62
-0.96
1.20
0.40
-2.41
-5.74
-8.53
-10.74
-13.22
-16.88
-21.86
-26.95
-29.91
-28.49
-21.91
-11.35
0.39
10.23
15.63
15.63
11.05
4.14
-2.04
-4.96
-3.68
0.58
4.82
5.85
2.23
-4.71
-11.57
-14.65
-11.99
-4.49
4.18
9.73
9.57
4.34
-2.22
-5.83
-4.09
2.01
8.48
11.09
7.98
0.76
-6.16
-8.49
-4.55
3.85
12.04
15.31
11.43
2.10
-7.56
-12.21
-9.18
0.09
10.39
15.94
13.28
3.25
-9.29
-18.31
-19.75
-13.68
-4.45
2.02
1.37
-6.45
-17.02
-24.37
-24.25
-16.57
-5.31
4.14
8.02
6.11
1.82
-0.39
2.35
9.46
17.10
20.72
17.46
8.37
-1.99
-8.37
-7.54
-0.30
9.15
15.80
16.50
11.57
4.61
0.05
0.83
6.45
13.32
17.14
15.19
8.42
0.41
-4.84
-5.31
-2.45
0.16
-0.81
-6.40
-14.49
-21.01
-22.36
-17.33
-8.14
0.81
5.47
4.23
-0.75
-5.33
-5.79
-0.97
6.76
13.33
15.16
11.19
3.62
-3.60
-7.00
-5.31
-0.40
4.07
4.74
0.58
-5.92
-10.83
-10.85
-5.27
3.28
10.74
13.61
10.91
4.91
-0.61
-2.42
0.30
5.26
8.69
7.41
0.92
-7.66
-13.92
-14.25
-8.07
1.79
11.00
15.82
15.12
10.93
6.76
5.57
7.90
11.45
12.91
9.74
2.22
-6.20
-11.34
-10.17
-2.89
7.21
15.78
19.50
17.73
12.67
7.57
4.85
4.65
4.81
2.91
-2.21
-9.06
-13.89
-13.53
-6.78
4.25
15.17
21.74
21.71
15.89
7.59
0.62
-2.63
-2.41
-1.31
-2.39
-7.24
-14.58
-20.66
-21.76
-16.12
-5.43
6.00
13.20
13.02
5.78
-4.80
-13.49
-16.35
-12.71
-5.62
0.05
0.52
-4.56
-11.64
-15.90
-13.86
-5.67
4.94
12.76
13.94
8.32
-0.51
-7.23
-8.13
-3.15
3.95
7.89
5.16
-3.71
-14.31
-20.94
-19.84
-11.19
0.98
11.09
14.84
11.61
4.66
-0.80
-0.98
4.52
12.36
17.53
16.48
9.14
-0.78
-8.03
-8.88
-3.11
5.84
12.80
13.73
7.91
-1.50
-9.24
-11.32
-6.92
0.95
7.53
9.13
5.15
-1.46
-6.08
-5.29
1.32
10.50
17.21
17.44
10.29
-0.91
-10.43
-13.62
-9.03
0.39
9.31
13.22
10.80
4.82
0.21
1.02
8.07
17.93
25.01
24.79
16.24
2.99
-9.02
-14.98
-13.71
-8.46
-4.35
-5.11
-10.86
-17.88
-21.08
-17.12
-6.36
6.72
16.11
17.45
10.30
-0.99
-10.08
-12.11
-6.20
3.70
11.57
12.66
6.12
-4.17
-12.21
-13.28
-6.53
4.12
12.39
13.12
5.32
-6.72
-16.33
-18.12
-10.98
1.04
11.36
14.50
9.10
-1.16
-10.07
-12.39
-6.88
2.88
10.83
11.77
4.43
-7.29
-17.20
-20.04
-14.43
-3.73
6.41
11.04
8.64
1.99
-3.94
-4.93
-0.20
6.85
10.97
7.87
-2.58
-15.63
-24.51
-23.86
-13.20
2.69
16.53
22.25
18.28
8.40
-0.89
-4.09
0.05
7.82
13.33
11.95
3.58
-7.00
-13.43
-11.25
-0.94
12.41
22.05
23.24
15.93
4.77
-3.73
-4.84
1.59
11.05
17.21
15.69
6.79
-4.62
-12.57
-13.13
-7.15
0.51
3.94
-0.44
-11.57
-24.28
-32.17
-31.39
-22.84
-11.98
-5.65
-8.22
-18.73
-31.61
-39.72
-38.41
-28.23
-14.15
-2.72
1.58
-1.11
-6.73
-9.92
-7.37
0.37
9.66
16.32
18.31
16.99
15.92
18.14
24.24
31.91
37.29
37.24
31.00
20.98
11.76
7.89
11.18
19.74
28.65
32.45
28.34
18.09
6.61
-0.39
0.10
6.71
14.79
19.20
17.21
10.09
1.75
-3.68
-4.55
-2.41
-0.59
-1.63
-5.35
-8.97
-9.25
-4.51
3.87
12.38
17.13
16.20
10.39
2.54
-4.08
-7.51
-7.99
-7.39
-7.87
-10.26
-13.49
-15.09
-13.44
-8.37
-1.64
4.08
6.44
4.72
-0.05
-5.81
-10.54
-13.33
-14.60
-15.63
-17.72
-20.96
-23.95
-24.44
-20.98
-13.76
-4.83
3.09
7.42
7.23
3.46
-1.27
-3.53
-1.00
6.46
16.43
24.54
26.80
21.60
10.90
-0.71
-8.26
-8.97
-3.69
3.34
7.04
4.25
-4.10
-13.41
-18.46
-16.30
-8.07
1.57
7.54
7.18
1.65
-4.69
-7.22
-3.78
4.18
12.16
15.42
11.50
1.96
-8.15
-13.43
-10.91
-1.82
8.95
15.79
15.28
7.93
-1.84
-8.59
-8.66
-2.48
5.56
9.96
6.94
-2.77
-14.27
-21.48
-20.47
-11.93
-0.59
7.75
9.41
4.85
-1.64
-4.92
-1.81
6.67
15.87
20.56
17.73
8.92
-0.89
-6.42
-4.98
1.61
8.53
10.87
6.48
-2.67
-11.62
-15.29
-11.29
-1.59
8.51
13.47
10.52
1.77
-7.53
-12.03
-9.37
-1.80
5.59
7.85
3.08
-6.36
-15.40
-19.18
-15.72
-7.18
1.59
5.84
3.53
-3.11
-9.51
-11.35
-6.98
1.39
9.48
13.10
10.55
3.80
-3.00
-5.82
-3.21
2.75
7.72
7.55
0.97
-9.14
-17.75
-20.23
-15.10
-4.87
5.76
12.15
12.32
8.04
3.26
1.95
5.51
11.84
16.93
16.97
11.07
2.28
-4.68
-5.60
0.37
10.29
19.30
23.12
20.46
13.63
6.75
3.30
3.98
6.40
7.07
3.71
-2.81
-8.67
-9.89
-4.27
6.68
18.55
26.37
26.96
20.61
10.74
1.84
-2.87
-3.12
-1.60
-1.92
-6.38
-14.15
-21.34
-23.87
-19.31
-8.93
3.08
11.62
13.20
7.84
-1.21
-9.32
-13.15
-12.24
-9.23
-7.94
-10.86
-17.33
-23.52
-25.04
-19.35
-7.54
6.01
15.66
17.42
11.09
0.47
-8.55
-11.48
-7.46
0.15
5.85
5.38
-1.61
-11.15
-17.60
-16.77
-8.47
3.44
13.04
15.70
10.43
0.52
-8.33
-11.68
-8.50
-1.84
3.21
2.78
-3.58
-12.43
-18.47
-17.85
-10.20
1.03
10.38
13.43
9.13
0.61
-6.63
-8.14
-2.76
6.50
14.49
16.92
12.70
4.70
-1.97
-3.08
2.55
12.00
19.95
21.73
15.79
5.09
-4.67
-8.54
-4.73
3.90
12.05
15.07
11.58
4.38
-1.38
-1.43
5.18
14.93
22.03
21.65
12.67
-0.94
-12.63
-16.93
-12.30
-2.49
6.31
8.92
4.07
-4.74
-11.65
-11.86
-4.30
7.35
17.00
19.44
13.29
2.30
-7.16
-9.71
-3.78
7.05
16.63
19.57
14.33
4.23
-4.83
-7.66
-2.72
6.66
14.47
15.29
7.37
-5.78
-17.88
-23.24
-19.79
-10.53
-1.21
2.66
-1.04
-9.63
-17.57
-19.63
-14.04
-3.94
4.76
6.31
-1.11
-13.87
-25.36
-29.34
-23.66
-11.40
1.25
8.37
7.61
1.59
-4.30
-5.09
0.52
9.15
15.04
13.27
3.20
-10.56
-20.99
-22.22
-13.10
2.17
16.52
23.70
21.52
13.05
4.38
1.21
5.42
13.95
21.07
21.58
14.45
3.69
-4.31
-4.31
4.26
16.92
26.70
27.93
19.54
5.86
-6.01
-10.11
-5.14
4.78
12.70
12.92
4.56
-7.80
-17.18
-18.03
-9.73
3.14
13.46
15.39
7.85
-4.98
-16.06
-19.62
-14.49
-4.78
2.62
2.25
-6.47
-18.83
-27.80
-28.07
-19.26
-6.16
3.94
5.38
-2.48
-14.89
-24.42
-25.60
-18.02
-6.73
0.79
-0.72
-11.01
-24.27
-32.57
-30.50
-18.15
-0.99
13.22
18.67
14.72
5.90
-0.74
-0.16
8.04
19.55
28.17
29.64
24.02
15.41
9.19
8.63
13.33
19.54
22.51
19.36
10.74
0.78
-5.29
-4.39
2.75
11.51
16.16
13.18
3.49
-8.14
-15.38
-14.23
-5.15
7.01
15.90
17.17
10.70
0.26
-8.93
-13.45
-13.16
-10.72
-9.01
-9.08
-9.53
-8.06
-3.07
4.74
12.87
17.97
17.96
13.08
5.67
-0.81
-3.70
-2.41
1.48
4.83
5.14
1.79
-3.35
-7.62
-8.62
-5.70
-0.16
5.31
8.34
7.85
4.59
0.58
-2.40
-3.54
-3.30
-3.11
-3.96
-5.86
-7.42
-7.25
-4.37
0.92
7.27
12.59
15.29
14.66
11.27
6.57
1.67
-2.82
-6.88
-10.99
-15.20
-19.17
-21.86
-22.12
-19.17
-13.04
-4.99
2.30
5.86
3.44
-4.60
-14.99
-22.98
-24.51
-18.62
-8.03
2.54
8.85
9.70
7.32
5.65
7.82
13.85
20.38
23.05
18.81
8.66
-2.43
-8.38
-5.23
6.11
20.12
29.64
29.57
19.84
5.61
-5.69
-8.35
-1.82
9.09
17.32
17.50
9.60
-1.50
-9.22
-9.21
-2.12
7.19
12.85
11.36
3.60
-5.71
-11.08
-9.26
-1.29
7.93
12.68
9.43
-0.67
-12.56
-20.20
-19.80
-12.23
-2.40
3.47
1.19
-8.74
-21.45
-30.45
-31.06
-23.29
-11.75
-2.95
-1.60
-7.53
-16.28
-21.76
-20.00
-11.45
-0.50
7.05
7.40
1.17
-7.18
-11.90
-9.60
-1.33
8.09
12.85
9.79
0.67
-9.23
-14.00
-10.62
-0.60
11.23
19.26
20.25
15.08
7.86
3.58
4.99
10.97
17.50
19.87
15.91
7.50
-0.74
-3.88
0.10
9.25
18.80
23.63
21.24
13.27
4.35
-0.37
1.62
8.70
16.33
19.62
16.49
8.92
1.32
-1.73
1.53
9.21
17.02
20.69
18.43
11.68
3.79
-2.07
-4.85
-6.13
-8.53
-13.72
-20.88
-26.70
-27.75
-22.10
-10.99
1.68
11.09
13.71
9.20
0.37
-8.27
-12.96
-12.54
-9.05
-6.26
-7.23
-12.23
-18.15
-20.88
-17.35
-7.57
5.20
16.07
21.06
19.07
12.30
4.90
0.16
-0.89
-0.04
-0.40
-4.05
-10.52
-16.60
-18.68
-14.54
-5.01
6.41
15.13
17.82
13.95
5.95
-2.23
-7.63
-9.44
-9.28
-9.79
-12.57
-17.21
-21.16
-21.44
-16.46
-6.96
3.96
12.09
14.18
9.32
-0.21
-10.00
-15.92
-15.97
-11.50
-6.05
-3.22
-4.57
-8.45
-11.37
-10.13
-3.69
5.71
13.86
16.97
13.63
6.22
-0.63
-2.87
1.04
8.79
16.06
18.98
16.23
9.92
4.19
2.71
6.72
13.97
20.11
21.20
15.94
6.97
-0.97
-3.82
-0.31
6.80
12.95
14.29
9.82
2.20
-4.08
-5.24
-0.23
8.18
15.17
16.40
10.45
0.38
-8.46
-11.19
-5.98
4.35
14.42
18.91
15.48
6.30
-3.60
-9.01
-7.43
-0.76
6.23
8.38
3.27
-6.78
-16.71
-21.34
-18.31
-9.70
-0.35
4.66
2.96
-3.61
-10.49
-13.00
-9.19
-1.28
5.98
7.67
1.83
-8.89
-19.29
-24.07
-20.95
-11.92
-1.59
5.09
5.63
1.42
-3.64
-5.41
-2.23
3.85
8.61
7.92
0.71
-9.89
-18.52
-20.29
-13.85
-2.17
9.32
15.41
14.06
7.53
0.75
-1.42
2.86
11.21
18.75
20.74
15.76
6.91
-0.46
-1.35
5.57
17.17
27.61
31.30
26.12
14.59
2.44
-4.59
-4.02
1.94
8.02
9.03
3.32
-6.22
-14.24
-15.93
-10.26
-0.48
7.63
8.99
2.29
-9.14
-19.13
-22.35
-17.27
-7.27
1.35
3.17
-3.13
-13.70
-22.07
-22.73
-14.30
-0.38
12.47
18.30
15.10
5.78
-3.62
-7.79
-5.08
1.58
6.58
5.36
-2.73
-13.78
-21.81
-22.22
-14.44
-2.34
7.82
10.93
5.76
-4.30
-13.23
-16.21
-12.18
-4.45
1.32
0.72
-6.87
-17.68
-25.77
-26.53
-19.18
-7.37
2.83
6.24
1.51
-7.99
-16.05
-17.51
-11.00
0.21
10.46
15.26
13.76
9.10
6.15
8.24
15.32
23.73
28.55
26.53
17.92
6.85
-1.14
-2.36
3.22
11.66
17.72
17.90
12.49
5.02
0.42
1.76
8.64
17.21
22.72
22.11
15.64
6.68
-0.73
-4.10
-3.63
-1.90
-1.43
-3.16
-5.84
-7.30
-5.82
-1.40
4.37
8.95
10.62
9.07
5.47
1.83
-0.50
-1.41
-1.75
-2.89
-5.37
-8.68
-11.25
-12.01
-10.67
-8.00
-5.38
-4.29
-5.27
-8.09
-11.74
-15.01
-17.30
-18.53
-18.96
-18.91
-18.10
-16.06
-12.15
-6.44
0.46
7.57
13.91
18.59
21.40
22.16
21.16
18.66
14.82
9.97
4.61
-0.42
-3.92
-5.14
-3.91
-1.03
2.17
4.72
6.09
6.08
4.90
2.56
-0.39
-3.07
-4.51
-3.93
-1.60
1.30
3.25
3.11
1.17
-1.16
-2.04
-0.13
4.10
8.52
10.59
8.66
3.63
-1.76
-4.48
-2.81
2.18
7.33
9.13
5.67
-1.96
-10.13
-14.69
-13.10
-6.28
1.88
6.65
5.15
-1.55
-9.32
-13.37
-11.00
-3.32
5.63
11.00
9.86
2.87
-6.14
-12.42
-12.79
-7.51
-0.00
5.06
4.48
-1.32
-8.70
-12.98
-11.03
-3.27
6.62
13.55
13.80
7.45
-1.80
-8.56
-9.01
-3.31
4.63
9.27
7.10
-1.00
-10.41
-15.39
-12.78
-3.74
7.00
13.70
12.99
5.84
-3.17
-8.42
-6.80
0.51
8.90
12.98
10.11
1.95
-6.56
-10.20
-6.67
2.19
11.55
16.13
13.36
4.81
-4.79
-10.13
-8.58
-1.62
6.18
9.90
7.38
0.42
-6.62
-9.32
-6.07
1.27
8.46
11.26
8.04
0.61
-6.82
-10.05
-7.43
-0.79
5.65
7.86
4.53
-2.04
-7.65
-8.36
-3.13
5.75
13.79
16.92
13.85
6.64
-0.58
-4.38
-3.94
-1.40
-0.36
-3.21
-9.46
-15.68
-17.93
-13.76
-3.94
8.03
17.50
21.14
18.49
12.04
5.69
2.17
1.81
2.48
1.13
-3.88
-11.59
-18.44
-20.77
-16.63
-7.15
3.95
12.12
14.34
10.35
2.81
-4.42
-8.73
-9.77
-9.43
-10.24
-13.40
-17.98
-21.12
-20.09
-13.79
-3.52
7.36
15.03
17.22
13.81
7.19
0.71
-3.40
-4.69
-4.77
-5.81
-8.78
-12.87
-15.46
-13.95
-7.22
3.52
14.84
22.53
23.83
18.29
8.54
-1.21
-7.45
-8.74
-6.60
-4.07
-3.69
-6.05
-9.22
-10.29
-7.14
0.21
9.14
15.76
17.24
13.12
6.29
0.97
0.31
4.81
11.55
16.39
16.24
10.80
2.95
-3.09
-4.06
0.61
8.21
14.33
15.35
10.37
2.37
-4.03
-5.11
-0.03
8.21
14.88
15.98
10.52
1.38
-6.54
-8.98
-4.76
3.24
9.83
10.22
2.84
-9.15
-20.22
-25.17
-21.98
-13.06
-3.19
2.88
3.13
-0.67
-4.61
-5.02
-0.87
5.38
9.55
8.01
0.24
-10.18
-17.98
-18.79
-11.85
-0.62
9.40
13.38
9.91
1.84
-5.68
-8.07
-4.19
2.85
7.90
6.66
-1.33
-11.98
-19.50
-19.34
-11.14
1.14
11.79
16.22
13.59
7.12
1.96
2.22
8.53
17.49
24.03
24.15
17.63
8.33
1.44
0.89
6.63
14.82
20.08
18.41
9.67
-2.15
-11.23
-13.20
-7.67
1.22
7.33
5.92
-3.26
-15.64
-24.72
-25.42
-17.33
-4.79
5.34
7.46
0.44
-11.73
-22.19
-25.34
-19.85
-9.53
-0.90
0.89
-4.81
-13.58
-18.98
-16.37
-5.67
8.45
19.30
21.81
15.49
4.63
-4.14
-6.04
-0.62
7.95
13.50
11.78
2.99
-8.16
-15.39
-14.57
-5.88
6.23
15.60
17.79
12.39
3.29
-3.70
-4.65
0.50
7.81
11.73
8.73
-0.67
-11.82
-18.71
-17.50
-8.62
3.22
11.53
11.74
3.52
-8.83
-18.78
-21.62
-16.79
-8.13
-1.39
-0.47
-5.44
-12.26
-15.53
-11.84
-1.70
10.27
17.94
17.29
8.40
-4.06
-13.62
-15.84
-10.53
-2.00
3.92
3.64
-2.26
-9.30
-12.06
-7.65
2.70
13.89
20.09
18.13
9.29
-0.87
-6.11
-3.05
6.92
18.07
24.02
21.34
11.56
0.16
-6.63
-5.41
2.67
12.56
18.56
17.46
10.21
1.08
-5.37
-6.96
-4.66
-1.76
-0.99
-2.95
-5.86
-6.87
-4.25
1.52
8.04
11.95
11.08
5.25
-3.30
-10.84
-14.26
-12.41
-6.67
-0.25
3.76
3.78
0.70
-3.08
-4.98
-3.63
0.16
3.96
5.50
3.63
-0.70
-5.43
-8.84
-10.41
-10.99
-11.83
-13.28
-14.58
-14.13
-10.48
-3.38
6.17
15.87
23.01
25.87
24.10
19.35
14.10
10.40
9.07
9.06
8.55
6.28
2.14
-2.25
-4.98
-4.70
-1.40
3.26
6.78
7.28
4.31
-0.46
-4.65
-6.54
-5.80
-4.04
-3.44
-5.50
-10.06
-15.11
-17.95
-16.64
-10.96
-2.92
4.09
6.99
4.57
-1.35
-7.08
-8.97
-5.30
2.36
10.06
13.36
9.70
0.35
-10.34
-17.04
-16.42
-9.25
0.05
5.85
4.69
-2.34
-10.64
-14.81
-11.92
-3.16
7.20
14.24
15.25
11.33
6.34
4.67
8.14
14.92
20.46
20.05
11.88
-1.43
-14.02
-19.83
-16.07
-4.76
8.17
15.83
14.07
3.79
-9.56
-18.85
-19.52
-11.98
-1.22
6.24
6.43
0.11
-7.80
-11.39
-7.53
2.32
13.01
18.52
15.50
5.37
-6.44
-13.44
-12.05
-3.61
6.31
11.31
8.16
-1.32
-11.30
-15.41
-10.73
0.66
12.69
18.76
15.61
5.10
-6.83
-13.62
-12.04
-3.90
5.10
9.04
5.47
-3.15
-11.15
-13.18
-7.47
3.19
12.94
16.33
11.59
1.68
-7.41
-10.43
-5.92
2.93
10.10
10.62
3.57
-7.26
-15.81
-17.08
-10.03
2.05
13.31
18.76
16.90
10.27
3.77
1.21
3.27
7.22
8.78
5.17
-3.14
-12.31
-17.59
-15.90
-7.64
3.51
12.34
15.05
10.86
2.41
-5.89
-10.79
-11.49
-9.96
-9.29
-11.36
-15.74
-19.55
-19.61
-14.15
-4.02
7.35
15.57
17.62
12.88
3.72
-5.97
-13.16
-16.73
-18.05
-19.45
-22.42
-26.68
-29.91
-29.60
-24.50
-15.63
-6.44
-1.20
-2.75
-11.33
-23.93
-36.09
-44.39
-48.00
-49.33
-52.04
-58.62
-68.85
-79.47
-86.51
-87.66
-83.82
-79.24
-79.27
-87.24
-102.72
-121.08
-136.48
-145.12
-147.38
-148.03
-153.14
-166.47
-187.10
-209.41
-225.92
-230.97
-222.79
-203.89
-178.87
-151.30
-122.14
-89.44
-50.18
-2.27
54.14
116.58
181.26
243.67
299.26
344.38
376.81
395.95
402.53
397.71
382.78
359.27
328.98
294.62
259.18
225.47
195.49
169.79
147.74
128.04
109.35
90.95
72.94
56.01
41.08
28.78
19.07
11.39
4.88
-1.25
-7.45
-13.67
-19.57
-24.63
-28.48
-31.06
-32.63
-33.68
-34.63
-35.77
-37.13
-38.48
-39.48
-39.76
-39.25
-38.14
-36.84
-35.85
-35.45
-35.64
-36.11
-36.29
-35.66
-34.02
-31.68
-29.35
-27.77
-27.45
-28.34
-29.83
-30.91
-30.68
-28.80
-25.48
-22.16
-20.18
-20.41
-22.73
-26.02
-28.61
-29.14
-27.08
-23.10
-18.88
-15.98
-15.57
-18.08
-23.35
-30.50
-37.62
-41.67
-38.89
-26.33
-3.28
27.56
60.51
89.07
108.34
116.88
116.33
110.28
100.38
87.15
69.90
48.33
23.73
-1.09
-22.61
-37.84
-45.07
-44.57
-38.26
-29.97
-24.23
-25.01
-33.83
-48.71
-64.99
-76.21
-78.27
-70.91
-57.70
-43.72
-33.01
-26.76
-23.56
-21.10
-17.82
-14.11
-11.41
-11.19
-13.72
-17.93
-22.20
-24.95
-26.08
-26.44
-27.09
-28.23
-28.67
-26.31
-19.41
-7.75
6.93
21.51
32.89
39.25
40.60
38.38
34.49
30.43
26.89
24.01
21.75
20.18
19.40
19.34
19.72
19.96
19.43
17.56
14.28
10.08
5.96
3.05
2.11
3.16
5.46
7.85
9.33
9.50
8.68
7.53
6.67
6.27
6.08
5.68
4.87
3.85
3.12
3.20
4.31
6.27
8.49
10.30
11.31
11.48
11.22
11.15
11.81
13.28
15.28
17.23
18.48
18.72
18.00
16.85
15.97
16.16
17.85
21.18
25.76
30.85
35.35
38.20
38.42
35.49
29.67
21.76
13.40
6.50
2.42
1.33
2.10
2.74
1.26
-3.16
-10.12
-18.14
-25.61
-31.39
-35.25
-37.52
-38.75
-39.09
-38.43
-36.67
-33.91
-30.64
-27.51
-25.10
-23.64
-22.95
-22.50
-21.76
-20.39
-18.42
-16.15
-14.02
-12.42
-11.48
-11.10
-10.93
-10.62
-9.93
-8.83
-7.49
-6.16
-5.12
-4.50
-4.27
-4.25
-4.23
-4.05
-3.65
-3.08
-2.48
-2.00
-1.77
-1.82
-2.06
-2.38
-2.61
-2.67
-2.54
-2.29
-2.14
-2.25
-2.76
-3.59
-4.60
-5.46
-5.93
-5.92
-5.59
-5.33
-5.59
-6.66
-8.49
-10.65
-12.50
-13.49
-13.42
-12.60
-11.83
-12.01
-13.71
-16.85
-20.68
-24.05
-25.98
-26.09
-24.87
-23.52
-23.28
-24.83
-27.95
-31.44
-33.72
-33.27
-28.89
-19.77
-5.88
11.90
31.06
47.64
57.18
56.57
45.77
27.95
9.33
-4.36
-10.17
-8.84
-3.63
1.86
5.65
7.84
9.61
11.84
13.97
14.50
12.04
6.50
-0.71
-7.28
-11.11
-11.37
-8.96
-6.04
-5.05
-7.49
-13.28
-20.79
-27.60
-31.78
-32.57
-30.72
-28.13
-26.76
-27.99
-32.39
-39.80
-49.36
-59.14
-66.02
-66.14
-56.30
-35.69
-7.00
24.12
51.10
69.14
77.01
76.94
72.92
68.30
64.56
61.27
57.47
52.88
48.34
45.21
44.34
45.43
47.23
48.28
47.49
44.86
41.30
38.17
36.57
36.92
38.81
41.26
43.18
43.93
43.47
42.36
41.40
41.18
41.80
42.82
43.49
43.23
41.25
37.35
31.74
24.88
17.23
9.16
0.88
-7.50
-16.10
-24.37
-31.90
-38.31
-43.28
-46.65
-48.44
-48.83
-48.11
-46.60
-44.57
-42.29
-39.90
-37.50
-35.17
-32.93
-30.80
-28.81
-26.93
-25.15
-23.46
-21.88
-20.41
-19.04
-17.79
-16.65
-15.61
-14.69
-13.85
-13.12
-12.49
-11.95
-11.51
-11.15
-10.88
-10.70
-10.60
-10.57
-10.61
-10.71
-10.88
-11.12
-11.42
-11.80
-12.26
-12.78
-13.38
-14.03
-14.72
-15.43
-16.16
-16.86
-17.45
-17.87
-17.99
-17.72
-16.93
-15.51
-13.35
-10.44
-6.74
-2.34
2.60
7.88
13.20
18.25
22.70
26.14
28.25
28.73
27.42
24.25
19.34
12.92
4.98
-3.72
-12.64
-21.28
-29.24
-36.23
-41.96
-46.21
-48.81
-49.70
-48.75
-45.90
-41.18
-34.72
-26.70
-17.43
-7.25
3.46
14.24
24.67
33.66
41.13
46.91
50.95
53.29
54.20
54.00
52.98
51.43
49.52
47.43
45.25
43.35
41.62
40.18
39.15
38.59
38.39
38.37
38.31
38.01
37.33
36.34
35.27
34.60
34.18
33.68
32.58
30.37
26.66
21.46
15.30
9.09
3.35
-0.94
-3.68
-5.43
-7.01
-9.07
-11.65
-14.04
-15.01
-13.40
-8.95
-2.45
4.49
9.99
12.98
13.43
12.61
12.40
14.34
19.09
26.32
35.17
44.44
52.53
57.08
55.09
44.08
23.35
-4.87
-35.69
-63.47
-84.40
-98.09
-107.15
-114.44
-120.12
-120.68
-110.45
-85.02
-44.55
5.05
53.54
89.83
105.73
98.50
71.22
31.68
-10.64
-47.56
-74.07
-89.35
-95.85
-97.36
-97.30
-97.78
-99.67
-103.07
-107.51
-111.27
-111.22
-103.37
-84.68
-55.08
-18.34
19.24
51.15
73.37
85.50
89.84
89.55
86.92
83.01
78.38
74.01
71.48
72.31
76.86
83.74
90.69
95.56
97.40
96.64
94.08
90.08
84.55
77.73
70.86
65.72
63.11
61.47
56.60
43.52
19.42
-14.06
-51.03
-83.99
-107.51
-120.62
-126.34
-129.38
-133.12
-138.12
-142.63
-144.64
-143.42
-139.92
-136.36
-133.61
-131.16
-127.27
-119.66
-106.79
-88.57
-66.42
-42.26
-19.06
1.11
17.36
29.96
39.84
47.88
54.54
59.72
63.01
63.94
62.61
59.56
55.65
51.79
48.59
46.22
44.48
42.90
40.99
38.58
35.78
32.85
30.10
27.72
25.73
24.02
22.42
20.75
18.98
17.17
15.39
13.73
12.22
10.86
9.63
8.50
7.43
6.43
5.51
4.68
3.93
3.26
2.67
2.14
1.68
1.27
0.91
0.60
0.35
0.16
0.02
-0.06
-0.10
-0.10
-0.06
-0.01
0.07
0.17
0.28
0.43
0.57
0.70
0.77
0.77
0.71
0.62
0.56
0.57
0.67
0.87
1.09
1.29
1.43
1.48
1.51
1.57
1.74
2.09
2.60
3.22
3.82
4.31
4.63
4.84
5.11
5.59
6.42
7.55
8.80
9.87
10.52
10.71
10.64
10.71
11.31
12.72
14.82
17.14
19.08
20.08
20.03
19.30
18.67
18.93
20.60
23.51
26.81
29.21
29.50
27.07
22.14
15.68
8.64
2.01
-4.04
-10.03
-16.90
-25.74
-37.57
-53.01
-71.22
-90.36
-106.25
-113.54
-107.71
-87.41
-55.89
-20.26
11.21
32.80
42.92
44.38
42.03
40.33
41.64
46.29
53.43
61.64
69.00
72.65
69.54
57.44
36.82
11.36
-13.20
-31.26
-39.67
-38.71
-31.41
-21.62
-12.71
-6.40
-3.29
-3.36
-6.21
-10.99
-16.34
-20.61
-22.47
-21.83
-19.21
-16.00
-13.49
-12.16
-11.70
-11.41
-10.72
-9.80
-9.83
-11.93
-17.12
-25.95
-38.56
-54.48
-72.21
-88.92
-98.87
-98.64
-86.21
-62.83
-33.04
-3.02
21.65
38.03
46.26
48.29
46.09
41.42
35.41
29.32
25.07
24.82
30.17
41.32
56.59
72.63
85.50
90.88
85.74
69.91
47.35
25.74
13.89
17.77
36.81
63.26
84.71
89.41
71.41
33.08
-16.22
-64.84
-103.87
-130.04
-145.04
-152.91
-157.32
-160.00
-161.11
-160.46
-159.44
-160.93
-167.25
-177.70
-187.31
-188.70
-175.67
-146.56
-105.57
-61.99
-26.40
-6.02
-3.59
-14.77
-31.42
-45.82
-53.49
-52.89
-44.67
-30.14
-10.22
14.63
44.25
78.15
115.30
150.25
179.71
201.69
215.40
221.07
219.83
213.62
204.48
194.12
183.65
174.02
165.18
156.39
146.98
136.67
126.05
116.15
107.88
101.82
98.74
98.98
102.26
107.01
110.03
106.88
93.35
67.62
31.89
-7.61
-43.22
-69.05
-83.22
-87.77
-86.79
-83.78
-80.31
-76.04
-70.15
-63.12
-56.99
-54.67
-58.29
-68.52
-84.36
-103.41
-121.95
-135.66
-140.55
-133.56
-115.71
-91.13
-65.85
-45.56
-33.44
-29.20
-29.92
-32.05
-33.20
-32.96
-32.05
-31.15
-30.09
-27.87
-23.37
-16.19
-6.69
4.17
15.38
26.41
37.21
47.85
58.21
67.74
75.70
81.45
84.90
86.73
88.55
92.24
98.81
107.31
114.41
115.26
105.44
83.21
50.81
13.98
-20.17
-46.07
-61.66
-68.62
-70.79
-72.10
-74.89
-79.50
-84.65
-88.12
-87.19
-79.13
-62.07
-36.23
-4.82
26.30
50.68
63.75
65.10
58.53
49.90
44.07
42.73
44.15
45.14
43.54
39.63
36.08
36.05
41.19
50.83
62.61
73.95
83.30
91.39
99.03
107.04
115.60
124.10
131.44
136.59
138.96
138.73
136.88
134.88
134.27
135.90
139.17
141.91
140.99
133.51
118.04
95.17
67.09
36.76
6.97
-19.80
-41.12
-54.27
-56.80
-47.78
-29.14
-6.11
14.14
24.81
21.77
4.71
-23.45
-58.13
-94.80
-129.95
-161.28
-187.18
-206.61
-219.16
-225.21
-226.11
-223.71
-219.91
-216.02
-212.61
-209.36
-205.40
-199.61
-191.08
-179.46
-165.08
-148.98
-132.68
-117.73
-105.20
-95.43
-87.79
-80.90
-73.02
-62.89
-50.23
-36.12
-22.68
-12.23
-6.39
-5.09
-6.24
-6.17
-0.63
13.63
37.57
69.45
105.45
140.92
171.81
195.46
210.73
217.59
216.76
209.46
197.60
183.54
169.66
157.53
147.40
138.29
128.87
118.55
107.94
98.41
91.12
85.86
80.87
73.27
60.17
39.87
12.44
-20.49
-56.31
-92.11
-125.11
-152.60
-171.86
-180.39
-176.55
-160.38
-134.36
-103.40
-73.90
-52.18
-42.64
-46.48
-61.34
-81.85
-101.41
-114.08
-116.29
-107.74
-91.18
-71.28
-52.98
-39.85
-33.09
-31.51
-32.29
-32.35
-29.44
-22.70
-12.32
1.17
17.38
35.98
55.95
74.94
89.30
95.10
89.87
74.02
51.01
25.94
3.46
-14.24
-27.92
-40.62
-56.13
-77.58
-106.78
-144.12
-188.81
-239.05
-292.11
-344.35
-391.59
-429.82
-455.98
-468.68
-468.26
-456.81
-437.65
-414.49
-390.62
-368.20
-348.05
-329.81
-312.44
-294.65
-275.38
-254.10
-230.71
-205.44
-178.75
-151.35
-124.03
-97.56
-72.06
-47.35
-22.96
1.50
26.25
51.21
76.05
100.25
123.26
145.71
168.38
191.84
216.14
241.17
267.01
293.93
321.85
349.86
377.71
403.89
425.74
440.11
445.03
440.82
429.85
415.33
400.08
388.71
384.10
386.33
392.57
398.75
401.56
399.32
391.99
380.75
371.11
368.09
374.21
388.53
408.12
429.71
449.76
464.66
448.23
385.13
278.16
149.78
28.54
-65.99
-128.26
-163.72
-182.22
-193.24
-199.34
-200.12
-194.31
-183.97
-172.79
-164.29
-161.69
-166.99
-181.04
-200.88
-223.54
-247.48
-273.45
-303.01
-332.18
-356.31
-370.90
-373.89
-365.26
-348.37
-328.46
-309.91
-293.54
-276.06
-252.83
-220.53
-179.50
-133.04
-86.80
-46.58
-16.37
3.01
13.83
19.53
23.29
26.66
29.64
31.34
31.21
29.88
29.27
31.60
37.66
46.47
55.74
63.26
68.18
71.36
74.46
78.62
83.47
87.01
86.67
80.69
69.04
53.40
36.47
20.82
8.04
-1.61
-8.98
-15.45
-22.39
-30.81
-41.03
-52.34
-63.01
-70.46
-72.10
-66.19
-52.80
-33.87
-12.67
7.36
23.74
35.42
42.56
45.77
45.55
42.02
35.29
25.91
15.17
4.98
-2.66
-6.25
-5.28
-0.37
6.95
14.71
21.26
25.60
27.69
28.23
28.10
27.84
27.27
25.59
21.92
15.88
7.92
-0.67
-8.36
-14.05
-17.54
-19.63
-21.66
-24.92
-30.12
-37.23
-45.66
-54.46
-62.53
-68.46
-70.64
-67.38
-57.52
-41.05
-19.52
4.19
26.66
44.90
57.15
63.11
63.57
59.96
53.79
46.40
38.94
32.37
27.40
24.47
23.66
24.71
27.05
29.99
32.90
35.20
36.56
36.74
35.51
32.56
27.25
19.22
8.61
-3.49
-15.18
-24.36
-29.83
-32.10
-33.46
-37.06
-45.39
-59.09
-76.56
-94.58
-109.52
-118.35
-119.36
-111.94
-96.44
-73.68
-44.62
-10.07
29.50
73.84
121.83
170.98
216.73
252.98
273.75
275.08
256.52
221.46
175.62
125.49
76.67
32.97
-3.47
-31.74
-52.01
-65.49
-74.39
-81.37
-88.44
-96.00
-102.73
-106.43
-105.35
-99.21
-89.58
-78.89
-69.38
-62.26
-57.75
-55.68
-56.16
-59.61
-66.65
-77.12
-89.84
-102.60
-112.68
-117.44
-114.96
-104.37
-86.21
-62.35
-35.65
-9.12
14.71
34.35
49.40
60.22
67.38
71.35
72.49
71.27
68.58
65.68
64.01
64.64
67.83
72.88
78.36
82.66
84.67
84.10
81.46
77.70
73.64
69.75
65.96
61.86
57.02
51.17
44.27
36.51
28.18
19.65
11.25
3.21
-4.38
-11.62
-18.72
-25.91
-33.40
-41.44
-50.33
-60.34
-71.42
-82.81
-92.90
-99.40
-100.00
-93.22
-79.02
-58.88
-35.30
-11.11
11.18
29.70
43.25
51.27
54.02
52.78
49.92
48.43
51.23
60.15
75.28
94.93
116.18
135.79
151.16
160.85
164.67
163.33
157.85
149.03
137.27
122.64
105.29
85.77
65.24
45.25
27.40
12.85
2.10
-4.94
-8.68
-9.65
-8.62
-6.68
-5.35
-6.33
-10.96
-19.70
-31.88
-45.93
-59.86
-71.70
-79.80
-82.88
-80.16
-71.45
-57.49
-40.01
-21.46
-4.31
9.55
19.31
25.09
27.46
27.02
24.17
19.29
13.02
6.38
0.45
-3.99
-6.87
-8.75
-10.46
-12.43
-14.28
-14.89
-12.97
-7.88
-0.06
9.04
17.64
24.49
29.46
33.50
38.16
44.76
53.82
64.82
76.38
86.69
93.99
97.02
95.42
89.79
81.66
72.98
65.49
60.12
56.69
54.07
50.60
44.83
36.12
25.08
13.73
5.08
2.46
8.36
23.57
46.52
73.57
99.99
121.33
134.84
140.05
138.45
132.44
124.16
114.65
103.77
90.77
74.99
56.49
36.10
15.14
-5.06
-23.49
-39.63
-53.36
-64.76
-73.82
-80.25
-83.52
-82.93
-77.95
-68.59
-55.63
-40.57
-25.25
-11.55
-1.00
5.29
6.69
3.31
-3.84
-12.81
-21.29
-27.73
-32.25
-37.16
-46.46
-64.48
-94.21
-135.77
-185.77
-237.74
-283.70
-316.34
-331.06
-327.21
-307.90
-278.55
-244.90
-211.35
-180.43
-153.09
-129.64
-110.35
-95.30
-83.86
-74.34
-64.14
-50.56
-31.74
-7.26
21.82
53.44
85.38
115.74
143.14
166.69
185.70
199.58
207.92
210.54
207.68
200.01
188.33
173.39
155.69
135.57
113.38
89.70
65.25
40.80
17.03
-5.70
-27.13
-47.05
-65.38
-82.35
-98.24
-113.16
-126.43
-136.35
-140.43
-136.29
-122.86
-101.22
-74.49
-46.91
-22.41
-3.46
9.35
16.82
20.33
20.97
19.41
16.09
11.68
7.23
3.97
2.80
3.84
6.40
9.29
11.49
12.69
13.29
14.06
15.53
17.62
19.53
20.20
18.89
15.60
11.05
6.36
2.54
0.08
-1.18
-1.98
-3.29
-5.93
-10.30
-16.17
-22.69
-28.67
-33.04
-35.28
-35.60
-34.97
-34.78
-36.41
-40.72
-47.72
-56.22
-63.93
-67.77
-64.70
-52.83
-32.24
-5.22
24.31
52.05
74.63
90.47
99.72
103.59
103.46
100.40
95.25
88.90
82.71
78.38
77.55
81.20
89.33
100.81
113.81
126.22
136.17
142.55
145.00
143.82
139.62
132.98
124.21
113.44
100.75
86.48
71.23
55.63
40.06
24.45
8.39
-8.47
-26.07
-43.69
-60.20
-74.48
-85.97
-94.92
-102.36
-109.73
-118.15
-127.74
-137.14
-143.73
-144.45
-137.00
-120.94
-98.03
-71.79
-46.28
-24.87
-9.51
-0.62
2.47
0.89
-4.11
-11.36
-19.76
-28.17
-35.51
-40.79
-43.28
-42.56
-38.64
-32.07
-24.01
-16.06
-9.96
-7.08
-7.96
-12.21
-18.52
-25.15
-30.48
-33.54
-34.29
-33.45
-32.11
-31.13
-30.78
-30.66
-30.19
-29.01
-27.36
-26.03
-25.88
-27.50
-30.89
-35.79
-42.09
-49.81
-58.81
-68.07
-75.34
-77.49
-71.74
-57.06
-35.22
-10.30
12.75
30.12
40.40
44.68
45.32
44.33
42.27
38.34
31.40
21.18
8.96
-2.76
-11.36
-15.19
-14.47
-10.80
-6.32
-2.66
-0.39
0.78
1.30
1.20
-0.37
-4.51
-11.77
-21.58
-32.16
-41.26
-47.19
-49.65
-49.95
-50.23
-52.30
-56.65
-62.33
-67.47
-70.46
-70.79
-69.52
-68.61
-69.87
-73.85
-79.29
-83.39
-82.80
-74.73
-58.31
-34.73
-7.02
20.98
45.67
64.50
76.24
80.85
78.92
71.37
59.38
44.37
28.17
12.84
0.27
-8.23
-12.28
-12.50
-10.17
-6.71
-3.26
-0.33
2.09
4.26
6.36
8.28
9.64
10.14
9.81
9.14
8.96
10.05
12.78
16.99
21.94
26.50
29.45
29.71
26.80
21.16
14.08
7.33
2.40
-0.26
-1.51
-2.85
-5.41
-8.86
-11.27
-10.04
-3.40
8.48
23.37
37.96
49.48
56.64
59.69
59.57
56.96
51.77
43.58
32.40
19.21
6.03
-4.79
-11.46
-13.42
-11.34
-6.70
-1.19
3.93
7.88
10.33
11.15
10.36
8.12
4.78
0.77
-3.56
-8.03
-12.75
-17.82
-23.23
-28.60
-33.33
-36.72
-38.32
-38.14
-36.54
-34.36
-32.58
-32.30
-34.24
-38.30
-43.17
-46.36
-44.83
-36.16
-19.69
2.96
28.27
52.01
70.71
82.67
88.27
89.37
88.41
87.54
88.09
90.44
94.32
99.07
103.95
108.32
111.61
113.38
113.17
110.68
105.84
99.06
91.14
83.06
75.60
68.89
62.32
54.81
45.26
33.27
19.31
4.68
-8.97
-20.21
-28.25
-33.03
-35.12
-35.46
-35.13
-35.27
-36.91
-40.73
-46.69
-53.56
-59.03
-60.23
-54.80
-41.95
-23.11
-1.61
18.43
33.49
41.74
43.36
39.84
33.04
24.31
14.24
2.97
-9.10
-21.08
-31.56
-39.18
-43.22
-43.94
-42.47
-40.36
-38.95
-38.83
-39.78
-40.90
-41.22
-40.17
-38.00
-35.69
-34.70
-36.32
-41.21
-49.14
-59.03
-69.40
-78.93
-86.98
-93.69
-99.93
-106.76
-115.01
-124.96
-136.28
-148.11
-159.28
-168.25
-173.24
-172.22
-163.31
-145.45
-119.04
-86.33
-51.12
-17.81
9.72
29.09
39.77
42.71
39.67
32.51
22.84
12.00
1.30
-7.86
-14.10
-16.35
-14.32
-8.79
-1.45
5.52
10.15
11.31
9.00
4.30
-1.19
-5.92
-8.97
-10.15
-9.89
-8.91
-7.87
-7.27
-7.38
-8.27
-9.90
-12.02
-14.22
-16.19
-17.79
-19.38
-21.71
-25.67
-31.80
-39.72
-47.96
-54.24
-56.17
-52.11
-41.79
-26.44
-8.23
10.29
27.00
40.43
49.85
55.00
55.96
53.11
47.25
39.66
31.91
25.50
21.47
20.16
21.20
23.83
27.30
31.11
35.13
39.36
43.76
48.06
51.75
54.19
54.85
53.40
49.80
44.25
37.14
29.10
20.87
13.21
6.65
1.39
-2.81
-6.62
-11.02
-16.98
-25.16
-35.49
-46.86
-57.18
-63.87
-64.64
-58.37
-45.54
-28.17
-9.14
8.68
23.22
33.51
39.45
41.56
40.47
36.84
31.41
25.09
18.95
14.10
11.41
11.16
13.00
15.98
18.99
21.08
21.87
21.53
20.65
19.86
19.54
19.69
19.92
19.70
18.58
16.42
13.38
9.88
6.39
3.21
0.43
-2.17
-4.94
-8.31
-12.63
-18.15
-24.98
-32.96
-41.47
-49.24
-54.49
-55.32
-50.27
-39.00
-22.53
-3.09
16.57
33.85
47.03
55.43
59.37
59.70
57.51
53.81
49.46
45.22
41.72
39.56
39.16
40.59
43.54
47.30
51.01
53.91
55.65
56.30
56.19
55.65
54.80
53.51
51.55
48.73
45.08
40.75
35.86
30.40
24.27
17.45
10.17
2.96
-3.40
-8.23
-11.15
-12.27
-12.23
-12.05
-12.91
-15.69
-20.56
-26.51
-31.37
-32.27
-26.60
-13.05
7.76
33.30
59.97
84.28
103.88
117.87
126.57
130.81
131.43
129.13
124.64
119.04
113.79
110.49
110.36
113.87
120.55
129.07
137.52
143.76
145.59
141.06
128.72
108.03
79.73
45.97
9.81
-25.51
-57.47
-84.87
-107.83
-127.26
-144.08
-158.66
-170.67
-179.61
-185.47
-189.10
-192.07
-195.90
-201.36
-208.17
-215.32
-221.48
-225.54
-226.35
-222.68
-213.34
-197.76
-176.89
-153.79
-133.17
-120.00
-117.37
-125.18
-140.02
-156.64
-170.02
-177.17
-177.70
-173.40
-166.54
-158.64
-149.87
-139.22
-125.40
-107.91
-87.54
-66.27
-46.44
-29.65
-16.02
-4.34
7.39
20.74
36.13
52.50
67.89
80.20
88.15
91.58
91.33
88.71
84.99
80.89
76.76
72.74
69.11
66.30
64.70
64.33
64.84
65.69
66.72
68.73
73.35
82.53
97.35
116.90
137.89
155.19
163.39
158.88
141.38
114.16
82.93
53.92
31.81
18.77
14.62
17.90
27.02
40.83
58.16
76.94
93.85
104.84
106.67
98.34
81.64
60.45
39.10
20.87
7.03
-2.92
-10.40
-16.84
-23.52
-31.88
-43.73
-60.57
-82.20
-105.79
-126.16
-137.66
-136.84
-124.27
-104.60
-84.48
-69.83
-63.68
-65.73
-73.25
-82.68
-90.77
-94.81
-92.68
-82.90
-65.20
-41.12
-13.93
12.17
33.35
47.13
53.02
52.17
46.70
38.82
30.28
22.23
15.38
10.23
7.19
6.71
8.87
13.32
19.29
25.74
31.70
36.49
39.74
41.38
41.49
40.14
37.41
33.39
28.20
22.10
15.56
9.13
3.47
-1.00
-4.16
-6.38
-8.30
-10.63
-13.87
-18.17
-23.52
-29.84
-36.95
-44.34
-50.76
-54.28
-52.70
-44.36
-29.11
-8.64
13.88
34.82
51.29
61.96
67.13
68.20
66.79
64.01
60.35
55.88
50.63
45.00
39.82
36.10
34.77
36.29
40.35
45.93
51.54
55.60
56.87
54.92
50.19
43.80
37.20
31.66
28.07
26.83
27.80
30.50
34.14
37.83
40.69
41.95
40.98
37.56
32.11
25.82
20.42
17.43
17.51
20.02
23.39
26.13
28.01
30.35
35.49
45.35
59.85
76.44
90.83
98.69
97.37
86.65
68.31
45.13
19.83
-5.58
-29.64
-50.90
-67.68
-78.14
-81.10
-76.91
-67.89
-57.90
-51.10
-50.39
-56.31
-67.06
-79.63
-91.35
-101.15
-109.64
-118.47
-129.21
-142.78
-159.45
-179.14
-201.41
-224.83
-246.45
-261.87
-266.40
-256.89
-233.23
-198.62
-158.34
-117.68
-80.25
-47.31
-18.61
6.57
28.72
48.06
65.35
82.45
102.30
127.76
160.22
198.46
238.57
274.93
302.03
316.16
316.49
305.23
286.71
266.03
247.78
235.07
229.11
229.43
234.39
242.00
250.50
258.72
265.89
271.12
272.98
269.42
258.12
237.32
206.49
166.70
120.51
71.54
23.85
-18.89
-53.82
-79.43
-95.64
-103.70
-105.94
-105.00
-103.18
-101.80
-100.89
-99.33
-95.55
-88.18
-76.75
-61.67
-43.97
-24.78
-4.94
15.03
34.56
52.81
68.50
80.30
87.38
89.88
88.96
86.43
83.95
82.55
82.32
82.66
82.85
82.52
81.85
81.21
80.74
80.01
77.94
73.30
65.27
53.97
40.44
26.38
13.47
2.81
-5.37
-11.66
-17.12
-22.75
-29.14
-36.28
-43.52
-49.85
-54.03
-54.93
-51.79
-44.47
-33.66
-20.78
-7.73
3.57
11.57
15.31
14.29
8.29
-2.73
-18.48
-38.07
-59.89
-81.71
-101.24
-116.82
-127.73
-134.32
-137.53
-138.44
-138.00
-136.87
-135.60
-134.70
-134.72
-136.09
-139.02
-143.35
-148.52
-153.63
-157.58
-159.44
-158.69
-155.40
-150.22
-144.12
-137.96
-132.42
-127.92
-124.84
-123.43
-123.55
-124.23
-123.53
-118.86
-108.00
-90.09
-66.31
-39.59
-13.66
8.29
24.58
35.07
40.69
42.59
41.63
38.23
32.92
26.55
20.51
16.31
15.01
16.75
20.68
25.28
29.05
30.95
30.69
28.58
25.20
21.05
16.45
11.51
6.34
1.10
-3.96
-8.62
-12.86
-16.85
-21.03
-25.91
-31.83
-38.67
-45.59
-51.06
-53.20
-50.48
-42.31
-29.54
-14.23
0.92
13.53
22.23
26.84
27.93
26.35
22.64
17.05
9.82
1.62
-6.40
-12.85
-16.68
-17.55
-15.91
-12.73
-8.91
-4.99
-1.11
2.70
6.18
8.71
9.48
7.98
4.25
-0.98
-6.62
-11.61
-15.36
-17.90
-19.83
-22.03
-25.30
-30.05
-35.93
-41.82
-45.97
-46.49
-41.94
-31.85
-17.02
0.79
19.34
36.51
50.76
61.24
67.61
69.87
68.28
63.40
56.26
48.20
40.94
36.04
34.49
36.27
40.30
44.81
47.91
48.25
45.55
40.63
34.90
29.82
26.17
23.78
21.71
18.65
13.73
7.00
-0.43
-6.78
-10.22
-9.68
-5.34
1.01
6.30
7.01
0.45
-13.98
-34.14
-55.36
-71.87
-78.77
-73.83
-58.23
-35.96
-12.12
8.93
24.70
34.75
39.73
40.52
37.75
32.01
24.32
16.43
10.54
8.48
10.98
17.19
25.04
32.08
36.39
37.27
35.25
31.66
27.95
25.01
22.89
20.81
17.67
12.58
5.31
-3.53
-12.74
-21.05
-27.62
-32.39
-36.02
-39.51
-43.86
-49.69
-57.19
-66.08
-75.55
-84.21
-90.21
-91.59
-86.88
-75.82
-59.70
-41.16
-23.43
-9.38
-0.68
2.28
0.26
-5.54
-13.83
-23.53
-33.59
-42.82
-49.97
-53.87
-53.89
-50.11
-43.52
-35.64
-28.19
-22.57
-19.49
-18.94
-20.32
-22.83
-25.89
-29.36
-33.49
-38.56
-44.62
-51.26
-57.71
-63.23
-67.41
-70.37
-72.58
-74.60
-76.73
-78.87
-80.45
-80.54
-78.04
-71.94
-61.69
-47.50
-30.45
-12.33
4.86
19.53
30.77
38.45
42.92
44.62
44.00
41.48
37.76
33.93
31.29
30.98
33.59
38.81
45.62
52.56
58.26
61.89
63.31
62.97
61.60
59.79
57.83
55.57
52.73
49.12
44.81
40.19
35.83
32.17
29.35
27.17
25.12
22.67
19.40
15.11
9.80
3.64
-3.01
-9.48
-14.67
-17.24
-15.90
-9.94
0.37
13.61
27.57
39.94
48.96
53.92
55.11
53.47
50.06
45.76
41.21
37.02
33.87
32.64
33.97
38.03
44.20
51.25
57.75
62.60
65.43
66.63
67.08
67.73
69.21
71.54
74.19
76.26
76.84
75.34
71.65
66.02
58.82
50.09
39.34
25.72
8.57
-12.05
-35.07
-58.72
-81.08
-100.74
-116.99
-129.46
-137.63
-140.52
-136.95
-126.28
-109.16
-87.71
-65.10
-44.53
-28.20
-16.73
-9.38
-4.70
-1.30
1.69
4.52
7.24
10.11
13.75
19.03
26.62
36.56
48.12
60.06
71.06
80.27
87.50
93.08
97.49
101.07
103.91
105.95
107.16
107.59
107.44
106.91
106.19
105.39
104.64
103.97
103.34
102.55
101.20
98.77
94.66
88.31
79.34
67.67
53.64
38.16
22.68
8.97
-1.24
-6.84
-7.66
-4.59
0.70
6.35
10.81
13.19
13.23
10.96
6.54
0.29
-7.17
-14.63
-20.51
-23.25
-21.86
-16.35
-7.65
2.84
13.62
23.58
31.87
37.92
41.29
41.80
39.60
35.17
29.08
21.80
13.46
3.95
-6.80
-18.60
-30.93
-43.13
-54.76
-65.71
-76.28
-86.88
-97.75
-108.75
-119.35
-128.78
-136.18
-140.68
-141.50
-138.09
-130.32
-118.68
-104.36
-89.04
-74.50
-62.02
-52.26
-45.12
-40.24
-37.25
-36.10
-36.83
-39.29
-42.85
-46.34
-48.46
-48.24
-45.54
-41.02
-35.85
-31.20
-27.70
-25.34
-23.56
-21.61
-18.84
-14.92
-9.85
-3.91
2.39
8.52
13.97
18.36
21.53
23.49
24.45
24.79
25.07
25.92
27.90
31.21
35.52
39.97
43.57
45.58
45.92
45.34
44.91
45.55
47.44
49.86
51.56
51.23
48.18
42.52
35.05
26.77
18.50
10.61
3.05
-4.28
-11.31
-17.80
-23.48
-28.23
-32.01
-34.70
-36.01
-35.41
-32.39
-26.78
-18.98
-9.81
-0.32
8.37
15.42
20.39
23.36
25.05
26.68
29.64
34.58
40.71
45.78
46.93
42.20
31.77
18.29
5.80
-1.97
-3.13
1.88
10.85
21.17
30.78
38.48
43.64
45.85
44.77
40.55
34.13
27.27
21.94
19.56
20.44
23.79
28.14
32.06
34.57
35.39
34.61
32.36
28.74
23.69
17.22
9.62
1.58
-5.98
-12.32
-17.15
-20.74
-23.80
-26.96
-30.48
-34.10
-37.24
-39.45
-40.64
-41.00
-40.76
-39.86
-37.91
-34.36
-28.78
-21.56
-13.71
-6.85
-2.72
-2.52
-6.54
-14.05
-23.73
-34.27
-44.82
-54.97
-64.62
-73.51
-81.14
-86.93
-90.67
-93.13
-95.75
-100.49
-108.94
-121.64
-137.84
-155.64
-172.40
-185.65
-193.35
-194.49
-189.52
-180.43
-170.68
-164.64
-166.67
-179.95
-204.88
-238.02
-272.29
-298.70
-309.38
-300.45
-273.44
-234.66
-192.31
-153.32
-121.07
-95.07
-72.41
-49.73
-25.05
1.27
27.01
49.12
64.90
73.29
75.36
74.11
73.39
76.04
82.86
92.37
102.03
109.76
115.07
119.10
123.55
129.35
136.05
142.13
146.09
147.32
146.47
144.89
143.65
142.56
140.11
133.95
122.09
104.02
81.18
56.72
34.56
18.17
9.46
8.28
12.76
20.09
27.77
34.31
39.60
44.31
49.06
53.58
56.67
56.87
53.53
47.60
41.56
38.21
39.38
45.01
53.43
62.50
70.91
78.64
86.57
95.23
103.74
109.60
109.49
100.64
82.03
54.80
21.77
-13.85
-49.51
-83.94
-117.03
-149.03
-179.77
-208.19
-232.34
-249.98
-259.17
-258.99
-249.78
-233.31
-212.48
-190.66
-170.81
-154.72
-142.41
-132.29
-121.57
-107.12
-86.20
-56.79
-17.84
30.54
86.38
145.16
199.69
241.47
263.30
262.22
241.16
208.01
172.70
143.52
124.56
115.50
113.43
115.60
121.13
130.83
145.59
164.55
184.61
201.64
212.62
217.09
217.16
215.77
214.81
213.88
210.79
203.20
190.30
173.58
156.09
140.80
129.03
120.03
111.81
102.81
93.23
85.09
81.23
83.62
92.20
104.46
116.19
122.90
121.26
110.41
92.40
71.61
53.30
41.92
39.56
45.13
54.76
63.05
64.87
56.75
37.58
8.57
-27.69
-67.87
-108.70
-147.37
-182.28
-213.61
-243.04
-272.84
-304.13
-335.46
-362.66
-380.34
-384.28
-373.50
-350.39
-319.04
-282.72
-242.15
-195.89
-142.43
-82.99
-22.59
30.86
68.92
85.53
78.75
51.17
9.19
-38.44
-82.50
-115.11
-131.12
-128.62
-108.57
-73.72
-27.54
26.29
83.29
137.81
183.46
214.85
230.09
232.29
228.82
228.42
237.34
256.94
283.76
312.04
336.94
356.62
372.28
385.80
397.23
403.62
399.62
379.99
342.22
287.79
221.48
149.35
76.43
5.60
-62.17
-126.66
-187.30
-242.99
-292.80
-336.82
-375.95
-411.25
-442.51
-467.53
-482.80
-484.91
-472.11
-445.06
-406.63
-360.59
-311.06
-262.07
-217.28
-179.76
-151.17
-130.88
-115.84
-101.54
-83.87
-61.12
-34.67
-8.16
14.43
30.87
42.00
51.46
64.15
83.92
111.57
144.01
175.34
199.32
212.29
214.70
210.46
204.34
198.99
193.03
181.90
160.41
126.11
81.72
34.63
-5.78
-31.49
-39.08
-30.51
-11.72
9.85
28.04
39.58
44.44
44.87
43.85
43.45
43.45
41.15
32.09
11.90
-21.66
-67.06
-119.48
-172.06
-218.77
-256.44
-285.12
-307.28
-325.98
-343.56
-361.47
-379.80
-397.32
-411.03
-416.35
-408.46
-384.45
-344.64
-292.70
-234.25
-174.83
-118.42
-67.36
-23.39
11.15
33.39
41.11
34.73
18.43
-0.56
-14.64
-18.93
-13.39
-2.40
7.44
11.07
7.46
0.16
-4.55
-1.08
12.77
35.11
61.22
85.99
105.94
119.75
127.91
131.96
133.77
135.08
137.18
140.38
143.75
145.26
142.72
135.06
123.19
110.02
99.32
94.25
96.11
104.08
115.94
129.14
141.55
151.68
158.33
160.23
156.09
144.98
126.90
103.17
76.22
48.96
24.01
3.02
-13.83
-27.85
-41.27
-56.59
-75.49
-98.24
-123.75
-150.21
-176.02
-200.49
-223.61
-245.21
-264.24
-278.75
-286.85
-287.91
-283.14
-274.85
-264.78
-252.58
-235.56
-210.12
-173.94
-127.54
-74.21
-18.33
36.58
88.92
138.52
185.28
227.82
263.18
287.55
297.41
290.88
268.07
231.15
183.83
130.80
77.01
26.93
-16.12
-50.60
-76.70
-95.74
-109.31
-118.47
-123.38
-123.34
-117.54
-105.77
-89.49
-72.31
-59.55
-56.78
-67.58
-91.78
-124.72
-158.41
-183.83
-193.82
-185.09
-158.69
-119.14
-72.52
-24.93
18.77
55.25
82.73
101.08
111.62
117.05
120.74
126.26
136.24
151.52
171.02
192.06
211.32
226.14
235.26
238.91
238.02
232.99
222.84
205.33
177.91
139.41
91.20
37.61
-15.07
-60.35
-93.54
-112.86
-119.73
-117.76
-111.58
-105.10
-100.37
-97.27
-93.93
-87.93
-77.83
-64.07
-49.40
-37.80
-32.87
-36.35
-47.10
-61.53
-74.93
-82.99
-83.12
-74.63
-58.30
-35.77
-9.06
19.46
47.09
70.95
88.36
97.59
98.53
92.80
83.40
73.73
66.54
63.42
64.36
68.32
73.80
79.33
83.98
87.33
89.49
90.89
91.89
92.63
92.88
92.10
89.67
85.27
79.05
71.68
64.06
56.91
50.41
44.21
37.65
30.13
21.42
11.72
1.40
-9.27
-20.27
-31.62
-42.95
-53.14
-60.25
-61.96
-56.55
-43.66
-24.71
-2.52
19.63
38.98
54.08
64.87
72.04
76.40
78.38
77.98
75.16
70.33
64.50
59.17
55.69
54.73
56.04
58.61
61.20
62.84
63.22
62.62
61.57
60.35
58.92
56.83
53.72
49.39
44.07
38.26
32.33
26.28
19.60
11.53
1.51
-10.51
-23.79
-36.90
-48.08
-55.86
-59.48
-59.18
-55.86
-50.62
-43.82
-34.55
-20.80
-0.30
28.10
63.30
101.67
137.70
165.73
181.69
184.24
174.81
156.86
134.49
111.45
90.36
72.68
59.06
49.45
43.33
39.73
37.34
34.91
31.53
27.06
22.12
17.67
14.51
12.77
11.81
10.65
8.35
4.59
-0.30
-5.60
-10.76
-15.78
-21.25
-27.99
-36.52
-46.51
-56.63
-64.83
-69.01
-67.72
-60.65
-48.59
-33.13
-16.07
1.07
17.20
31.52
43.35
52.03
57.06
58.33
56.33
52.21
47.47
43.53
41.30
40.90
41.73
42.85
43.41
43.12
42.21
41.20
40.47
40.01
39.40
38.14
35.98
33.12
30.03
27.08
24.22
21.01
16.89
11.67
5.66
-0.35
-5.59
-9.77
-13.35
-17.34
-22.79
-30.26
-39.31
-48.56
-56.08
-59.93
-58.87
-52.63
-41.92
-28.10
-12.70
2.92
17.66
30.64
41.00
47.99
51.06
50.18
46.08
40.10
33.86
28.72
25.36
23.76
23.35
23.47
23.66
23.92
24.52
25.78
27.79
30.24
32.47
33.71
33.32
30.99
26.80
21.11
14.42
7.24
0.06
-6.78
-13.02
-18.57
-23.69
-28.91
-35.00
-42.47
-51.11
-59.75
-66.27
-68.34
-64.35
-54.12
-39.09
-21.87
-5.23
8.86
19.78
27.80
33.60
37.43
38.92
37.57
33.35
27.15
20.66
15.34
11.96
10.15
8.90
7.41
5.74
4.64
5.04
6.94
9.29
10.42
8.99
4.77
-1.13
-7.12
-11.89
-15.41
-18.58
-22.63
-28.13
-34.59
-40.73
-45.37
-48.14
-50.23
-53.29
-58.29
-64.31
-68.37
-66.62
-56.47
-38.08
-15.17
6.91
23.42
32.39
35.17
35.12
35.29
36.72
37.84
36.10
29.96
20.27
10.14
3.35
2.29
7.00
15.03
23.02
28.31
29.95
28.71
26.15
23.53
21.29
18.92
15.70
11.22
5.68
-0.25
-5.75
-10.27
-13.54
-15.87
-17.84
-20.24
-23.82
-29.10
-36.12
-44.29
-52.38
-58.73
-61.70
-60.09
-53.60
-42.85
-29.22
-14.46
-0.09
12.86
23.86
32.65
38.93
42.29
42.30
39.01
33.18
26.30
20.08
15.87
14.18
14.60
16.18
17.96
19.41
20.47
21.27
21.78
21.71
20.62
18.22
14.63
10.37
6.09
2.17
-1.41
-5.06
-9.24
-14.21
-19.78
-25.32
-30.15
-33.88
-36.63
-39.04
-41.92
-45.93
-51.31
-57.68
-64.06
-69.18
-71.66
-70.35
-64.56
-54.26
-40.13
-23.49
-6.05
10.39
24.30
34.60
40.79
42.88
41.36
37.18
31.50
25.50
20.14
15.90
12.90
11.05
10.21
10.45
11.83
14.25
17.27
20.09
21.83
21.87
20.14
17.11
13.53
10.03
6.78
3.49
-0.39
-5.26
-11.18
-17.67
-23.98
-29.49
-34.00
-37.82
-41.62
-46.05
-51.44
-57.62
-64.27
-71.01
-77.65
-84.02
-89.58
-93.19
-93.28
-88.36
-78.03
-63.23
-46.14
-29.44
-15.20
-4.45
2.88
7.39
9.61
9.79
8.12
5.14
1.87
-0.31
-0.09
3.42
10.40
20.44
32.53
45.25
57.03
66.47
72.75
75.89
76.28
74.56
71.07
65.84
58.84
50.45
41.51
33.11
25.66
18.74
11.18
1.92
-9.20
-21.13
-32.21
-40.99
-47.33
-52.22
-57.26
-63.46
-70.49
-76.66
-79.64
-77.62
-70.14
-58.21
-43.69
-28.54
-14.12
-1.05
10.45
20.18
27.52
31.64
31.93
28.45
22.24
15.07
8.87
5.18
4.59
6.61
10.04
13.47
15.80
16.57
15.87
14.22
11.92
9.02
5.23
0.30
-5.64
-11.94
-17.55
-21.39
-22.81
-21.88
-19.29
-16.15
-13.54
-12.21
-12.38
-13.75
-15.77
-17.90
-19.86
-21.79
-24.13
-27.49
-32.34
-38.78
-46.44
-54.45
-61.45
-65.79
-65.94
-60.76
-50.01
-34.48
-15.97
3.11
20.34
33.80
42.48
46.34
46.19
43.38
39.36
35.45
32.62
31.37
31.86
33.77
36.59
39.69
42.36
44.00
44.21
42.94
40.54
37.63
34.99
33.25
32.55
32.54
32.42
31.41
28.99
25.18
20.50
15.79
11.71
8.54
6.04
3.59
0.67
-3.09
-7.55
-12.15
-16.27
-19.49
-21.88
-23.95
-26.46
-30.11
-35.29
-41.88
-49.39
-56.96
-63.52
-67.88
-68.75
-65.16
-56.64
-43.46
-26.80
-8.60
8.90
23.58
34.05
39.77
41.06
38.95
34.68
29.49
24.34
19.86
16.49
14.54
14.14
15.30
17.71
20.74
23.60
25.57
26.26
25.71
24.27
22.45
20.55
18.61
16.38
13.61
10.21
6.35
2.41
-1.21
-4.29
-6.87
-9.23
-11.73
-14.55
-17.65
-20.69
-23.18
-24.93
-26.08
-27.29
-29.49
-33.47
-39.51
-47.15
-55.15
-61.84
-65.51
-64.78
-59.05
-48.55
-34.37
-18.17
-1.75
13.23
25.58
34.53
39.78
41.37
39.63
35.21
29.10
22.38
16.14
11.14
7.72
5.84
5.16
5.29
5.96
6.95
8.08
9.06
9.43
8.72
6.65
3.36
-0.50
-4.06
-6.59
-7.86
-8.29
-8.71
-9.98
-12.49
-16.01
-19.85
-23.28
-25.95
-28.00
-29.99
-32.52
-35.99
-40.46
-45.77
-51.50
-57.00
-61.28
-62.96
-60.48
-52.69
-39.42
-21.93
-2.70
15.28
29.50
38.68
42.97
43.53
41.85
39.05
35.64
31.75
27.51
23.36
20.10
18.71
19.66
22.77
27.10
31.17
33.74
34.18
32.72
30.09
26.79
22.87
17.92
11.69
4.66
-1.82
-6.23
-7.74
-7.05
-6.15
-7.17
-11.26
-17.76
-24.62
-29.55
-31.23
-30.03
-27.56
-25.82
-26.25
-29.35
-34.79
-41.82
-49.27
-56.14
-61.11
-62.76
-59.83
-51.56
-38.15
-20.89
-1.96
15.71
29.50
37.81
40.48
38.89
35.33
31.89
29.72
28.37
26.68
23.65
19.41
15.38
13.48
14.84
19.00
23.88
26.89
26.45
22.91
18.27
15.00
14.45
16.26
18.47
18.98
16.71
12.21
7.07
2.98
0.65
-0.36
-1.39
-3.69
-7.75
-13.10
-18.76
-23.69
-27.37
-29.77
-31.52
-33.40
-36.23
-40.55
-46.38
-53.12
-59.44
-63.49
-63.33
-57.61
-46.18
-30.31
-12.35
4.98
19.49
30.14
36.92
40.51
41.56
40.42
37.17
32.02
25.77
19.76
15.56
14.27
16.00
19.83
24.22
27.75
29.72
30.36
30.45
30.79
31.57
32.26
31.92
29.71
25.47
19.86
14.06
9.28
6.15
4.46
3.36
1.82
-0.86
-4.70
-9.12
-13.34
-16.78
-19.37
-21.51
-23.78
-26.69
-30.42
-34.95
-40.19
-46.13
-52.67
-59.33
-65.04
-68.14
-66.77
-59.67
-46.80
-29.60
-10.61
7.28
21.75
31.58
36.86
38.41
37.35
34.55
30.59
25.86
20.86
16.32
13.18
12.19
13.60
16.97
21.27
25.15
27.61
28.23
27.31
25.57
23.66
21.78
19.62
16.56
12.19
6.66
0.69
-4.78
-9.03
-11.94
-14.03
-16.05
-18.59
-21.72
-25.05
-28.17
-30.96
-33.88
-37.70
-42.98
-49.49
-55.97
-60.42
-60.86
-56.08
-46.14
-32.28
-16.51
-0.87
13.07
24.41
32.80
38.21
40.69
40.36
37.51
32.78
27.16
21.96
18.16
16.34
16.42
17.81
19.79
21.81
23.63
25.27
26.49
26.86
25.82
23.10
18.94
14.18
9.79
6.45
4.10
2.09
-0.37
-3.77
-7.89
-12.05
-15.48
-17.79
-19.44
-21.29
-24.24
-28.64
-34.13
-39.90
-45.22
-49.72
-53.67
-57.29
-60.19
-61.10
-58.15
-49.90
-36.21
-18.54
0.28
17.18
29.92
37.61
40.65
40.14
37.27
33.07
28.41
24.15
21.16
20.14
21.33
24.35
28.37
32.53
36.15
39.05
41.36
43.35
45.19
46.76
47.79
47.95
47.01
44.88
41.63
37.43
32.63
27.74
23.37
20.13
18.20
16.99
15.18
11.15
3.73
-7.04
-19.84
-32.48
-42.90
-50.03
-54.22
-56.94
-59.97
-64.64
-71.26
-79.14
-86.91
-93.00
-95.94
-94.66
-88.50
-77.45
-62.20
-44.02
-24.73
-6.36
9.24
20.73
27.58
30.04
29.09
26.13
22.62
19.74
18.22
18.35
20.02
22.79
26.10
29.44
32.35
34.60
35.99
36.42
35.88
34.30
31.82
28.78
25.72
23.17
21.39
20.21
19.16
17.60
15.16
11.99
8.67
5.95
4.37
3.94
4.18
4.23
3.33
1.05
-2.57
-7.13
-12.17
-17.38
-22.59
-27.82
-33.09
-38.36
-43.59
-48.78
-54.16
-59.94
-65.95
-71.37
-74.64
-73.78
-67.28
-54.76
-37.49
-18.08
0.39
15.34
25.52
31.11
33.25
33.25
31.95
29.64
26.37
22.44
18.70
16.37
16.46
19.29
24.16
29.60
34.01
36.32
36.42
35.04
33.21
31.60
30.22
28.42
25.40
20.81
14.99
9.02
4.11
1.04
-0.32
-0.91
-2.04
-4.67
-8.95
-14.14
-19.04
-22.63
-24.54
-25.31
-25.89
-27.34
-30.24
-34.63
-40.19
-46.34
-52.43
-57.56
-60.55
-60.01
-54.77
-44.43
-29.73
-12.58
4.49
19.04
29.47
35.29
37.05
35.90
33.15
30.03
27.55
26.52
27.38
30.12
34.20
38.70
42.54
44.81
45.03
43.11
39.30
33.99
27.63
20.67
13.51
6.52
0.03
-5.62
-9.98
-12.49
-12.54
-9.90
-4.88
1.38
7.19
10.78
10.91
7.29
0.64
-7.63
-16.04
-23.55
-29.84
-35.29
-40.62
-46.51
-53.29
-60.79
-68.38
-75.07
-79.57
-80.49
-76.64
-67.34
-52.85
-34.53
-14.62
4.18
19.49
29.99
35.64
37.54
37.29
36.21
34.95
33.50
31.53
29.01
26.45
24.74
24.67
26.45
29.42
32.43
34.33
34.53
33.17
30.96
28.82
27.23
26.31
25.63
24.58
22.74
20.05
16.82
13.55
10.34
7.05
3.42
-0.67
-4.84
-8.36
-10.65
-11.67
-12.36
-13.99
-17.47
-22.65
-28.25
-32.52
-34.42
-34.28
-34.06
-36.11
-41.82
-50.60
-59.66
-65.16
-63.94
-54.86
-39.59
-21.64
-4.73
8.69
18.16
24.73
29.70
33.67
36.01
35.62
31.88
25.38
17.89
11.61
8.06
7.68
9.58
12.33
14.71
16.19
16.93
17.41
17.93
18.50
18.59
17.65
15.26
11.44
6.69
1.78
-2.50
-5.61
-7.52
-8.72
-9.95
-11.93
-15.01
-18.96
-23.03
-26.32
-28.14
-28.40
-27.67
-27.03
-27.67
-30.44
-35.38
-41.54
-47.10
-49.93
-48.31
-41.62
-30.53
-16.83
-2.80
9.65
19.32
25.84
29.35
30.08
28.20
24.00
18.12
11.81
6.60
3.90
4.41
7.82
12.91
18.08
21.99
24.06
24.56
24.34
24.29
24.84
25.85
26.60
26.26
24.28
20.59
15.62
10.04
4.42
-0.90
-5.83
-10.43
-14.69
-18.50
-21.78
-24.52
-26.93
-29.40
-32.33
-35.99
-40.29
-44.98
-49.74
-54.38
-58.72
-62.50
-65.06
-65.28
-61.85
-53.76
-40.90
-24.37
-6.16
11.32
26.08
36.97
43.90
47.42
48.26
46.95
43.69
38.64
32.25
25.44
19.53
15.74
14.71
16.14
18.94
21.67
23.24
23.34
22.44
21.49
21.32
22.17
23.65
24.90
25.10
23.80
21.17
17.82
14.47
11.53
8.99
6.47
3.63
0.44
-2.65
-5.13
-6.74
-7.75
-8.91
-10.88
-13.87
-17.39
-20.53
-22.73
-24.18
-25.79
-28.85
-34.22
-41.72
-50.04
-57.03
-60.59
-59.25
-52.64
-41.44
-27.14
-11.49
3.78
17.26
27.80
34.69
37.66
36.96
33.41
28.28
22.96
18.71
16.11
15.26
15.84
17.42
19.71
22.57
25.87
29.38
32.51
34.56
35.00
33.76
31.27
28.28
25.45
23.18
21.33
19.47
17.18
14.25
10.80
7.16
3.75
0.90
-1.38
-3.23
-5.03
-7.10
-9.63
-12.58
-15.71
-18.62
-21.15
-23.34
-25.53
-28.23
-31.91
-36.88
-43.10
-50.10
-56.96
-62.30
-64.58
-62.47
-55.32
-43.50
-28.42
-12.07
3.47
16.53
26.13
31.95
34.07
32.90
29.05
23.46
17.27
11.77
8.02
6.64
7.61
10.41
14.23
18.37
22.24
25.53
28.05
29.58
29.92
28.94
26.64
23.32
19.48
15.61
12.03
8.75
5.44
1.72
-2.64
-7.52
-12.49
-17.02
-20.74
-23.59
-25.76
-27.68
-29.67
-31.93
-34.58
-37.76
-41.60
-46.14
-50.91
-54.92
-56.72
-54.66
-47.72
-35.97
-20.74
-4.30
10.92
23.06
31.35
36.10
38.17
38.39
37.19
34.62
30.76
25.98
21.16
17.50
15.96
16.96
20.04
24.09
27.79
30.02
30.26
28.74
26.10
23.04
19.99
16.90
13.53
9.62
5.24
0.76
-3.35
-6.85
-9.93
-13.06
-16.67
-20.83
-25.22
-29.10
-31.96
-33.73
-35.00
-36.85
-40.32
-45.81
-52.71
-59.31
-63.30
-62.61
-56.16
-44.29
-28.70
-11.73
4.33
17.95
28.39
35.56
39.57
40.53
38.58
34.14
28.10
21.88
16.99
14.58
15.00
17.67
21.41
24.94
27.46
28.86
29.54
30.00
30.38
30.30
29.12
26.35
21.98
16.69
11.47
7.16
4.08
1.86
-0.25
-2.98
-6.63
-10.94
-15.28
-18.99
-21.77
-23.75
-25.42
-27.35
-29.96
-33.41
-37.71
-42.78
-48.37
-53.87
-58.11
-59.42
-56.19
-47.45
-33.55
-16.32
1.47
17.00
28.35
35.02
37.79
38.10
37.24
35.88
34.06
31.56
28.42
25.20
22.88
22.37
23.99
27.24
30.99
33.97
35.31
34.82
33.01
30.65
28.43
26.68
25.30
24.03
22.58
20.86
18.91
16.91
15.03
13.31
11.69
10.06
8.26
6.17
3.74
1.01
-1.94
-5.03
-8.15
-11.24
-14.24
-17.12
-19.86
-22.52
-25.30
-28.63
-33.09
-39.12
-46.59
-54.51
-60.90
-63.46
-60.25
-50.73
-36.13
-19.03
-2.33
11.70
22.08
28.72
32.05
32.46
30.23
25.97
20.92
16.70
14.76
15.46
18.07
21.17
23.54
24.92
26.03
27.78
30.44
33.09
34.28
32.95
29.27
24.73
21.31
20.26
21.40
22.74
21.98
17.69
10.27
1.88
-4.67
-7.52
-6.66
-4.20
-3.03
-5.20
-10.88
-18.26
-24.60
-27.87
-27.57
-25.13
-22.87
-22.75
-25.53
-30.76
-37.31
-44.07
-50.15
-54.95
-57.63
-57.12
-52.43
-43.18
-30.09
-14.86
0.42
13.68
23.62
29.81
32.48
32.22
29.72
25.69
20.88
16.20
12.55
10.65
10.81
12.81
15.96
19.37
22.27
24.30
25.47
25.98
25.94
25.27
23.73
21.14
17.56
13.41
9.29
5.72
2.86
0.51
-1.76
-4.35
-7.35
-10.53
-13.51
-15.93
-17.74
-19.13
-20.51
-22.25
-24.66
-27.90
-32.08
-37.18
-43.02
-48.92
-53.71
-55.77
-53.53
-46.06
-33.57
-17.66
-0.85
14.17
25.45
32.28
35.26
35.63
34.65
33.00
30.80
27.95
24.61
21.40
19.28
19.05
20.88
24.14
27.70
30.35
31.38
30.76
29.02
26.88
24.86
23.09
21.27
19.02
16.04
12.43
8.57
5.02
2.25
0.41
-0.68
-1.49
-2.53
-4.22
-6.65
-9.63
-12.84
-15.98
-18.89
-21.59
-24.17
-26.66
-29.01
-31.24
-33.59
-36.62
-40.97
-46.95
-54.01
-60.63
-64.53
-63.55
-56.53
-43.91
-27.66
-10.63
4.47
15.95
23.49
27.74
29.81
30.53
30.13
28.51
25.64
21.98
18.52
16.37
16.30
18.29
21.56
24.99
27.71
29.49
30.67
31.65
32.58
33.03
32.43
30.44
27.33
23.96
21.38
20.07
19.79
19.68
18.75
16.51
13.16
9.40
6.02
3.28
0.95
-1.45
-4.29
-7.54
-10.79
-13.62
-15.83
-17.78
-20.02
-23.04
-26.85
-30.91
-34.53
-37.33
-39.48
-41.74
-44.86
-48.85
-52.60
-54.06
-51.16
-42.77
-29.39
-13.13
3.10
16.72
26.30
31.70
33.73
33.39
31.54
28.57
24.72
20.39
16.17
12.83
11.01
11.00
12.72
15.68
19.23
22.74
25.71
27.86
29.13
29.53
29.18
28.14
26.42
24.03
21.02
17.53
13.78
10.07
6.66
3.76
1.42
-0.46
-2.07
-3.68
-5.55
-7.77
-10.30
-12.89
-15.30
-17.38
-19.18
-20.92
-22.86
-25.14
-27.70
-30.40
-33.26
-36.51
-40.48
-45.35
-50.71
-55.45
-57.93
-56.53
-50.34
-39.62
-25.81
-11.02
2.58
13.52
21.30
26.14
28.59
29.08
27.75
24.63
19.89
14.24
8.87
5.19
4.28
6.47
11.13
17.02
22.61
26.81
29.20
30.00
29.75
28.90
27.62
25.83
23.40
20.42
17.27
14.45
12.35
11.00
10.10
9.21
7.87
5.85
3.15
0.00
-3.34
-6.62
-9.75
-12.72
-15.61
-18.53
-21.46
-24.32
-27.04
-29.74
-32.78
-36.59
-41.46
-47.20
-52.83
-56.76
-57.23
-52.92
-43.70
-30.54
-15.44
-0.68
11.93
21.41
27.63
30.89
31.52
29.73
25.79
20.24
14.13
8.82
5.55
4.96
6.85
10.43
14.68
18.78
22.43
25.68
28.69
31.39
33.41
34.21
33.38
30.87
27.12
22.88
18.85
15.37
12.33
9.31
5.95
2.18
-1.64
-5.01
-7.56
-9.34
-10.75
-12.35
-14.47
-17.02
-19.51
-21.41
-22.50
-23.01
-23.65
-25.28
-28.57
-33.66
-40.01
-46.44
-51.35
-53.25
-51.09
-44.62
-34.54
-22.16
-9.13
3.07
13.32
21.06
26.03
28.22
27.79
25.07
20.75
15.76
11.19
7.89
6.34
6.48
7.95
10.23
12.85
15.45
17.77
19.59
20.77
21.41
21.84
22.60
24.10
26.31
28.72
30.45
30.75
29.37
26.66
23.35
20.15
17.29
14.47
11.07
6.53
0.75
-5.89
-12.58
-18.49
-23.03
-26.13
-28.15
-29.70
-31.33
-33.28
-35.45
-37.60
-39.63
-41.71
-44.03
-46.43
-48.09
-47.54
-43.11
-33.90
-20.27
-4.06
11.91
24.96
33.55
37.56
38.00
35.93
32.07
26.58
19.60
11.95
5.25
1.33
1.35
4.77
9.69
13.76
15.43
14.73
13.06
12.08
12.57
13.78
14.11
12.14
7.62
1.74
-3.52
-6.50
-6.57
-4.85
-3.15
-3.19
-5.60
-9.69
-13.86
-16.67
-17.52
-17.37
-17.83
-20.30
-25.08
-31.03
-36.32
-39.65
-40.96
-41.86
-44.29
-49.12
-55.18
-59.35
-57.99
-48.93
-32.62
-12.43
7.00
21.77
30.22
33.18
33.00
31.92
31.10
30.20
28.37
25.14
21.09
17.59
16.10
17.28
20.79
25.34
29.48
32.23
33.38
33.36
32.86
32.35
31.98
31.36
29.96
27.33
23.43
18.67
13.79
9.55
6.44
4.53
3.36
2.23
0.49
-2.21
-5.75
-9.64
-13.25
-16.16
-18.38
-20.42
-23.08
-27.15
-32.97
-40.19
-47.62
-53.55
-56.18
-54.19
-47.24
-36.04
-22.20
-7.78
5.38
16.04
23.67
28.38
30.55
30.55
28.77
25.61
21.64
17.71
14.74
13.45
14.15
16.56
19.92
23.30
25.91
27.42
27.91
27.72
27.15
26.30
25.07
23.22
20.69
17.61
14.34
11.31
8.81
6.93
5.47
4.03
2.20
-0.33
-3.64
-7.53
-11.55
-15.25
-18.22
-20.35
-21.77
-22.89
-24.14
-26.03
-28.98
-33.25
-38.81
-45.08
-50.88
-54.54
-54.35
-49.20
-39.14
-25.44
-10.26
4.10
16.00
24.71
30.40
33.59
34.75
34.11
31.84
28.29
24.21
20.64
18.55
18.44
20.12
22.85
25.64
27.75
28.97
29.47
29.67
29.79
29.71
29.10
27.56
24.96
21.46
17.35
12.96
8.49
4.08
-0.09
-3.78
-6.76
-8.95
-10.54
-11.82
-13.08
-14.45
-15.88
-17.29
-18.67
-20.18
-22.22
-25.15
-29.26
-34.57
-40.76
-47.11
-52.58
-55.91
-56.10
-52.54
-45.27
-34.93
-22.56
-9.32
3.69
15.54
25.24
32.00
35.29
35.13
32.18
27.64
22.87
18.95
16.29
14.71
13.79
13.18
12.94
13.34
14.71
17.12
20.13
23.05
25.03
25.45
24.07
21.11
17.14
13.02
9.46
6.88
5.16
3.78
2.06
-0.56
-4.11
-8.11
-11.90
-14.94
-17.10
-18.70
-20.31
-22.43
-25.45
-29.45
-34.33
-39.80
-45.32
-49.96
-52.46
-51.51
-46.18
-36.40
-23.16
-8.28
6.03
17.81
25.95
30.25
31.32
30.23
27.96
25.23
22.48
19.99
18.09
17.12
17.35
18.84
21.29
24.14
26.75
28.59
29.41
29.19
28.14
26.63
24.94
23.30
21.71
20.07
18.20
15.96
13.42
10.91
8.70
6.93
5.38
3.58
1.08
-2.31
-6.32
-10.31
-13.61
-15.85
-17.23
-18.36
-20.10
-23.14
-27.77
-33.72
-40.34
-46.70
-51.73
-54.34
-53.52
-48.65
-39.69
-27.36
-13.05
1.40
14.20
24.05
30.47
33.72
34.50
33.72
32.10
30.15
28.14
26.31
25.00
24.49
25.08
26.87
29.61
32.72
35.44
37.01
37.14
35.93
33.87
31.58
29.45
27.58
25.72
23.48
20.59
17.04
13.17
9.51
6.57
4.60
3.46
2.61
1.42
-0.62
-3.60
-7.17
-10.68
-13.57
-15.56
-16.91
-18.16
-20.01
-22.98
-27.25
-32.67
-38.80
-44.94
-50.20
-53.49
-53.70
-49.95
-41.88
-30.01
-15.69
-0.93
12.19
22.10
28.10
30.47
30.09
27.99
24.98
21.58
18.18
15.17
13.00
12.13
12.89
15.17
18.51
22.15
25.20
26.98
27.13
25.71
23.09
19.80
16.24
12.59
8.87
5.07
1.27
-2.20
-4.99
-6.90
-8.10
-9.08
-10.49
-12.77
-15.95
-19.62
-23.14
-25.96
-27.91
-29.30
-30.81
-33.28
-37.31
-42.96
-49.47
-55.36
-58.71
-57.76
-51.58
-40.50
-26.05
-10.42
4.19
16.20
24.92
30.26
32.55
32.11
29.33
24.82
19.51
14.53
10.92
9.29
9.62
11.38
13.89
16.59
19.16
21.48
23.41
24.73
25.11
24.27
22.18
19.15
15.71
12.40
9.58
7.31
5.34
3.29
0.83
-2.10
-5.45
-8.91
-12.21
-15.15
-17.56
-19.27
-20.16
-20.26
-20.07
-20.36
-22.07
-25.84
-31.59
-38.36
-44.56
-48.45
-48.91
-45.54
-38.67
-29.08
-17.55
-4.79
8.47
21.37
32.57
40.79
45.11
45.47
42.89
39.13
36.02
34.81
35.30
36.42
36.81
35.58
32.92
29.81
27.20
25.49
23.77
20.72
15.44
8.20
0.59
-5.25
-7.90
-7.42
-5.71
-5.25
-7.79
-13.30
-20.04
-25.48
-27.85
-26.93
-24.24
-22.00
-21.90
-24.28
-28.16
-31.97
-34.55
-35.50
-35.47
-35.46
-36.34
-38.42
-41.38
-44.39
-46.38
-46.20
-43.12
-36.83
-27.68
-16.51
-4.43
7.49
18.34
27.51
34.52
39.04
40.80
39.80
36.38
31.28
25.58
20.45
16.88
15.42
16.04
18.18
20.97
23.56
25.32
26.03
25.87
25.17
24.15
22.74
20.67
17.64
13.61
8.94
4.37
0.70
-1.59
-2.53
-2.71
-2.99
-4.11
-6.35
-9.48
-12.92
-16.05
-18.55
-20.46
-22.14
-23.98
-26.24
-28.92
-31.93
-35.15
-38.57
-42.06
-45.20
-47.11
-46.60
-42.59
-34.66
-23.37
-10.22
2.80
13.86
21.79
26.26
27.62
26.56
23.74
19.62
14.60
9.18
4.07
0.12
-1.95
-1.87
0.16
3.46
7.16
10.52
13.04
14.55
15.11
14.84
13.91
12.47
10.68
8.71
6.72
4.81
3.07
1.43
-0.28
-2.32
-4.91
-8.09
-11.63
-15.04
-17.86
-20.01
-21.83
-24.09
-27.52
-32.44
-38.35
-43.97
-47.65
-47.86
-43.78
-35.60
-24.40
-11.82
0.44
11.06
19.33
25.12
28.63
30.08
29.66
27.54
24.09
20.04
16.31
13.84
13.17
14.28
16.60
19.33
21.72
23.47
24.54
25.03
24.96
24.18
22.42
19.58
15.86
11.73
7.65
3.92
0.58
-2.47
-5.29
-7.78
-9.82
-11.33
-12.58
-13.97
-15.83
-18.13
-20.47
-22.31
-23.44
-24.20
-25.61
-28.75
-34.01
-40.69
-46.93
-50.34
-49.01
-42.27
-31.11
-17.65
-4.29
7.22
16.19
22.85
27.77
31.36
33.42
33.49
31.23
27.02
21.90
17.30
14.53
14.29
16.40
19.98
23.91
27.18
29.27
30.16
30.12
29.57
28.63
27.17
24.94
21.78
17.86
13.69
9.98
7.33
5.91
5.42
5.18
4.48
2.82
0.06
-3.55
-7.48
-11.19
-14.26
-16.55
-18.25
-19.84
-21.89
-24.89
-28.97
-33.94
-39.23
-44.00
-47.25
-47.99
-45.41
-39.06
-29.10
-16.45
-2.61
10.58
21.51
29.23
33.49
34.67
33.50
30.72
26.94
22.67
18.41
14.77
12.28
11.36
12.05
14.01
16.66
19.28
21.35
22.60
22.98
22.66
21.86
20.68
19.10
16.98
14.27
11.10
7.73
4.60
2.07
0.31
-0.84
-1.83
-3.22
-5.38
-8.34
-11.72
-14.85
-17.19
-18.59
-19.47
-20.73
-23.27
-27.80
-34.28
-41.93
-49.35
-54.89
-57.06
-54.90
-48.16
-37.47
-24.07
-9.58
4.44
16.68
26.22
32.53
35.48
35.23
32.32
27.72
22.59
18.02
14.69
12.75
11.96
11.88
12.20
12.91
14.15
15.96
18.07
19.83
20.52
19.58
16.98
13.22
9.15
5.48
2.57
0.25
-1.93
-4.49
-7.65
-11.27
-14.97
-18.30
-20.99
-23.05
-24.69
-26.26
-28.08
-30.36
-33.29
-36.97
-41.35
-45.99
-49.97
-51.94
-50.44
-44.50
-34.06
-20.27
-5.12
9.06
20.37
27.84
31.44
31.94
30.41
27.76
24.65
21.44
18.40
15.84
14.13
13.65
14.62
17.05
20.78
25.57
31.19
37.33
43.43
48.64
51.81
51.85
48.08
40.62
30.35
18.69
7.09
-3.38
-12.21
-19.48
-25.51
-30.64
-35.00
-38.50
-40.96
-42.30
-42.69
-42.57
-42.52
-43.03
-44.43
-46.78
-49.84
-53.03
-55.47
-56.02
-53.53
-47.26
-37.21
-24.23
-9.86
4.16
16.38
25.87
32.35
35.96
37.06
36.14
33.82
30.82
28.00
26.05
25.46
26.26
28.14
30.53
32.90
34.80
35.99
36.46
36.29
35.66
34.71
33.51
32.08
30.32
28.10
25.29
21.81
17.74
13.36
9.12
5.52
2.89
1.17
-0.06
-1.53
-3.86
-7.34
-11.69
-16.11
-19.85
-22.43
-24.11
-25.73
-28.38
-32.66
-38.37
-44.38
-49.24
-51.54
-50.43
-45.70
-37.59
-26.64
-13.70
0.03
12.69
22.37
27.54
27.86
24.37
19.13
14.27
11.09
9.47
8.48
7.14
5.34
3.98
4.42
7.47
12.68
18.18
21.58
21.27
17.27
11.21
5.52
1.99
1.10
1.71
2.08
0.84
-2.21
-6.22
-9.90
-12.34
-13.43
-13.87
-14.57
-16.15
-18.71
-22.02
-25.79
-29.92
-34.34
-38.93
-43.09
-45.78
-45.76
-42.11
-34.62
-23.98
-11.61
0.91
12.17
21.25
27.70
31.41
32.49
31.21
28.06
23.85
19.52
15.98
13.89
13.48
14.58
16.76
19.52
22.40
25.00
26.93
27.74
27.04
24.59
20.57
15.52
10.31
5.77
2.36
0.04
-1.64
-3.22
-5.07
-7.23
-9.46
-11.52
-13.39
-15.23
-17.37
-20.01
-23.11
-26.47
-29.85
-33.27
-36.92
-40.94
-45.01
-48.21
-49.12
-46.37
-39.24
-28.11
-14.48
-0.47
11.91
21.32
27.38
30.53
31.58
31.23
29.89
27.67
24.70
21.29
18.13
16.04
15.72
17.34
20.36
23.78
26.48
27.72
27.43
26.14
24.62
23.49
22.87
22.32
21.19
18.94
15.52
11.49
7.65
4.75
3.05
2.21
1.44
-0.05
-2.67
-6.19
-9.95
-13.16
-15.33
-16.54
-17.30
-18.32
-20.14
-22.88
-26.37
-30.32
-34.54
-38.81
-42.72
-45.44
-45.70
-42.11
-33.89
-21.35
-6.12
9.29
22.29
31.10
35.22
35.49
33.29
30.03
26.54
23.16
20.03
17.51
16.21
16.73
19.18
22.94
26.83
29.62
30.62
30.03
28.63
27.33
26.51
25.93
24.95
23.07
20.30
17.23
14.65
13.11
12.51
12.24
11.54
9.88
7.25
4.04
0.78
-2.10
-4.69
-7.32
-10.43
-14.16
-18.26
-22.15
-25.28
-27.45
-29.15
-31.31
-34.87
-40.22
-46.65
-52.51
-55.72
-54.58
-48.60
-38.62
-26.45
-14.16
-3.34
5.24
11.50
15.71
18.02
18.41
16.79
13.41
8.99
4.62
1.42
0.21
1.11
3.66
7.01
10.32
13.10
15.22
16.82
18.12
19.08
19.46
18.88
17.00
13.77
9.53
4.93
0.73
-2.49
-4.52
-5.65
-6.48
-7.74
-9.89
-12.97
-16.55
-20.03
-22.94
-25.23
-27.26
-29.63
-32.84
-36.97
-41.49
-45.43
-47.55
-46.76
-42.51
-34.90
-24.78
-13.43
-2.21
7.73
15.71
21.43
24.77
25.73
24.40
21.16
16.81
12.47
9.27
7.93
8.52
10.61
13.42
16.33
19.12
21.86
24.66
27.40
29.63
30.73
30.18
27.86
24.20
19.96
15.87
12.34
9.38
6.71
3.96
1.01
-1.95
-4.59
-6.63
-8.10
-9.30
-10.64
-12.51
-15.05
-18.18
-21.75
-25.65
-29.94
-34.66
-39.52
-43.82
-46.29
-45.44
-40.18
-30.39
-17.17
-2.67
10.73
21.18
27.86
31.11
31.85
31.04
29.16
26.30
22.48
18.03
13.72
10.63
9.65
11.07
14.43
18.61
22.42
24.98
26.05
25.98
25.39
24.69
23.86
22.46
20.01
16.37
11.98
7.77
4.68
3.19
3.06
3.39
3.14
1.59
-1.28
-4.90
-8.37
-11.05
-12.80
-14.00
-15.31
-17.24
-20.06
-23.64
-27.79
-32.30
-37.01
-41.54
-45.15
-46.77
-45.24
-39.81
-30.57
-18.54
-5.45
6.81
16.73
23.44
26.83
27.35
25.64
22.39
18.26
13.81
9.66
6.45
4.80
5.10
7.37
11.11
15.44
19.36
22.04
23.13
22.76
21.40
19.53
17.46
15.20
12.59
9.50
5.98
2.24
-1.37
-4.66
-7.63
-10.50
-13.51
-16.77
-20.17
-23.40
-26.13
-28.20
-29.75
-31.25
-33.33
-36.57
-41.19
-46.85
-52.50
-56.64
-57.67
-54.46
-46.76
-35.30
-21.65
-7.64
5.07
15.34
22.63
26.85
28.21
27.06
23.95
19.65
15.11
11.28
8.87
8.21
9.21
11.45
14.42
17.68
20.93
23.93
26.42
28.03
28.28
26.81
23.59
19.16
14.31
10.00
6.74
4.49
2.80
1.08
-1.08
-3.66
-6.62
-9.83
-13.24
-16.84
-20.39
-23.44
-25.57
-26.72
-27.61
-29.36
-33.02
-38.73
-45.34
-50.55
-51.87
-47.67
-38.17
-25.16
-11.32
1.04
10.91
18.65
25.20
31.18
35.83
37.72
35.60
29.56
21.48
14.31
10.61
11.31
15.00
19.02
20.98
20.08
17.55
15.70
16.36
19.79
24.29
27.39
27.23
23.60
17.96
12.49
8.87
7.61
7.83
8.18
7.58
5.67
2.83
-0.30
-3.21
-5.61
-7.59
-9.38
-11.18
-13.20
-15.62
-18.64
-22.43
-26.99
-32.18
-37.45
-41.88
-44.28
-43.51
-38.81
-30.21
-18.60
-5.54
7.13
17.83
25.59
30.02
31.33
29.98
26.68
22.24
17.60
13.67
11.21
10.63
11.81
14.29
17.38
20.49
23.16
25.14
26.26
26.42
25.62
24.00
21.96
19.93
18.24
16.92
15.70
14.20
12.12
9.54
6.76
4.19
2.02
0.11
-1.94
-4.57
-7.94
-11.82
-15.67
-18.93
-21.30
-22.95
-24.45
-26.57
-29.98
-34.96
-41.31
-48.26
-54.65
-59.14
-60.51
-57.97
-51.37
-41.27
-28.81
-15.41
-2.60
8.39
16.66
21.75
23.62
22.63
19.50
15.25
11.01
7.82
6.34
6.75
8.75
11.74
15.07
18.28
21.15
23.61
25.55
26.73
26.85
25.74
23.46
20.28
16.65
12.98
9.51
6.35
3.46
0.81
-1.64
-3.89
-5.97
-7.93
-9.88
-11.96
-14.34
-17.08
-20.11
-23.33
-26.62
-30.06
-33.88
-38.27
-42.98
-47.07
-49.04
-47.40
-41.29
-31.05
-18.17
-4.71
7.48
17.30
24.50
29.18
31.44
31.16
28.27
23.16
16.91
11.13
7.40
6.54
8.43
12.06
16.15
19.72
22.37
24.23
25.67
26.75
27.28
26.85
25.26
22.67
19.69
17.04
15.30
14.43
13.96
13.21
11.71
9.40
6.65
3.92
1.49
-0.82
-3.45
-6.81
-10.87
-15.09
-18.74
-21.23
-22.61
-23.70
-25.70
-29.61
-35.50
-42.32
-48.07
-50.56
-48.14
-40.47
-28.46
-13.94
0.99
14.60
25.79
34.14
39.70
42.68
43.27
41.74
38.48
34.18
29.74
26.19
24.40
24.79
27.18
30.85
34.82
38.14
40.20
40.91
40.61
39.83
39.03
38.34
37.56
36.31
34.28
31.49
28.26
25.08
22.27
19.83
17.43
14.68
11.27
7.11
2.39
-2.64
-7.77
-12.89
-17.94
-22.83
-27.47
-31.72
-35.54
-39.01
-42.39
-46.09
-50.41
-55.23
-59.88
-63.02
-63.02
-58.63
-49.47
-36.36
-21.06
-5.75
7.63
17.96
24.93
28.89
30.42
29.98
27.85
24.31
19.78
15.06
11.22
9.25
9.58
11.88
15.11
17.99
19.51
19.37
17.92
15.82
13.59
11.34
8.78
5.67
1.96
-1.99
-5.59
-8.33
-10.05
-11.04
-11.94
-13.34
-15.61
-18.67
-21.99
-24.95
-27.02
-28.19
-28.95
-30.09
-32.46
-36.52
-42.04
-48.12
-53.38
-56.36
-55.98
-51.77
-43.96
-33.37
-21.09
-8.32
3.78
14.18
21.98
26.56
27.70
25.79
21.76
16.87
12.35
9.04
7.21
6.74
7.33
8.77
10.95
13.73
16.78
19.56
21.34
21.56
20.02
16.99
13.12
9.09
5.42
2.24
-0.70
-3.77
-7.34
-11.48
-16.02
-20.52
-24.62
-28.06
-30.92
-33.50
-36.26
-39.59
-43.66
-48.45
-53.66
-58.79
-63.09
-65.60
-65.26
-61.13
-52.69
-40.15
-24.64
-7.92
7.96
21.29
31.06
37.12
39.98
40.43
39.22
36.95
34.07
31.03
28.39
26.72
26.47
27.80
30.42
33.72
36.98
39.56
41.12
41.64
41.34
40.40
38.84
36.55
33.33
29.23
24.54
19.82
15.67
12.44
10.04
8.02
5.79
2.97
-0.44
-4.02
-7.21
-9.53
-10.92
-11.78
-12.78
-14.62
-17.80
-22.34
-27.78
-33.18
-37.35
-39.05
-37.31
-31.61
-22.13
-9.73
4.20
17.94
29.77
38.37
42.92
43.34
40.21
34.66
28.06
21.79
16.85
13.75
12.49
12.80
14.25
16.45
18.80
20.72
21.66
21.28
19.81
17.94
16.48
15.88
15.74
14.97
12.45
7.77
1.68
-4.19
-8.18
-9.52
-8.92
-8.03
-8.56
-11.28
-15.64
-20.22
-23.59
-25.10
-25.58
-26.57
-29.63
-35.35
-42.89
-50.31
-55.39
-56.47
-53.32
-46.69
-37.86
-27.89
-17.21
-5.84
5.99
17.40
26.58
31.58
31.22
25.90
17.70
9.61
4.26
2.91
4.95
8.60
11.93
13.97
14.94
15.81
17.43
19.95
22.51
24.01
23.65
21.38
17.79
13.66
9.49
5.48
1.46
-2.70
-6.92
-10.96
-14.60
-17.72
-20.39
-22.72
-25.02
-27.64
-30.98
-35.34
-40.64
-46.15
-50.45
-51.83
-48.88
-41.09
-29.21
-15.08
-1.01
10.94
19.57
24.76
27.08
27.36
26.22
23.89
20.43
16.10
11.58
7.88
6.06
6.68
9.54
13.71
17.94
21.15
22.79
22.92
21.97
20.41
18.50
16.23
13.45
10.02
6.00
1.62
-2.72
-6.64
-9.90
-12.47
-14.55
-16.43
-18.35
-20.39
-22.48
-24.58
-26.78
-29.48
-33.10
-37.77
-42.98
-47.43
-49.40
-47.32
-40.46
-29.31
-15.46
-1.03
12.09
22.79
30.75
36.24
39.50
40.55
39.26
35.66
30.36
24.58
19.84
17.28
17.31
19.37
22.35
25.19
27.27
28.60
29.58
30.50
31.27
31.43
30.39
27.85
24.03
19.60
15.42
12.13
9.87
8.28
6.71
4.57
1.58
-2.09
-6.02
-9.73
-12.89
-15.49
-17.81
-20.27
-23.34
-27.32
-32.30
-37.95
-43.50
-47.82
-49.60
-47.76
-41.72
-31.75
-18.93
-4.97
8.24
19.11
26.69
30.77
31.71
30.27
27.25
23.40
19.32
15.56
12.61
10.91
10.68
11.96
14.34
17.20
19.79
21.49
21.94
21.18
19.48
17.19
14.49
11.44
8.03
4.35
0.69
-2.57
-5.21
-7.32
-9.38
-11.94
-15.26
-19.07
-22.68
-25.35
-26.70
-27.03
-27.25
-28.43
-31.37
-36.19
-42.29
-48.44
-53.12
-54.91
-52.89
-46.83
-37.22
-25.12
-11.92
0.99
12.47
21.86
28.77
33.04
34.66
33.73
30.53
25.67
20.07
14.92
11.34
10.06
11.22
14.27
18.25
22.07
24.94
26.54
26.91
26.28
24.82
22.56
19.40
15.37
10.69
5.90
1.55
-1.96
-4.62
-6.85
-9.20
-12.12
-15.66
-19.42
-22.84
-25.54
-27.56
-29.48
-32.10
-36.01
-41.24
-46.94
-51.68
-53.81
-52.08
-45.99
-36.00
-23.39
-9.79
3.25
14.57
23.51
29.78
33.31
34.17
32.56
29.04
24.51
20.09
16.81
15.33
15.69
17.49
20.01
22.59
24.90
26.81
28.29
29.24
29.39
28.44
26.24
22.97
19.10
15.18
11.68
8.74
6.16
3.66
0.93
-2.06
-5.17
-8.12
-10.69
-12.83
-14.70
-16.50
-18.54
-21.07
-24.27
-28.27
-33.03
-38.27
-43.37
-47.29
-48.87
-47.00
-41.00
-30.93
-17.68
-2.79
11.81
24.36
33.60
38.99
40.81
39.80
36.96
33.16
29.10
25.34
22.35
20.56
20.32
21.68
24.32
27.55
30.53
32.60
33.46
33.18
32.09
30.48
28.51
26.12
23.17
19.61
15.54
11.29
7.33
4.07
1.59
-0.36
-2.36
-5.03
-8.63
-12.95
-17.28
-20.81
-22.99
-23.88
-24.10
-24.63
-26.37
-29.79
-34.74
-40.46
-45.76
-49.23
-49.61
-46.10
-38.57
-27.67
-14.60
-0.86
12.15
23.30
31.83
37.29
39.51
38.65
35.22
30.14
24.57
19.66
16.26
14.84
15.38
17.57
20.88
24.65
28.22
30.88
32.07
31.54
29.40
26.12
22.31
18.47
14.74
10.87
6.41
1.09
-4.96
-11.16
-16.70
-20.93
-23.62
-25.21
-26.48
-28.32
-31.34
-35.62
-40.82
-46.20
-50.86
-53.80
-54.09
-51.03
-44.34
-34.36
-22.03
-8.85
3.57
13.80
20.94
24.63
25.03
22.66
18.33
12.99
7.60
3.05
-0.14
-1.77
-1.98
-1.01
0.77
3.01
5.32
7.21
8.33
8.56
8.06
7.07
5.54
3.06
-0.95
-6.75
-13.85
-20.95
-26.54
-29.50
-29.83
-28.60
-27.45
-27.93
-30.77
-35.73
-41.69
-47.12
-50.56
-50.85
-47.35
-40.05
-29.51
-16.73
-3.05
10.22
21.49
29.51
33.50
33.43
30.15
25.19
20.13
16.17
13.54
11.85
10.51
9.31
8.62
9.19
11.48
15.26
19.22
21.68
21.37
18.12
13.02
7.88
4.12
2.15
0.86
-1.43
-5.94
-12.54
-19.68
-25.18
-27.55
-26.78
-24.67
-23.78
-26.04
-31.76
-39.38
-46.22
-49.71
-48.29
-42.03
-32.07
-20.11
-7.70
4.10
14.62
23.42
30.20
34.56
36.23
35.17
31.69
26.49
20.63
15.33
11.76
10.56
11.70
14.47
17.72
20.34
21.68
21.69
20.83
19.67
18.57
17.50
16.07
13.84
10.63
6.61
2.34
-1.62
-4.89
-7.46
-9.68
-12.01
-14.79
-18.08
-21.71
-25.36
-28.80
-31.94
-34.75
-37.03
-38.25
-37.61
-34.23
-27.57
-17.71
-5.54
7.54
19.92
30.28
37.83
42.43
44.31
43.91
41.66
38.00
33.47
28.87
25.20
23.35
23.83
26.38
30.04
33.48
35.46
35.34
33.28
30.00
26.34
22.78
19.25
15.24
10.28
4.25
-2.40
-8.76
-13.91
-17.32
-19.12
-19.99
-20.92
-22.76
-25.97
-30.44
-35.61
-40.61
-44.49
-46.38
-45.61
-41.80
-34.94
-25.40
-13.96
-1.74
9.95
19.85
26.95
30.73
31.17
28.81
24.49
19.23
14.00
9.61
6.66
5.39
5.72
7.30
9.53
11.84
13.76
15.02
15.53
15.26
14.24
12.47
9.98
6.85
3.30
-0.39
-3.87
-6.82
-8.98
-10.28
-10.94
-11.43
-12.42
-14.51
-17.87
-22.03
-25.84
-27.71
-26.29
-20.86
-11.73
-0.17
12.06
23.24
32.13
38.22
41.40
41.76
39.44
34.64
27.90
20.24
13.03
7.69
5.01
4.92
6.59
8.90
10.96
12.45
13.49
14.21
14.46
13.71
11.45
7.65
2.95
-1.57
-4.96
-6.92
-8.15
-9.81
-12.96
-17.99
-24.46
-31.35
-37.64
-42.54
-45.70
-46.92
-45.89
-42.15
-35.30
-25.39
-13.18
-0.08
12.07
21.61
27.36
29.00
26.91
22.04
15.62
9.01
3.33
-0.59
-2.38
-2.21
-0.56
1.81
4.23
6.34
8.02
9.28
10.06
10.08
8.88
6.21
2.18
-2.53
-7.04
-10.61
-13.04
-14.73
-16.41
-18.87
-22.51
-27.34
-32.94
-38.61
-43.44
-46.46
-46.77
-43.73
-37.22
-27.62
-15.82
-3.00
9.62
20.89
29.91
36.06
39.07
39.10
36.70
32.73
28.13
23.80
20.49
18.71
18.67
20.27
22.94
25.84
27.94
28.44
27.03
23.97
20.02
16.04
12.58
9.73
7.14
4.37
1.26
-2.05
-5.12
-7.45
-8.87
-9.60
-10.21
-11.38
-13.65
-17.46
-22.91
-29.75
-37.29
-44.31
-49.25
-50.63
-47.44
-39.70
-28.36
-15.05
-1.60
10.51
20.29
27.30
31.43
32.67
31.16
27.40
22.32
17.23
13.44
11.81
12.56
15.16
18.65
22.13
25.09
27.35
28.94
29.74
29.45
27.69
24.27
19.47
14.02
8.81
4.55
1.48
-0.58
-2.14
-3.71
-5.65
-8.05
-10.81
-13.78
-16.83
-19.91
-22.98
-26.02
-28.96
-31.81
-34.72
-38.09
-42.42
-47.90
-54.01
-59.36
-61.90
-59.69
-51.74
-38.58
-22.16
-5.14
10.01
21.72
29.53
33.73
34.88
33.49
29.95
24.81
18.90
13.40
9.56
8.29
9.80
13.49
18.15
22.38
25.11
25.97
25.28
23.73
21.95
20.17
18.21
15.77
12.73
9.41
6.47
4.48
3.57
3.27
2.63
0.71
-2.94
-7.95
-13.26
-17.72
-20.66
-22.26
-23.48
-25.59
-29.51
-35.49
-43.07
-51.36
-59.28
-65.76
-69.71
-70.08
-66.02
-57.25
-44.31
-28.62
-12.13
3.18
15.82
25.06
30.81
33.46
33.61
31.88
28.93
25.51
22.37
20.25
19.71
20.92
23.68
27.41
31.33
34.80
37.36
38.90
39.47
39.16
37.90
35.51
31.83
26.90
21.13
15.22
9.95
5.81
2.76
0.26
-2.45
-5.91
-10.15
-14.69
-18.78
-21.78
-23.48
-24.27
-24.97
-26.57
-29.89
-35.25
-42.27
-49.73
-55.98
-59.15
-57.82
-51.48
-40.59
-26.47
-10.86
4.55
18.15
28.78
35.75
38.88
38.72
36.30
32.89
29.59
26.77
24.34
22.05
20.01
18.90
19.74
23.17
28.95
35.58
41.07
43.73
42.98
39.61
35.21
31.19
28.11
25.15
21.07
15.04
7.37
-0.51
-6.70
-10.09
-10.93
-10.95
-12.37
-16.58
-23.41
-31.12
-37.43
-40.75
-40.97
-39.67
-39.15
-41.24
-46.33
-53.10
-59.06
-61.58
-58.73
-50.15
-36.80
-20.58
-3.67
12.11
25.57
36.22
44.04
49.08
51.33
50.69
47.21
41.35
34.19
27.15
21.67
18.72
18.40
20.06
22.62
25.06
26.82
27.84
28.30
28.34
27.83
26.37
23.64
19.60
14.64
9.42
4.65
0.69
-2.49
-5.30
-8.28
-11.84
-16.09
-20.73
-25.27
-29.18
-32.18
-34.48
-36.68
-39.62
-43.99
-49.84
-56.44
-62.35
-65.77
-65.22
-59.96
-50.31
-37.45
-23.03
-8.67
4.38
15.29
23.54
28.76
30.72
29.45
25.48
19.94
14.39
10.50
9.42
11.42
15.77
21.05
25.75
28.77
29.78
29.05
27.25
24.90
22.20
19.02
15.08
10.35
5.07
-0.34
-5.44
-10.02
-14.15
-18.03
-21.80
-25.52
-29.14
-32.71
-36.49
-40.85
-46.00
-51.69
-56.99
-60.32
-60.09
-55.14
-45.38
-31.85
-16.39
-1.07
12.49
23.36
31.30
36.36
38.57
37.92
34.52
28.97
22.50
16.74
13.20
12.62
14.68
18.10
21.27
22.88
22.54
20.78
18.64
17.03
16.26
15.84
14.84
12.42
8.28
2.83
-3.16
-8.86
-13.82
-17.99
-21.52
-24.63
-27.42
-30.09
-33.07
-36.91
-41.90
-47.65
-52.85
-55.59
-54.04
-47.27
-35.77
-21.20
-5.74
8.64
20.79
30.27
37.09
41.32
42.73
41.15
36.74
30.30
23.30
17.53
14.38
14.51
17.33
21.46
25.27
27.60
28.20
27.60
26.66
26.00
25.49
24.46
22.09
18.00
12.45
6.23
0.21
-4.95
-9.12
-12.53
-15.60
-18.64
-21.85
-25.32
-29.09
-33.19
-37.64
-42.33
-46.80
-50.22
-51.45
-49.28
-42.90
-32.17
-18.05
-2.29
12.93
25.65
34.67
39.69
41.10
39.65
36.14
31.22
25.57
19.92
15.08
11.78
10.49
11.30
13.79
17.22
20.74
23.58
25.24
25.59
24.79
23.21
21.23
19.04
16.48
13.22
8.88
3.35
-3.02
-9.56
-15.56
-20.61
-24.76
-28.50
-32.47
-37.21
-42.92
-49.42
-56.15
-62.27
-66.69
-68.18
-65.62
-58.36
-46.50
-31.02
-13.65
3.52
18.55
30.05
37.32
40.30
39.44
35.59
29.87
23.57
17.97
14.10
12.58
13.38
16.01
19.65
23.44
26.64
28.84
29.89
29.84
28.85
27.10
24.78
21.96
18.64
14.72
10.13
4.92
-0.76
-6.55
-11.98
-16.67
-20.46
-23.55
-26.53
-30.17
-35.18
-41.79
-49.45
-56.82
-62.11
-63.50
-59.86
-50.98
-37.75
-21.82
-5.19
10.37
23.50
33.43
39.77
42.53
41.90
38.46
33.16
27.29
22.23
18.99
17.94
18.77
20.61
22.51
23.85
24.42
24.31
23.67
22.38
20.27
17.15
13.19
8.86
4.77
1.36
-1.33
-3.63
-6.01
-8.81
-12.01
-15.24
-18.07
-20.34
-22.35
-24.80
-28.55
-34.20
-41.82
-50.85
-60.30
-68.93
-75.44
-78.63
-77.49
-71.37
-60.22
-44.76
-26.49
-7.48
10.14
24.65
35.08
41.23
43.58
42.93
40.21
36.39
32.37
28.95
26.85
26.55
28.25
31.72
36.31
41.11
45.25
48.11
49.55
49.83
49.37
48.50
47.28
45.49
42.81
39.12
34.51
29.29
23.86
18.46
13.10
7.67
2.08
-3.60
-9.08
-13.98
-17.99
-21.03
-23.43
-25.80
-28.87
-33.31
-39.45
-47.05
-55.17
-62.21
-66.20
-65.41
-58.87
-46.78
-30.50
-12.11
6.14
22.42
35.47
44.67
49.83
51.15
49.12
44.66
38.99
33.51
29.35
27.13
26.79
27.77
29.35
31.04
32.73
34.52
36.55
38.62
40.13
40.34
38.71
35.20
30.29
24.54
18.51
12.53
6.77
1.50
-2.87
-6.01
-7.85
-9.01
-10.43
-13.02
-17.14
-22.29
-27.41
-31.55
-34.47
-37.13
-41.04
-47.33
-55.83
-64.63
-70.66
-70.99
-64.10
-50.90
-34.06
-16.90
-1.88
10.16
19.89
28.30
35.79
41.28
43.19
40.43
33.55
24.95
17.92
15.09
17.21
22.68
28.59
32.34
32.87
31.06
28.81
27.71
28.21
29.25
29.27
27.19
23.01
17.69
12.40
7.83
3.95
0.15
-4.19
-9.24
-14.68
-19.91
-24.41
-28.03
-30.88
-33.61
-37.00
-41.79
-48.28
-56.00
-63.63
-69.26
-70.90
-67.19
-57.92
-44.00
-27.23
-9.72
6.64
20.50
31.09
38.14
41.67
41.94
39.42
34.86
29.27
23.80
19.57
17.40
17.56
19.67
22.88
26.15
28.61
29.83
29.81
28.81
27.13
24.87
21.91
18.09
13.42
8.23
3.10
-1.33
-4.70
-7.13
-9.10
-11.27
-14.08
-17.59
-21.43
-25.09
-28.15
-30.59
-32.79
-35.38
-39.02
-44.12
-50.48
-57.27
-62.98
-65.79
-64.15
-57.28
-45.48
-30.11
-13.12
3.49
18.12
29.82
38.15
42.96
44.32
42.50
38.13
32.24
26.16
21.22
18.36
17.92
19.62
22.67
26.17
29.31
31.60
32.87
33.09
32.36
30.76
28.37
25.36
21.89
18.15
14.25
10.26
6.18
2.08
-2.01
-5.99
-9.81
-13.52
-17.14
-20.70
-24.09
-27.17
-29.73
-31.74
-33.37
-35.01
-37.23
-40.56
-45.39
-51.59
-58.41
-64.45
-67.90
-67.04
-60.80
-49.21
-33.46
-15.54
2.45
18.76
32.24
42.32
48.76
51.44
50.47
46.35
40.12
33.31
27.57
24.15
23.64
25.74
29.55
33.91
37.84
40.76
42.50
43.28
43.36
42.97
42.10
40.64
38.40
35.37
31.58
27.23
22.57
17.86
13.40
9.47
6.26
3.75
1.56
-0.85
-3.96
-7.82
-12.02
-15.80
-18.48
-19.85
-20.40
-21.05
-22.83
-26.39
-31.81
-38.60
-45.78
-51.97
-55.64
-55.31
-49.86
-39.14
-24.13
-6.76
10.50
25.46
36.67
43.59
46.41
45.67
41.98
35.97
28.45
20.54
13.45
8.25
5.49
5.05
6.29
8.29
10.22
11.57
12.19
12.16
11.65
10.72
9.26
7.08
3.98
0.02
-4.53
-9.26
-13.81
-18.04
-22.05
-26.09
-30.28
-34.47
-38.26
-41.25
-43.36
-44.97
-46.85
-49.85
-54.41
-60.24
-66.25
-70.73
-71.88
-68.32
-59.58
-46.24
-29.75
-11.98
5.26
20.52
32.84
41.67
46.75
47.99
45.63
40.42
33.58
26.64
21.03
17.66
16.73
17.77
19.97
22.53
24.93
26.80
27.94
28.12
27.15
24.90
21.56
17.63
13.63
9.91
6.38
2.66
-1.64
-6.67
-12.13
-17.36
-21.74
-24.92
-27.03
-28.64
-30.43
-33.10
-37.12
-42.59
-49.19
-56.05
-61.82
-64.85
-63.66
-57.42
-46.27
-31.29
-14.22
2.98
18.54
31.12
39.96
44.83
46.01
44.23
40.49
35.87
31.30
27.38
24.49
22.72
22.08
22.56
23.98
26.05
28.26
30.05
30.96
30.76
29.45
27.22
24.31
20.92
17.13
13.03
8.73
4.39
0.12
-4.03
-8.13
-12.19
-16.15
-19.88
-23.17
-25.91
-28.20
-30.33
-32.67
-35.72
-39.93
-45.60
-52.67
-60.41
-67.29
-71.18
-69.98
-62.39
-48.62
-30.41
-10.51
8.25
23.81
35.30
42.77
46.69
47.51
45.51
41.09
35.02
28.62
23.44
20.72
20.96
23.72
27.88
32.11
35.42
37.42
38.27
38.40
38.15
37.51
36.15
33.67
29.86
24.93
19.46
14.25
9.94
6.74
4.42
2.38
-0.04
-3.27
-7.31
-11.78
-16.12
-19.85
-22.77
-25.05
-27.13
-29.53
-32.69
-36.91
-42.32
-48.78
-55.68
-61.85
-65.64
-65.24
-59.30
-47.60
-31.22
-12.33
6.40
22.71
35.22
43.53
47.95
49.06
47.38
43.33
37.48
30.65
24.01
18.90
16.31
16.59
19.28
23.16
26.88
29.50
30.75
30.95
30.42
29.21
26.94
23.11
17.75
11.71
6.34
2.75
1.11
0.42
-0.95
-4.24
-9.68
-16.25
-22.45
-26.98
-29.60
-30.82
-31.65
-32.97
-35.19
-38.40
-42.59
-47.77
-54.19
-61.58
-68.89
-74.16
-74.94
-69.19
-56.36
-37.70
-16.45
3.59
19.27
29.23
34.09
35.75
36.02
35.74
34.35
30.81
24.67
16.85
9.61
5.59
6.44
12.00
20.02
27.42
31.62
31.71
28.68
24.55
21.14
19.16
17.85
15.78
11.81
5.82
-1.29
-8.14
-13.67
-17.57
-20.42
-23.09
-26.27
-30.02
-33.97
-37.55
-40.53
-43.06
-45.88
-49.70
-54.71
-60.24
-64.68
-65.98
-62.40
-53.24
-39.24
-22.40
-5.30
9.73
21.27
28.89
32.92
33.99
32.71
29.65
25.43
20.86
16.88
14.35
13.81
15.36
18.62
22.92
27.38
31.20
33.67
34.36
33.12
30.20
26.12
21.49
16.82
12.46
8.52
4.98
1.76
-1.22
-4.02
-6.74
-9.49
-12.38
-15.51
-18.90
-22.52
-26.22
-29.89
-33.51
-37.36
-41.91
-47.60
-54.40
-61.46
-67.09
-69.15
-65.79
-56.29
-41.40
-23.14
-4.16
13.09
27.01
37.05
43.36
46.39
46.49
43.99
39.33
33.33
27.27
22.62
20.61
21.71
25.47
30.66
35.80
39.68
41.76
42.18
41.49
40.28
38.81
37.03
34.63
31.38
27.32
22.77
18.25
14.20
10.82
7.96
5.28
2.42
-0.76
-4.17
-7.55
-10.66
-13.47
-16.10
-18.72
-21.41
-24.08
-26.71
-29.50
-33.08
-38.13
-45.02
-53.24
-61.18
-66.49
-66.88
-60.95
-48.90
-32.41
-14.05
3.53
18.46
29.89
37.84
42.69
44.79
44.27
41.29
36.32
30.36
24.95
21.53
21.00
23.27
27.36
31.87
35.62
38.05
39.33
39.88
39.98
39.60
38.44
36.27
33.19
29.60
25.99
22.58
19.31
15.92
12.26
8.51
5.11
2.44
0.53
-1.09
-3.14
-6.14
-10.16
-14.64
-18.78
-21.99
-24.16
-25.89
-28.15
-31.83
-37.40
-44.63
-52.75
-60.56
-66.61
-69.60
-68.47
-62.60
-52.05
-37.53
-20.38
-2.37
14.78
29.51
40.68
47.68
50.34
48.95
44.29
37.56
30.26
23.88
19.64
18.13
19.22
22.12
25.75
29.04
31.41
32.66
32.95
32.47
31.29
29.37
26.63
23.13
19.14
15.05
11.13
7.48
3.97
0.39
-3.33
-7.08
-10.58
-13.60
-16.08
-18.19
-20.20
-22.35
-24.74
-27.29
-29.83
-32.30
-34.88
-37.98
-42.20
-47.99
-55.35
-63.49
-70.80
-75.25
-74.91
-68.71
-56.83
-40.64
-22.32
-4.12
12.20
25.59
35.61
42.18
45.37
45.36
42.53
37.62
31.75
26.20
22.15
20.37
21.04
23.78
27.72
31.83
35.28
37.57
38.62
38.57
37.57
35.67
32.77
28.81
24.02
18.80
13.74
9.29
5.62
2.62
-0.11
-2.98
-6.17
-9.68
-13.30
-16.80
-20.03
-22.92
-25.54
-27.96
-30.22
-32.39
-34.72
-37.70
-42.03
-48.19
-56.01
-64.23
-70.63
-72.69
-68.55
-57.89
-42.12
-23.87
-6.04
9.19
20.86
28.99
34.10
36.61
36.62
34.24
29.79
24.24
19.08
15.84
15.58
18.36
23.27
28.83
33.57
36.64
38.03
38.32
38.19
38.01
37.52
36.13
33.28
28.87
23.39
17.67
12.53
8.41
5.25
2.61
0.02
-2.83
-5.99
-9.36
-12.87
-16.48
-20.21
-23.93
-27.45
-30.51
-32.94
-34.90
-36.90
-39.65
-43.79
-49.44
-55.91
-61.71
-64.83
-63.42
-56.46
-44.20
-28.13
-10.54
6.30
20.74
32.01
40.06
45.06
47.11
46.16
42.34
36.30
29.31
23.06
19.04
18.09
20.01
23.84
28.24
32.11
34.85
36.42
37.10
37.17
36.73
35.62
33.62
30.55
26.56
22.03
17.53
13.59
10.51
8.23
6.42
4.59
2.34
-0.50
-3.88
-7.60
-11.50
-15.49
-19.53
-23.58
-27.54
-31.34
-35.02
-38.87
-43.42
-49.00
-55.49
-61.83
-66.19
-66.57
-61.46
-50.66
-35.37
-17.70
0.07
16.13
29.44
39.33
45.27
46.82
43.88
37.12
28.17
19.26
12.50
9.21
9.51
12.50
16.77
20.91
24.05
25.92
26.92
27.56
28.32
29.19
29.64
28.94
26.50
22.28
16.90
11.08
5.50
0.37
-4.44
-9.07
-13.38
-17.09
-19.99
-22.42
-25.00
-28.39
-32.67
-37.22
-40.98
-43.18
-44.02
-44.85
-47.49
-53.12
-61.41
-70.13
-75.90
-75.61
-67.69
-53.13
-34.74
-15.97
0.54
13.83
24.36
33.00
40.06
44.68
45.49
41.68
33.95
24.51
16.32
11.74
11.64
15.02
19.85
24.06
26.52
27.28
27.19
27.16
27.63
28.17
27.93
26.08
22.31
16.96
10.93
5.18
0.47
-2.94
-5.37
-7.41
-9.75
-12.85
-16.84
-21.44
-26.14
-30.36
-33.73
-36.22
-38.16
-40.20
-43.07
-47.29
-52.85
-59.07
-64.54
-67.50
-66.33
-60.06
-48.79
-33.62
-16.38
0.92
16.57
29.34
38.51
43.81
45.28
43.34
38.74
32.63
26.34
21.09
17.72
16.51
17.16
18.99
21.25
23.35
24.96
26.04
26.65
26.80
26.39
25.28
23.39
20.83
17.91
15.03
12.56
10.70
9.43
8.53
7.73
6.76
5.38
3.50
1.07
-1.88
-5.23
-8.85
-12.56
-16.25
-19.97
-24.03
-28.88
-34.96
-42.26
-50.06
-56.84
-60.61
-59.60
-52.96
-41.16
-25.79
-9.08
6.88
20.66
31.58
39.41
44.11
45.64
43.98
39.53
33.16
26.26
20.39
16.82
16.12
18.06
21.70
25.85
29.49
32.12
33.72
34.55
34.86
34.56
33.32
30.76
26.76
21.63
16.08
10.87
6.54
3.14
0.28
-2.73
-6.44
-10.98
-16.07
-21.04
-25.27
-28.45
-30.71
-32.53
-34.50
-37.05
-40.53
-45.09
-50.85
-57.69
-65.02
-71.57
-75.49
-74.86
-68.50
-56.47
-40.15
-21.84
-3.89
11.88
24.47
33.55
39.06
41.02
39.54
35.10
28.71
21.85
16.10
12.68
11.89
13.29
15.91
18.82
21.52
23.99
26.40
28.75
30.49
30.75
28.80
24.52
18.58
12.15
6.39
1.96
-1.31
-4.11
-7.23
-11.04
-15.37
-19.63
-23.19
-25.64
-27.12
-28.17
-29.57
-32.10
-36.32
-42.36
-49.83
-57.63
-64.07
-67.28
-65.62
-58.27
-45.61
-29.08
-10.88
6.72
21.88
33.46
41.02
44.59
44.57
41.54
36.35
30.04
23.86
18.97
16.18
15.79
17.50
20.56
24.13
27.54
30.43
32.67
34.17
34.71
33.98
31.76
28.10
23.50
18.70
14.34
10.70
7.58
4.50
0.96
-3.22
-7.83
-12.51
-16.88
-20.81
-24.43
-28.04
-31.95
-36.41
-41.54
-47.35
-53.75
-60.35
-66.32
-70.38
-70.97
-66.72
-56.93
-42.00
-23.47
-3.66
14.88
30.12
40.85
46.87
48.80
47.61
44.38
40.02
35.33
31.09
27.98
26.57
27.13
29.47
32.92
36.54
39.42
41.00
41.12
40.02
38.20
36.10
33.96
31.69
28.98
25.51
21.10
15.93
10.51
5.53
1.53
-1.37
-3.49
-5.45
-7.89
-11.21
-15.40
-20.06
-24.67
-28.82
-32.29
-35.12
-37.48
-39.66
-41.91
-44.62
-48.23
-53.21
-59.72
-67.14
-73.99
-78.03
-76.95
-69.29
-55.08
-36.05
-15.12
4.64
20.89
32.63
40.08
44.09
45.54
44.92
42.39
38.14
32.86
27.69
24.06
23.08
25.00
29.18
34.27
38.82
41.91
43.36
43.66
43.56
43.49
43.36
42.59
40.52
36.76
31.51
25.46
19.59
14.64
10.91
8.12
5.66
2.90
-0.48
-4.39
-8.44
-12.18
-15.40
-18.19
-20.87
-23.82
-27.27
-31.19
-35.48
-40.11
-45.26
-51.18
-57.80
-64.37
-69.32
-70.60
-66.42
-56.04
-40.27
-21.30
-2.00
14.98
28.04
36.76
41.60
43.32
42.52
39.49
34.58
28.46
22.37
17.73
15.67
16.57
19.89
24.39
28.77
32.09
34.07
34.93
35.09
34.74
33.74
31.70
28.23
23.27
17.27
11.03
5.49
1.28
-1.54
-3.53
-5.53
-8.26
-11.93
-16.15
-20.21
-23.56
-26.15
-28.44
-31.14
-34.82
-39.68
-45.56
-52.08
-58.71
-64.72
-69.04
-70.29
-67.08
-58.42
-44.46
-26.49
-6.76
12.11
27.92
39.37
46.11
48.48
46.97
42.18
34.86
26.10
17.50
10.93
7.96
9.24
13.98
20.38
26.30
30.19
31.76
31.82
31.58
31.82
32.19
31.55
28.68
23.14
15.77
8.31
2.56
-0.48
-1.40
-1.78
-3.35
-7.09
-12.60
-18.47
-23.16
-25.83
-27.03
-28.09
-30.32
-34.18
-39.05
-43.66
-47.16
-49.69
-52.56
-57.15
-63.77
-70.87
-75.45
-74.26
-65.50
-49.55
-29.12
-7.88
10.92
25.42
35.25
41.02
43.53
43.43
41.07
36.84
31.43
25.88
21.36
18.92
19.15
22.06
26.97
32.71
37.91
41.47
42.86
42.28
40.40
38.01
35.60
33.25
30.70
27.62
23.88
19.65
15.34
11.45
8.32
6.06
4.39
2.86
0.92
-1.78
-5.24
-9.08
-12.74
-15.77
-18.08
-20.04
-22.24
-25.29
-29.49
-34.88
-41.29
-48.43
-55.78
-62.43
-67.02
-67.88
-63.60
-53.58
-38.47
-20.13
-1.08
16.18
29.86
39.10
43.88
44.73
42.37
37.64
31.48
24.94
19.10
14.93
13.03
13.54
16.11
20.03
24.38
28.37
31.44
33.38
34.27
34.32
33.75
32.59
30.68
27.79
23.80
18.86
13.40
8.07
3.38
-0.42
-3.48
-6.23
-9.20
-12.69
-16.64
-20.61
-24.01
-26.45
-27.99
-29.17
-30.82
-33.74
-38.40
-44.72
-52.08
-59.37
-65.17
-67.96
-66.44
-59.86
-48.36
-32.98
-15.53
1.87
17.32
29.43
37.50
41.46
41.67
38.88
34.00
28.12
22.31
17.49
14.20
12.68
12.90
14.58
17.23
20.28
23.07
25.01
25.68
25.02
23.23
20.68
17.68
14.31
10.46
5.96
0.83
-4.59
-9.75
-14.14
-17.54
-20.17
-22.53
-25.05
-27.95
-31.08
-34.18
-37.10
-40.15
-43.82
-48.53
-54.06
-59.34
-62.58
-61.91
-56.06
-45.10
-30.35
-13.94
1.92
15.67
26.59
34.65
40.08
42.84
42.81
39.93
34.68
28.19
22.04
17.71
16.04
16.95
19.61
22.93
25.99
28.39
30.07
31.13
31.59
31.18
29.67
26.92
23.13
18.75
14.31
10.20
6.60
3.38
0.26
-3.03
-6.68
-10.63
-14.66
-18.41
-21.49
-23.80
-25.67
-27.84
-31.25
-36.70
-44.38
-53.56
-62.61
-69.42
-71.92
-68.79
-59.84
-46.08
-29.37
-11.83
4.68
18.83
29.91
37.61
41.80
42.52
40.12
35.34
29.45
23.92
20.04
18.58
19.55
22.32
25.98
29.66
32.83
35.29
37.02
38.01
38.12
37.12
34.80
31.15
26.46
21.23
16.06
11.42
7.55
4.35
1.42
-1.69
-5.21
-9.09
-13.02
-16.55
-19.44
-21.79
-24.00
-26.64
-30.12
-34.60
-39.96
-45.77
-51.29
-55.47
-57.06
-54.74
-47.62
-35.62
-19.78
-2.08
14.99
29.26
39.26
44.59
45.75
43.68
39.39
33.73
27.43
21.24
16.02
12.60
11.59
13.09
16.51
20.73
24.47
26.73
27.11
25.81
23.49
20.83
18.21
15.51
12.21
7.82
2.11
-4.57
-11.33
-17.17
-21.39
-23.93
-25.45
-26.98
-29.51
-33.54
-38.95
-45.17
-51.44
-57.01
-61.16
-63.05
-61.80
-56.64
-47.21
-33.89
-17.93
-1.09
14.79
28.18
38.16
44.32
46.58
45.07
40.06
32.10
22.18
11.81
2.87
-2.71
-3.41
1.26
10.46
22.03
33.11
41.01
44.14
42.49
37.51
31.34
25.77
21.58
18.27
14.65
9.58
2.72
-5.27
-13.19
-19.93
-25.20
-29.52
-33.96
-39.46
-46.43
-54.50
-62.75
-69.90
-74.58
-75.46
-71.42
-61.87
-47.13
-28.48
-8.08
11.59
28.25
40.32
47.11
48.78
46.11
40.27
32.59
24.36
16.68
10.42
6.09
3.91
3.91
5.85
9.26
13.52
17.87
21.58
24.19
25.47
25.44
24.29
22.23
19.44
16.09
12.34
8.41
4.55
0.99
-2.19
-5.02
-7.76
-10.67
-13.96
-17.64
-21.47
-25.15
-28.47
-31.61
-35.03
-39.22
-44.25
-49.37
-52.92
-52.86
-47.56
-36.57
-20.97
-3.06
14.31
28.84
39.18
45.12
47.10
45.79
41.83
35.88
28.87
22.12
17.11
15.02
16.02
19.35
23.55
27.23
29.71
31.24
32.46
33.87
35.09
35.18
33.11
28.56
22.30
15.85
10.70
7.62
6.02
4.56
1.90
-2.56
-8.34
-14.15
-18.74
-21.36
-22.50
-23.29
-24.99
-28.36
-33.36
-39.24
-45.05
-49.86
-53.26
-54.90
-54.26
-50.55
-42.85
-30.69
-14.71
3.15
19.86
32.38
38.74
38.73
33.96
26.94
20.08
14.99
12.16
11.40
12.39
14.98
19.06
24.33
29.99
35.05
38.44
39.60
38.59
35.95
32.28
27.94
22.93
17.08
10.16
2.13
-6.74
-15.98
-25.02
-33.25
-40.19
-45.58
-49.41
-52.05
-54.18
-56.67
-60.28
-65.27
-71.14
-76.54
-79.55
-78.32
-71.69
-59.66
-43.50
-25.32
-7.50
7.98
19.97
28.09
32.57
33.88
32.53
29.10
24.31
19.12
14.65
11.94
11.70
13.99
18.28
23.60
28.81
33.03
35.81
37.04
36.90
35.64
33.44
30.41
26.66
22.40
17.91
13.48
9.26
5.24
1.23
-2.95
-7.33
-11.70
-15.71
-19.09
-21.85
-24.43
-27.55
-31.93
-37.79
-44.57
-50.82
-54.61
-54.10
-48.22
-37.10
-22.00
-4.94
11.92
26.85
38.80
47.34
52.39
54.06
52.59
48.50
42.73
36.56
31.37
28.18
27.37
28.58
30.95
33.55
35.74
37.27
38.24
38.75
38.73
37.90
35.96
32.81
28.70
24.20
19.89
16.14
12.93
9.81
6.29
2.08
-2.69
-7.59
-12.05
-15.74
-18.73
-21.39
-24.23
-27.68
-31.95
-37.23
-43.54
-50.65
-57.82
-63.64
-66.25
-63.92
-55.72
-42.13
-24.99
-6.92
9.54
22.59
31.49
36.38
37.90
36.72
33.47
28.73
23.16
17.56
12.85
9.88
9.24
10.92
14.38
18.65
22.69
25.67
27.27
27.51
26.66
24.77
21.76
17.48
12.00
5.74
-0.59
-6.26
-10.88
-14.54
-17.76
-21.07
-24.72
-28.54
-32.01
-34.64
-36.26
-37.29
-38.59
-41.12
-45.44
-51.31
-57.57
-62.38
-63.68
-59.96
-50.73
-36.76
-19.91
-2.59
12.97
25.21
33.54
38.11
39.46
38.21
34.90
30.06
24.37
18.73
14.21
11.64
11.45
13.37
16.69
20.49
23.98
26.66
28.36
29.09
28.81
27.46
24.94
21.27
16.67
11.51
6.22
1.18
-3.44
-7.63
-11.49
-15.11
-18.53
-21.76
-24.78
-27.64
-30.49
-33.60
-37.26
-41.73
-47.02
-52.72
-57.87
-61.06
-60.71
-55.70
-45.78
-31.78
-15.44
1.17
16.29
28.73
37.92
43.66
45.91
44.73
40.49
34.10
27.02
20.87
16.96
15.88
17.36
20.52
24.26
27.73
30.48
32.41
33.61
34.11
33.80
32.54
30.21
26.90
22.95
18.75
14.61
10.55
6.38
1.86
-3.17
-8.55
-13.81
-18.35
-21.75
-24.01
-25.61
-27.25
-29.74
-33.56
-38.75
-44.85
-50.97
-55.88
-58.27
-56.99
-51.42
-41.62
-28.52
-13.63
1.16
14.14
23.97
29.99
32.06
30.54
26.16
19.91
12.90
6.26
0.96
-2.27
-3.05
-1.35
2.54
8.01
14.12
19.83
24.15
26.54
26.98
25.95
24.25
22.54
21.11
19.69
17.76
14.78
10.60
5.55
0.28
-4.51
-8.43
-11.56
-14.34
-17.35
-21.08
-25.75
-31.25
-37.29
-43.33
-48.57
-51.95
-52.22
-48.42
-40.14
-27.89
-12.95
2.84
17.63
29.93
38.79
43.88
45.28
43.50
39.29
33.70
27.88
23.01
20.05
19.56
21.60
25.71
30.92
36.03
39.95
42.04
42.43
41.84
41.32
41.83
43.73
46.79
50.29
53.39
55.31
55.57
54.01
50.78
46.37
41.36
36.21
30.99
25.21
17.96
8.25
-4.52
-20.18
-37.67
-55.13
-70.27
-80.77
-84.82
-81.57
-71.33
-55.65
-36.99
-18.19
-1.72
10.73
18.45
21.55
20.73
16.98
11.34
4.92
-1.19
-5.96
-8.62
-8.86
-6.98
-3.81
-0.55
1.62
1.91
0.07
-3.53
-8.19
-13.10
-17.65
-21.56
-24.90
-27.98
-31.11
-34.51
-38.14
-41.83
-45.30
-48.40
-51.17
-53.78
-56.47
-59.37
-62.47
-65.74
-68.99
-71.86
-73.71
-73.52
-70.10
-62.50
-50.48
-34.99
-17.89
-1.51
12.06
21.67
27.22
29.31
28.80
26.11
21.44
15.14
8.15
2.12
-1.07
-0.18
4.66
11.72
18.46
22.72
23.71
22.25
20.19
19.08
19.32
19.66
18.21
13.54
5.73
-3.50
-11.65
-16.74
-18.30
-17.76
-17.44
-19.32
-24.09
-30.93
-38.25
-44.60
-49.18
-51.91
-52.74
-51.27
-46.60
-38.01
-25.50
-10.20
5.98
20.87
32.85
41.09
45.52
46.42
44.25
39.56
33.23
26.39
20.34
16.17
14.39
14.84
16.84
19.48
22.02
24.04
25.35
25.89
25.59
24.31
21.99
18.71
14.75
10.47
6.18
2.06
-1.83
-5.49
-8.93
-12.20
-15.35
-18.54
-21.97
-25.89
-30.52
-35.96
-41.97
-47.88
-52.47
-54.17
-51.49
-43.59
-30.74
-14.42
3.07
19.37
32.71
42.29
48.18
50.84
50.69
47.99
43.01
36.44
29.44
23.52
19.95
19.32
21.24
24.59
28.02
30.49
31.65
31.72
31.17
30.36
29.29
27.68
25.24
21.87
17.82
13.53
9.41
5.66
2.21
-1.11
-4.43
-7.72
-10.86
-13.88
-17.09
-21.10
-26.52
-33.54
-41.57
-49.21
-54.50
-55.58
-51.28
-41.51
-27.35
-10.68
6.30
21.59
33.76
41.99
46.04
46.12
42.81
36.97
29.76
22.55
16.74
13.48
13.29
15.98
20.63
25.86
30.37
33.25
34.31
33.90
32.67
31.14
29.46
27.44
24.71
20.99
16.32
11.02
5.54
0.31
-4.43
-8.70
-12.63
-16.35
-19.80
-22.97
-25.90
-28.93
-32.64
-37.49
-43.31
-49.09
-53.07
-53.38
-48.85
-39.57
-26.86
-12.84
0.42
11.41
19.44
24.27
25.96
24.63
20.60
14.66
8.03
2.22
-1.47
-2.42
-0.78
2.62
6.65
10.34
13.17
15.00
16.02
16.30
15.72
14.06
11.19
7.25
2.73
-1.72
-5.58
-8.77
-11.61
-14.64
-18.32
-22.81
-27.98
-33.67
-39.71
-46.06
-52.48
-58.28
-62.20
-62.73
-58.66
-49.63
-36.32
-20.38
-3.93
11.10
23.29
31.96
37.00
38.68
37.55
34.29
29.77
24.91
20.67
17.78
16.70
17.39
19.48
22.28
25.02
27.00
27.86
27.56
26.40
24.74
22.79
20.43
17.31
13.09
7.76
1.75
-4.17
-9.20
-12.93
-15.48
-17.49
-19.80
-23.12
-27.80
-33.61
-39.70
-44.73
-47.11
-45.42
-38.90
-27.77
-13.31
2.55
17.70
30.55
40.27
46.72
50.17
51.00
49.47
45.76
40.28
33.83
27.53
22.54
19.70
19.18
20.47
22.58
24.63
26.11
26.96
27.43
27.66
27.54
26.70
24.76
21.58
17.39
12.69
7.95
3.50
-0.58
-4.36
-7.94
-11.36
-14.63
-17.82
-21.17
-25.05
-29.83
-35.49
-41.45
-46.44
-48.74
-46.78
-39.82
-28.30
-13.82
1.47
15.51
26.95
35.27
40.45
42.64
41.80
37.90
31.26
22.79
13.99
6.58
1.93
0.50
1.73
4.29
6.69
7.89
7.58
6.16
4.30
2.44
0.58
-1.79
-5.21
-9.94
-15.70
-21.66
-26.90
-30.74
-33.10
-34.48
-35.76
-37.75
-40.92
-45.24
-50.20
-54.93
-58.39
-59.57
-57.60
-51.98
-42.72
-30.41
-16.19
-1.50
12.15
23.56
31.91
36.90
38.61
37.45
34.09
29.29
23.99
19.09
15.41
13.51
13.61
15.47
18.48
21.77
24.46
25.94
25.94
24.63
22.43
19.74
16.79
13.56
9.95
5.91
1.66
-2.42
-5.88
-8.44
-10.17
-11.47
-13.03
-15.61
-19.78
-25.62
-32.47
-38.98
-43.26
-43.56
-38.85
-29.30
-16.27
-1.88
11.80
23.29
31.84
37.39
40.12
40.26
38.04
33.90
28.58
23.09
18.55
15.80
15.18
16.41
18.75
21.25
23.10
23.85
23.50
22.36
20.75
18.77
16.19
12.62
7.86
2.05
-4.24
-10.25
-15.35
-19.23
-22.01
-24.08
-25.94
-28.09
-30.96
-34.87
-39.88
-45.62
-51.10
-54.79
-55.04
-50.65
-41.38
-28.19
-13.01
1.95
14.81
24.51
30.94
34.42
35.42
34.19
30.82
25.54
19.16
12.97
8.52
6.76
7.71
10.43
13.47
15.66
16.61
16.69
16.45
15.95
14.63
11.64
6.48
-0.46
-7.95
-14.56
-19.39
-22.63
-25.22
-28.15
-31.80
-35.69
-38.83
-40.63
-41.20
-41.73
-43.42
-46.61
-50.15
-51.62
-48.42
-39.21
-24.64
-7.44
8.88
21.54
29.50
33.53
35.30
36.21
36.75
36.39
34.44
30.78
26.24
22.22
20.02
20.18
22.29
25.22
27.68
28.82
28.46
27.00
25.14
23.47
22.28
21.30
19.92
17.44
13.44
8.01
1.84
-4.15
-9.15
-12.85
-15.52
-17.81
-20.49
-24.18
-29.10
-34.99
-41.10
-46.17
-48.72
-47.42
-41.52
-31.23
-17.70
-2.71
11.94
24.85
35.24
42.73
47.12
48.23
46.02
40.84
33.59
25.69
18.69
13.81
11.59
11.83
13.77
16.40
18.86
20.61
21.46
21.42
20.58
18.95
16.42
12.79
8.03
2.34
-3.80
-9.76
-14.96
-19.10
-22.25
-24.77
-27.16
-29.86
-33.19
-37.32
-42.19
-47.49
-52.42
-55.76
-56.07
-52.16
-43.57
-30.82
-15.45
0.52
15.01
26.46
33.99
37.41
37.00
33.36
27.28
19.71
11.75
4.53
-0.93
-3.92
-4.22
-2.18
1.34
5.28
8.61
10.77
11.67
11.58
10.85
9.56
7.54
4.50
0.32
-4.76
-10.11
-15.07
-19.22
-22.63
-25.86
-29.64
-34.51
-40.53
-47.10
-53.06
-56.93
-57.34
-53.39
-45.01
-32.98
-18.77
-4.07
9.51
20.79
28.96
33.56
34.43
31.75
26.22
19.02
11.68
5.62
1.87
0.73
1.89
4.63
8.17
11.90
15.32
18.10
19.93
20.53
19.70
17.42
13.88
9.41
4.39
-0.82
-5.99
-10.97
-15.72
-20.25
-24.70
-29.26
-34.38
-40.41
-47.42
-54.87
-61.46
-65.36
-64.82
-58.77
-47.51
-32.56
-16.24
-0.80
12.24
22.29
29.44
33.95
35.77
34.66
30.51
23.93
16.35
9.76
5.88
5.54
8.18
12.31
16.18
18.53
19.12
18.51
17.57
16.95
16.61
15.97
14.28
11.06
6.38
0.92
-4.30
-8.30
-10.61
-11.43
-11.56
-12.06
-13.82
-17.26
-22.15
-27.69
-32.66
-35.71
-35.61
-31.57
-23.48
-12.03
1.39
15.04
27.21
36.70
42.89
45.72
45.45
42.54
37.62
31.60
25.61
20.87
18.38
18.52
21.04
25.04
29.39
33.18
35.89
37.46
38.14
38.12
37.40
35.83
33.21
29.53
25.03
20.11
15.23
10.68
6.61
2.97
-0.32
-3.34
-6.20
-9.12
-12.50
-16.76
-22.10
-28.21
-34.10
-38.27
-39.17
-35.78
-28.03
-16.90
-4.14
8.24
18.62
26.08
30.34
31.55
30.02
26.05
20.05
12.68
4.97
-1.74
-6.25
-7.82
-6.55
-3.29
0.72
4.26
6.64
7.77
7.94
7.50
6.51
4.75
1.94
-2.09
-7.07
-12.41
-17.42
-21.57
-24.76
-27.36
-29.95
-33.21
-37.63
-43.24
-49.62
-55.84
-60.64
-62.73
-61.03
-55.03
-44.97
-31.80
-16.96
-2.18
10.91
20.91
26.87
28.54
26.39
21.56
15.55
9.84
5.46
2.92
2.19
3.02
5.02
7.85
11.18
14.54
17.38
19.14
19.39
17.99
15.07
10.99
6.14
0.95
-4.29
-9.31
-13.93
-18.03
-21.60
-24.79
-27.93
-31.51
-35.93
-41.18
-46.60
-50.83
-52.13
-48.93
-40.52
-27.37
-11.19
5.62
20.66
32.21
39.51
42.66
42.30
39.22
34.21
28.02
21.52
15.63
11.31
9.26
9.64
11.99
15.37
18.68
21.03
22.05
21.89
21.00
19.78
18.26
16.12
12.87
8.25
2.48
-3.64
-9.13
-13.20
-15.74
-17.33
-19.01
-21.82
-26.36
-32.49
-39.35
-45.55
-49.50
-49.85
-45.80
-37.37
-25.45
-11.57
2.51
15.18
25.35
32.45
36.40
37.39
35.80
32.28
27.73
23.28
20.03
18.72
19.49
21.94
25.31
28.90
32.17
34.80
36.50
37.00
36.02
33.48
29.66
25.25
21.02
17.53
14.83
12.48
9.84
6.50
2.50
-1.76
-5.97
-10.02
-14.17
-18.80
-24.05
-29.60
-34.72
-38.48
-40.21
-39.50
-36.22
-30.32
-21.73
-10.53
2.78
17.00
30.23
40.41
45.93
46.29
42.30
35.68
28.44
22.18
17.43
14.10
11.79
10.38
10.13
11.45
14.30
18.02
21.03
21.77
19.33
13.99
7.21
0.91
-3.52
-5.84
-7.30
-9.63
-14.13
-20.79
-28.20
-34.31
-37.68
-38.24
-37.58
-38.01
-41.32
-47.78
-55.91
-63.13
-66.82
-65.30
-58.37
-47.13
-33.34
-18.82
-5.02
7.20
17.29
25.01
30.02
32.10
31.22
27.78
22.64
17.05
12.37
9.69
9.44
11.35
14.56
17.95
20.49
21.66
21.41
20.15
18.41
16.52
14.49
12.03
8.76
4.48
-0.60
-5.90
-10.65
-14.29
-16.71
-18.30
-19.76
-21.85
-25.02
-29.41
-34.74
-40.51
-45.94
-50.05
-51.68
-49.72
-43.45
-32.92
-19.11
-3.78
11.01
23.38
32.13
36.88
37.94
36.08
32.22
27.27
22.02
17.19
13.35
10.94
10.14
10.88
12.85
15.47
18.12
20.21
21.29
21.17
19.87
17.71
15.10
12.48
10.13
8.05
5.95
3.47
0.36
-3.34
-7.24
-10.93
-14.09
-16.71
-19.04
-21.42
-24.10
-27.12
-30.48
-34.26
-38.63
-43.63
-48.91
-53.48
-55.84
-54.41
-48.17
-37.16
-22.63
-6.65
8.46
20.87
29.61
34.61
36.37
35.58
32.82
28.62
23.52
18.32
14.02
11.63
11.79
14.45
18.81
23.59
27.54
29.91
30.63
30.20
29.25
28.18
26.99
25.31
22.81
19.47
15.56
11.62
7.97
4.62
1.28
-2.43
-6.67
-11.21
-15.50
-18.97
-21.35
-22.85
-24.10
-25.90
-28.92
-33.43
-39.28
-45.85
-52.30
-57.48
-60.15
-59.10
-53.45
-43.05
-28.72
-12.13
4.47
18.92
29.75
36.44
39.39
39.46
37.55
34.38
30.36
25.87
21.43
17.75
15.62
15.57
17.62
21.21
25.29
28.67
30.50
30.48
28.93
26.52
23.88
21.37
18.90
16.15
12.82
8.86
4.56
0.40
-3.18
-5.93
-7.98
-9.69
-11.46
-13.51
-15.85
-18.27
-20.48
-22.28
-23.77
-25.30
-27.41
-30.56
-34.86
-39.77
-44.12
-46.24
-44.63
-38.40
-27.75
-13.99
0.83
14.61
25.73
33.41
37.62
38.69
37.02
32.93
26.86
19.49
11.90
5.37
1.01
-0.58
0.42
3.26
6.94
10.62
13.92
16.80
19.36
21.54
22.91
22.87
20.95
17.10
11.90
6.41
1.69
-1.69
-3.81
-5.30
-6.92
-9.16
-11.96
-14.82
-17.21
-18.88
-20.02
-21.19
-22.97
-25.83
-29.90
-34.93
-40.27
-44.91
-47.65
-47.25
-42.87
-34.40
-22.49
-8.41
6.28
20.08
31.78
40.53
45.88
47.68
46.21
42.17
36.64
30.84
25.83
22.32
20.63
20.55
21.65
23.45
25.45
27.28
28.61
29.22
28.92
27.69
25.68
23.26
20.87
18.73
16.68
14.15
10.62
5.91
0.49
-4.59
-8.24
-9.87
-9.76
-8.94
-8.58
-9.55
-12.10
-15.99
-20.89
-26.54
-32.67
-38.66
-43.28
-44.90
-42.11
-34.31
-22.20
-7.61
7.01
19.44
28.14
32.63
33.25
30.90
26.67
21.58
16.53
12.15
8.93
7.18
7.02
8.34
10.82
13.90
16.87
19.03
19.85
19.12
17.03
14.07
10.69
7.22
3.63
-0.38
-5.11
-10.57
-16.41
-21.92
-26.46
-29.71
-31.96
-33.89
-36.33
-39.84
-44.49
-49.85
-55.19
-59.68
-62.48
-62.81
-59.95
-53.45
-43.27
-30.02
-14.99
0.09
13.45
23.74
30.26
33.03
32.57
29.73
25.41
20.53
15.95
12.41
10.41
10.14
11.35
13.54
16.08
18.38
20.06
20.95
21.00
20.21
18.57
16.07
12.77
8.79
4.35
-0.30
-4.86
-9.07
-12.72
-15.74
-18.30
-20.82
-23.92
-28.24
-34.08
-41.09
-48.08
-53.27
-54.78
-51.38
-42.95
-30.55
-16.13
-1.72
11.15
21.60
29.34
34.28
36.24
35.04
30.84
24.40
17.07
10.37
5.46
2.88
2.43
3.49
5.43
7.79
10.31
12.70
14.60
15.46
14.83
12.42
8.36
3.02
-2.94
-9.00
-14.73
-19.89
-24.40
-28.19
-31.21
-33.51
-35.33
-37.51
-41.00
-46.43
-53.45
-60.41
-64.76
-64.05
-56.95
-44.16
-28.01
-11.45
3.16
14.87
24.00
31.30
37.11
40.71
40.96
37.19
30.04
21.62
14.80
11.84
13.44
18.20
23.53
26.95
27.34
25.33
22.72
21.25
21.60
22.86
23.30
21.42
16.79
10.33
3.67
-1.76
-5.33
-7.51
-9.28
-11.53
-14.65
-18.47
-22.63
-26.96
-31.50
-36.40
-41.44
-45.80
-48.08
-46.74
-40.77
-30.15
-15.92
0.01
15.52
28.81
38.72
44.81
47.18
46.21
42.59
37.20
31.06
25.26
20.73
18.07
17.44
18.64
21.19
24.47
27.77
30.36
31.65
31.30
29.41
26.39
22.87
19.40
16.22
13.23
10.11
6.56
2.50
-1.87
-6.18
-10.05
-13.34
-16.15
-18.78
-21.62
-25.06
-29.35
-34.59
-40.59
-46.75
-52.05
-55.13
-54.58
-49.41
-39.48
-25.68
-9.81
5.93
19.46
29.37
35.08
36.75
35.08
30.99
25.48
19.57
14.28
10.48
8.78
9.38
11.93
15.71
19.76
23.18
25.34
25.91
24.89
22.50
19.04
14.89
10.45
6.03
1.86
-1.96
-5.43
-8.58
-11.47
-14.13
-16.69
-19.33
-22.36
-26.21
-31.20
-37.35
-44.11
-50.29
-54.23
-54.30
-49.44
-39.63
-25.90
-10.06
5.93
20.45
32.41
41.21
46.50
48.09
46.03
40.87
33.74
26.25
20.07
16.45
15.85
17.84
21.36
25.13
28.07
29.66
29.92
29.21
27.92
26.20
23.86
20.54
16.04
10.51
4.47
-1.38
-6.52
-10.75
-14.29
-17.53
-20.78
-24.15
-27.75
-31.86
-36.95
-43.50
-51.52
-60.08
-67.34
-70.98
-69.18
-61.33
-48.37
-32.48
-16.17
-1.46
10.51
19.48
25.46
28.51
28.64
26.16
21.95
17.48
14.39
13.96
16.45
21.15
26.66
31.62
35.17
37.14
37.81
37.58
36.54
34.58
31.54
27.46
22.70
17.79
13.19
9.10
5.33
1.60
-2.31
-6.39
-10.40
-14.06
-17.21
-19.82
-22.13
-24.46
-27.22
-30.71
-34.90
-39.25
-42.62
-43.44
-40.20
-32.11
-19.53
-4.00
12.23
26.89
38.37
46.04
50.00
50.83
49.10
45.24
39.66
32.90
25.87
19.75
15.67
14.35
15.76
19.11
23.11
26.49
28.43
28.72
27.61
25.45
22.49
18.77
14.31
9.24
3.98
-0.90
-4.94
-8.01
-10.39
-12.55
-15.00
-17.95
-21.32
-24.77
-27.89
-30.49
-32.71
-35.11
-38.44
-43.30
-49.66
-56.63
-62.51
-65.20
-63.04
-55.40
-42.92
-27.40
-11.02
4.31
17.37
27.61
34.86
39.04
40.08
38.08
33.59
27.78
22.15
18.11
16.49
17.31
19.87
23.12
26.12
28.34
29.63
30.07
29.74
28.62
26.66
23.88
20.52
16.95
13.43
9.98
6.37
2.33
-2.21
-6.97
-11.40
-14.91
-17.25
-18.77
-20.26
-22.72
-26.84
-32.76
-39.86
-46.87
-52.07
-53.82
-50.92
-43.10
-31.01
-16.21
-0.66
13.80
25.88
35.01
41.26
45.04
46.86
47.07
45.85
43.39
39.91
35.71
31.14
26.50
22.06
17.97
14.42
11.58
9.53
8.16
7.20
6.20
4.76
2.74
0.24
-2.38
-4.80
-6.94
-8.97
-11.29
-14.25
-17.95
-22.20
-26.59
-30.69
-34.23
-37.12
-39.59
-42.03
-44.92
-48.68
-53.48
-59.01
-64.40
-68.28
-69.14
-65.74
-57.57
-45.05
-29.43
-12.45
4.09
18.72
30.44
38.75
43.57
45.16
44.15
41.40
37.92
34.68
32.43
31.55
32.06
33.70
36.05
38.70
41.27
43.37
44.68
44.87
43.72
41.22
37.58
33.19
28.50
23.90
19.63
15.78
12.34
9.21
6.28
3.41
0.43
-2.81
-6.36
-10.16
-14.08
-17.89
-21.47
-24.82
-28.19
-32.07
-36.91
-42.96
-49.80
-56.32
-60.89
-61.89
-58.27
-50.01
-38.14
-24.36
-10.47
2.06
12.31
19.84
24.50
26.41
25.95
23.74
20.63
17.55
15.29
14.30
14.59
15.78
17.26
18.42
18.82
18.41
17.37
16.00
14.46
12.65
10.36
7.51
4.24
1.00
-1.97
-4.73
-7.66
-11.16
-15.29
-19.49
-22.98
-25.12
-26.11
-26.74
-28.06
-30.73
-34.70
-39.38
-44.14
-48.73
-53.33
-57.91
-61.73
-63.17
-60.15
-51.16
-36.19
-17.02
2.93
20.10
31.99
37.91
39.00
37.37
34.89
32.50
29.90
26.35
21.52
16.13
11.75
10.13
12.13
17.37
24.15
30.40
34.53
35.94
35.00
32.52
29.21
25.44
21.13
16.25
10.99
5.78
1.09
-2.80
-5.94
-8.53
-10.90
-13.28
-15.73
-18.23
-20.74
-23.27
-25.93
-28.87
-32.32
-36.51
-41.48
-46.80
-51.45
-53.88
-52.46
-46.04
-34.53
-19.05
-1.68
15.24
29.74
40.66
47.64
50.96
51.13
48.73
44.33
38.60
32.44
26.95
23.37
22.77
25.70
31.79
39.77
47.69
53.46
55.56
53.39
47.40
38.71
28.61
18.09
7.78
-2.00
-10.91
-18.58
-24.56
-28.64
-30.99
-32.23
-33.18
-34.56
-36.70
-39.44
-42.22
-44.43
-45.75
-46.38
-47.03
-48.70
-52.21
-57.69
-64.22
-69.99
-72.70
-70.43
-62.34
-48.98
-32.13
-14.11
2.94
17.59
29.13
37.43
42.45
44.16
42.65
38.36
32.25
25.76
20.35
17.12
16.43
17.92
20.77
24.09
27.26
30.00
32.25
33.89
34.63
34.10
32.04
28.53
24.10
19.42
15.06
11.09
7.15
2.63
-2.85
-9.20
-15.77
-21.68
-26.25
-29.37
-31.55
-33.74
-36.86
-41.51
-47.66
-54.81
-61.96
-67.91
-71.33
-71.00
-65.96
-55.90
-41.30
-23.69
-5.25
11.65
25.10
34.16
38.96
40.36
39.44
36.99
33.41
28.93
23.92
19.20
15.82
14.74
16.20
19.55
23.54
26.85
28.62
28.76
27.70
25.99
23.95
21.40
17.94
13.32
7.65
1.50
-4.34
-9.18
-12.72
-15.20
-17.28
-19.64
-22.75
-26.55
-30.69
-34.77
-38.66
-42.67
-47.12
-51.84
-55.74
-57.00
-53.69
-44.73
-30.51
-13.00
4.89
20.43
31.84
38.68
41.53
41.44
39.40
36.07
31.88
27.23
22.67
18.88
16.51
15.97
17.34
20.22
23.88
27.41
30.01
31.15
30.73
29.00
26.47
23.62
20.72
17.73
14.41
10.55
6.13
1.36
-3.36
-7.74
-11.72
-15.46
-19.29
-23.38
-27.74
-32.21
-36.64
-41.12
-45.94
-51.31
-56.95
-61.83
-64.23
-62.33
-54.92
-42.03
-25.06
-6.45
11.19
25.77
36.22
42.38
44.75
44.05
40.96
36.13
30.32
24.42
19.45
16.33
15.60
17.27
20.81
25.27
29.65
33.13
35.22
35.83
35.14
33.44
30.97
27.88
24.30
20.45
16.63
13.16
10.30
8.00
5.91
3.42
-0.05
-4.84
-10.80
-17.32
-23.51
-28.61
-32.27
-34.83
-37.17
-40.30
-44.88
-50.70
-56.51
-60.38
-60.34
-55.11
-44.63
-30.03
-13.34
3.26
18.03
29.88
38.44
43.67
45.62
44.43
40.45
34.45
27.71
21.76
17.88
16.70
17.96
20.72
23.83
26.39
28.08
29.11
29.86
30.49
30.75
30.16
28.22
24.89
20.61
16.16
12.25
9.20
6.81
4.53
1.84
-1.50
-5.32
-9.19
-12.69
-15.62
-18.11
-20.51
-23.26
-26.76
-31.25
-36.75
-43.04
-49.52
-55.22
-58.90
-59.28
-55.36
-46.76
-33.93
-18.14
-1.31
14.38
27.02
35.37
39.10
38.69
35.16
29.71
23.40
17.14
11.67
7.73
5.97
6.76
9.96
14.81
20.06
24.37
26.80
27.01
25.37
22.63
19.60
16.78
14.16
11.33
7.78
3.16
-2.38
-8.25
-13.65
-17.91
-20.83
-22.74
-24.35
-26.38
-29.37
-33.50
-38.74
-44.85
-51.24
-56.95
-60.59
-60.67
-56.01
-46.37
-32.58
-16.43
-0.15
14.22
25.41
32.89
36.82
37.69
36.03
32.33
27.18
21.31
15.68
11.33
9.13
9.46
12.00
15.75
19.43
21.84
22.37
21.16
18.97
16.68
14.85
13.32
11.41
8.28
3.48
-2.72
-9.29
-15.08
-19.25
-21.71
-23.14
-24.51
-26.57
-29.68
-33.75
-38.67
-44.32
-50.37
-56.03
-59.78
-59.69
-54.21
-42.97
-27.31
-9.76
6.81
20.36
30.22
36.85
41.07
43.31
43.24
40.31
34.45
26.62
18.82
13.34
11.75
14.30
19.47
25.02
28.90
30.25
29.62
28.48
28.17
29.07
30.18
29.87
26.90
21.18
13.94
7.17
2.38
-0.04
-1.19
-2.78
-6.17
-11.55
-17.89
-23.56
-27.29
-28.76
-28.96
-29.46
-31.74
-36.48
-43.24
-50.67
-56.96
-60.23
-59.18
-53.19
-42.55
-28.38
-12.43
3.44
17.58
28.98
37.10
41.85
43.27
41.59
37.22
31.02
24.30
18.63
15.36
15.19
17.93
22.55
27.63
31.86
34.47
35.36
34.96
33.92
32.67
31.29
29.48
26.84
23.22
18.86
14.41
10.62
7.93
6.27
5.04
3.45
0.87
-2.79
-7.14
-11.52
-15.38
-18.51
-21.09
-23.47
-25.93
-28.63
-31.69
-35.40
-40.18
-46.20
-53.02
-59.27
-62.84
-61.61
-54.33
-41.24
-24.10
-5.57
11.66
25.70
35.72
41.77
44.37
44.10
41.48
37.09
31.68
26.28
22.03
19.84
20.14
22.59
26.30
30.12
33.05
34.61
34.89
34.30
33.38
32.42
31.40
30.05
28.04
25.16
21.46
17.27
13.06
9.28
6.21
3.80
1.73
-0.48
-3.24
-6.66
-10.54
-14.47
-18.06
-21.13
-23.76
-26.28
-29.00
-32.08
-35.64
-39.76
-44.58
-50.15
-56.11
-61.42
-64.45
-63.37
-56.93
-45.08
-29.14
-11.51
5.16
18.83
28.47
34.09
36.20
35.39
32.16
26.93
20.45
13.86
8.54
5.67
5.68
8.15
12.00
16.01
19.30
21.56
22.87
23.53
23.60
22.98
21.43
18.87
15.43
11.57
7.79
4.52
1.73
-0.90
-3.86
-7.55
-11.96
-16.62
-20.81
-23.90
-25.86
-27.17
-28.69
-31.11
-34.75
-39.46
-44.82
-50.33
-55.56
-59.88
-62.36
-61.78
-56.90
-47.09
-32.77
-15.45
2.48
18.54
30.86
38.60
41.95
41.74
39.04
34.87
29.97
24.98
20.57
17.44
16.20
17.09
19.83
23.71
27.72
30.99
32.94
33.52
32.91
31.39
29.17
26.39
23.14
19.51
15.74
12.00
8.45
5.14
1.99
-1.09
-4.17
-7.35
-10.63
-13.96
-17.23
-20.29
-23.00
-25.39
-27.74
-30.62
-34.74
-40.57
-47.96
-55.88
-62.59
-66.01
-64.46
-57.18
-44.66
-28.49
-10.86
6.07
20.61
31.82
39.39
43.42
44.21
42.18
37.96
32.46
26.89
22.52
20.35
20.70
23.16
26.76
30.37
33.13
34.74
35.38
35.35
34.78
33.52
31.21
27.63
22.93
17.64
12.61
8.54
5.77
4.08
2.81
1.19
-1.42
-5.15
-9.62
-14.10
-17.90
-20.73
-22.79
-24.62
-26.93
-30.26
-34.79
-40.36
-46.40
-52.03
-56.08
-57.25
-54.42
-47.02
-35.30
-20.42
-4.26
11.10
23.85
32.83
37.62
38.46
36.10
31.49
25.64
19.49
13.82
9.30
6.41
5.44
6.45
9.16
12.99
17.11
20.59
22.70
23.03
21.62
18.96
15.73
12.49
9.55
6.80
3.91
0.50
-3.61
-8.22
-12.94
-17.32
-21.13
-24.40
-27.29
-30.02
-32.68
-35.23
-37.78
-40.54
-43.86
-47.91
-52.24
-55.73
-56.68
-53.47
-45.24
-32.38
-16.53
-0.07
14.73
26.34
34.22
38.63
40.19
39.43
36.67
32.16
26.36
20.11
14.59
10.97
9.97
11.61
15.18
19.41
23.08
25.27
25.71
24.69
22.78
20.51
18.06
15.32
12.04
8.09
3.66
-0.79
-4.82
-8.19
-11.06
-13.82
-16.88
-20.36
-24.03
-27.51
-30.64
-33.66
-37.17
-41.69
-47.20
-52.77
-56.72
-57.09
-52.46
-42.53
-28.38
-12.06
4.01
17.81
28.18
34.81
38.01
38.32
36.29
32.42
27.33
21.83
16.89
13.43
12.07
12.94
15.57
19.21
22.94
26.04
28.09
28.94
28.64
27.36
25.22
22.36
19.00
15.37
11.79
8.45
5.42
2.53
-0.55
-4.07
-8.12
-12.42
-16.48
-19.84
-22.34
-24.27
-26.35
-29.36
-33.74
-39.25
-44.85
-49.10
-50.45
-47.81
-40.83
-29.93
-16.09
-0.60
15.06
29.38
40.92
48.54
51.63
50.32
45.55
38.72
31.48
25.11
20.44
17.74
16.84
17.40
19.08
21.47
24.11
26.20
26.97
25.86
22.93
18.94
15.11
12.46
11.40
11.15
10.42
8.06
3.77
-1.63
-6.59
-9.92
-11.36
-11.90
-13.07
-15.94
-20.50
-25.62
-29.82
-32.23
-33.10
-33.87
-36.17
-40.81
-47.09
-52.93
-55.68
-53.33
-45.20
-32.43
-17.22
-2.07
11.06
21.12
27.92
31.74
33.08
32.23
29.39
24.92
19.37
13.63
8.77
5.71
5.00
6.63
10.00
14.12
17.92
20.53
21.53
20.93
19.09
16.46
13.50
10.47
7.48
4.52
1.46
-1.76
-5.17
-8.67
-12.09
-15.26
-18.12
-20.65
-22.97
-25.21
-27.48
-29.91
-32.73
-36.24
-40.64
-45.80
-51.00
-54.91
-55.86
-52.40
-43.96
-31.19
-15.79
-0.02
14.00
24.86
32.08
35.86
36.74
35.31
32.14
27.82
23.12
18.98
16.31
15.72
17.22
20.26
23.92
27.28
29.71
31.02
31.39
31.11
30.44
29.36
27.72
25.31
22.05
18.13
13.94
9.95
6.47
3.45
0.57
-2.67
-6.59
-11.09
-15.70
-19.71
-22.59
-24.27
-25.21
-26.24
-28.24
-31.75
-36.72
-42.50
-47.90
-51.45
-51.74
-47.83
-39.47
-27.29
-12.65
2.70
17.02
28.96
37.68
42.86
44.52
43.02
38.99
33.41
27.50
22.46
19.19
18.05
18.80
20.80
23.36
25.96
28.38
30.58
32.54
34.07
34.87
34.64
33.22
30.70
27.32
23.40
19.20
14.91
10.70
6.73
3.24
0.30
-2.17
-4.46
-6.99
-9.99
-13.38
-16.74
-19.47
-21.29
-22.33
-23.24
-24.90
-28.01
-32.78
-38.76
-44.97
-50.22
-53.35
-53.39
-49.71
-42.15
-31.08
-17.50
-2.95
10.69
21.70
28.87
31.92
31.40
28.44
24.27
19.90
15.85
12.33
9.53
7.75
7.41
8.80
11.80
15.82
19.82
22.74
23.82
22.85
20.14
16.27
11.87
7.45
3.29
-0.50
-3.96
-7.22
-10.44
-13.78
-17.30
-20.89
-24.34
-27.43
-29.99
-31.97
-33.48
-34.76
-36.05
-37.66
-39.91
-43.06
-47.13
-51.72
-55.83
-58.02
-56.77
-50.97
-40.46
-26.26
-10.22
5.46
19.00
29.32
36.15
39.67
40.24
38.20
33.95
28.16
21.85
16.31
12.66
11.53
12.81
15.79
19.46
22.92
25.63
27.36
28.09
27.88
26.76
24.77
22.04
18.82
15.37
11.87
8.37
4.81
1.10
-2.76
-6.70
-10.59
-14.30
-17.74
-20.81
-23.43
-25.57
-27.35
-29.13
-31.44
-34.80
-39.38
-44.55
-48.93
-50.64
-48.03
-40.34
-28.10
-12.98
2.72
16.87
28.11
35.95
40.59
42.41
41.75
38.87
34.13
28.25
22.38
17.74
15.25
15.18
17.04
19.87
22.64
24.68
25.89
26.55
26.97
27.14
26.72
25.21
22.27
18.06
13.17
8.40
4.38
1.26
-1.31
-3.91
-7.09
-11.07
-15.55
-19.96
-23.60
-26.03
-27.24
-27.62
-27.86
-28.74
-30.87
-34.50
-39.45
-45.03
-50.15
-53.40
-53.48
-49.46
-41.12
-29.08
-14.72
0.19
13.86
24.90
32.47
36.31
36.73
34.36
30.05
24.76
19.42
14.88
11.85
10.80
11.84
14.65
18.51
22.50
25.77
27.84
28.66
28.49
27.74
26.64
25.15
23.03
20.04
16.18
11.75
7.27
3.29
0.11
-2.35
-4.48
-6.78
-9.54
-12.70
-15.90
-18.63
-20.56
-21.70
-22.48
-23.62
-25.84
-29.66
-35.12
-41.60
-47.90
-52.43
-53.71
-50.81
-43.59
-32.79
-19.77
-6.10
6.74
17.59
25.70
30.60
32.23
30.86
27.12
21.90
16.20
10.96
6.89
4.43
3.72
4.65
6.91
10.04
13.41
16.39
18.42
19.13
18.41
16.46
13.69
10.52
7.23
3.89
0.39
-3.41
-7.45
-11.52
-15.29
-18.53
-21.19
-23.51
-25.81
-28.39
-31.40
-34.81
-38.56
-42.52
-46.47
-49.78
-51.42
-50.08
-44.67
-34.89
-21.48
-6.17
8.90
21.77
31.18
36.69
38.47
37.17
33.60
28.52
22.77
17.14
12.42
9.28
8.19
9.23
12.06
15.63
18.66
20.02
19.19
16.55
13.21
10.36
8.70
7.96
7.12
5.11
1.40
-3.57
-8.65
-12.70
-15.15
-16.49
-17.81
-20.19
-24.05
-28.90
-33.77
-37.85
-40.94
-43.68
-46.77
-50.21
-52.86
-52.71
-47.71
-37.02
-21.52
-3.87
12.62
25.25
32.83
35.82
35.72
34.03
31.71
28.89
25.42
21.39
17.43
14.56
13.73
15.32
18.96
23.60
28.06
31.35
32.96
32.87
31.34
28.77
25.58
22.14
18.68
15.38
12.25
9.09
5.62
1.61
-2.95
-7.81
-12.51
-16.63
-19.98
-22.69
-25.10
-27.60
-30.47
-33.83
-37.71
-41.99
-46.34
-50.08
-52.08
-51.00
-45.70
-35.77
-21.84
-5.60
10.68
24.80
35.26
41.49
43.78
42.99
40.03
35.72
30.78
25.89
21.80
19.25
18.76
20.41
23.75
27.87
31.74
34.53
35.94
36.06
35.26
33.87
32.01
29.59
26.47
22.67
18.45
14.24
10.42
7.16
4.31
1.49
-1.69
-5.40
-9.54
-13.78
-17.67
-20.95
-23.57
-25.86
-28.39
-31.81
-36.57
-42.62
-49.28
-55.36
-59.37
-59.91
-56.14
-47.93
-35.92
-21.43
-6.08
8.44
20.71
29.76
35.17
37.01
35.77
32.17
27.14
21.65
16.68
13.11
11.50
11.98
14.27
17.68
21.45
24.90
27.58
29.18
29.44
28.11
25.04
20.36
14.55
8.33
2.41
-2.86
-7.52
-11.93
-16.44
-21.11
-25.53
-29.14
-31.50
-32.58
-32.89
-33.19
-34.21
-36.39
-39.85
-44.42
-49.63
-54.70
-58.50
-59.62
-56.66
-48.78
-36.07
-19.84
-2.21
14.42
28.13
37.92
43.72
46.03
45.53
42.72
38.03
32.05
25.75
20.41
17.26
16.95
19.34
23.37
27.62
30.88
32.59
32.91
32.43
31.69
30.88
29.57
27.17
23.27
18.05
12.27
6.98
2.99
0.51
-1.07
-2.81
-5.63
-9.84
-14.96
-20.01
-24.02
-26.51
-27.77
-28.64
-30.21
-33.32
-38.35
-44.91
-51.95
-57.79
-60.57
-58.79
-51.72
-39.74
-24.22
-7.20
9.29
23.65
34.90
42.59
46.59
46.96
43.98
38.37
31.30
24.33
18.93
16.11
16.11
18.34
21.76
25.26
28.11
30.07
31.28
32.01
32.35
32.21
31.31
29.46
26.63
23.10
19.31
15.73
12.61
9.97
7.53
4.93
1.91
-1.57
-5.29
-8.89
-12.07
-14.78
-17.16
-19.48
-21.98
-24.74
-27.84
-31.47
-35.86
-41.15
-46.96
-52.26
-55.35
-54.45
-48.35
-37.06
-21.91
-5.12
10.90
24.25
33.93
39.78
42.18
41.67
38.84
34.25
28.66
22.97
18.22
15.28
14.62
16.13
19.15
22.75
26.03
28.31
29.35
29.28
28.37
26.90
24.97
22.52
19.44
15.74
11.61
7.44
3.67
0.53
-2.06
-4.52
-7.34
-10.91
-15.23
-19.85
-24.11
-27.50
-29.81
-31.33
-32.67
-34.47
-37.26
-41.22
-46.19
-51.62
-56.66
-60.23
-61.10
-58.19
-50.91
-39.41
-24.72
-8.61
6.84
19.80
29.07
34.28
35.73
34.12
30.34
25.24
19.59
14.17
9.70
6.88
6.18
7.71
11.11
15.65
20.33
24.18
26.46
26.93
25.76
23.46
20.57
17.45
14.22
10.83
7.25
3.58
0.01
-3.29
-6.30
-9.14
-11.95
-14.84
-17.78
-20.63
-23.25
-25.60
-27.89
-30.47
-33.83
-38.36
-44.09
-50.44
-56.20
-59.64
-59.08
-53.43
-42.72
-28.13
-11.67
4.47
18.53
29.48
37.01
41.20
42.27
40.47
36.17
30.11
23.40
17.42
13.41
12.05
13.26
16.31
20.08
23.55
26.15
27.80
28.71
29.07
28.88
27.83
25.60
22.12
17.73
13.14
9.11
6.12
4.14
2.66
0.94
-1.52
-4.81
-8.62
-12.37
-15.63
-18.24
-20.35
-22.31
-24.53
-27.34
-30.99
-35.57
-40.88
-46.28
-50.64
-52.48
-50.45
-43.70
-32.41
-17.78
-1.74
13.50
26.14
35.08
40.07
41.58
40.38
37.36
33.28
28.81
24.55
21.18
19.28
19.20
20.66
22.98
25.21
26.70
27.37
27.75
28.46
29.76
31.04
31.26
29.44
25.35
19.73
14.03
9.49
6.57
4.60
2.28
-1.45
-6.79
-12.90
-18.33
-21.95
-23.37
-23.58
-23.97
-25.82
-29.53
-34.56
-39.86
-44.52
-48.15
-50.99
-53.22
-54.43
-53.48
-48.81
-39.33
-25.26
-8.35
8.38
21.79
29.81
32.07
29.82
25.12
19.82
15.04
10.89
7.16
3.80
1.29
0.36
1.59
4.86
9.51
14.33
18.21
20.41
20.70
19.26
16.56
13.16
9.69
6.49
3.70
1.09
-1.76
-5.20
-9.28
-13.72
-17.99
-21.57
-24.25
-26.14
-27.68
-29.40
-31.79
-35.17
-39.64
-44.90
-50.23
-54.50
-56.33
-54.49
-48.32
-38.02
-24.65
-9.85
4.62
17.26
27.00
33.36
36.23
35.90
32.90
28.00
22.11
16.23
11.32
8.09
6.99
8.05
10.90
14.84
19.01
22.57
24.94
25.86
25.40
23.84
21.53
18.78
15.77
12.58
9.22
5.66
1.83
-2.23
-6.37
-10.31
-13.74
-16.47
-18.50
-20.16
-21.95
-24.41
-27.96
-32.71
-38.42
-44.46
-49.77
-53.05
-52.95
-48.45
-39.26
-26.06
-10.40
5.68
20.20
31.66
39.31
43.06
43.35
40.89
36.59
31.42
26.35
22.27
19.77
19.10
20.20
22.65
25.91
29.33
32.39
34.63
35.80
35.85
34.89
33.10
30.64
27.62
24.11
20.18
15.90
11.44
7.02
2.83
-0.96
-4.28
-7.21
-9.90
-12.53
-15.26
-18.16
-21.37
-25.07
-29.51
-34.94
-41.25
-47.87
-53.63
-56.96
-56.41
-51.12
-41.24
-27.85
-12.74
2.23
15.45
25.92
33.16
37.06
37.79
35.64
31.16
25.19
18.83
13.33
9.61
8.18
8.95
11.37
14.64
17.99
20.80
22.73
23.49
22.89
20.90
17.68
13.65
9.40
5.44
2.04
-1.01
-4.20
-7.98
-12.47
-17.35
-21.92
-25.56
-27.96
-29.46
-30.79
-32.80
-36.06
-40.65
-46.12
-51.60
-55.91
-57.88
-56.46
-51.05
-41.62
-28.91
-14.32
0.45
13.87
24.81
32.70
37.39
38.96
37.57
33.60
27.78
21.30
15.54
11.78
10.73
12.27
15.66
19.74
23.48
26.21
27.68
27.91
27.02
25.11
22.32
18.85
14.98
11.02
7.20
3.58
-0.00
-3.76
-7.83
-12.17
-16.49
-20.39
-23.57
-25.98
-27.96
-30.22
-33.51
-38.36
-44.61
-51.27
-56.62
-58.68
-55.89
-47.67
-34.70
-18.73
-2.03
13.38
26.09
35.44
41.33
43.86
43.24
39.81
34.29
27.83
21.90
17.80
16.29
17.38
20.33
24.05
27.51
30.11
31.72
32.56
32.84
32.61
31.69
29.77
26.74
22.80
18.45
14.23
10.47
7.13
3.95
0.61
-3.00
-6.65
-9.97
-12.71
-14.90
-16.96
-19.47
-22.95
-27.66
-33.41
-39.52
-44.87
-48.14
-48.11
-44.00
-35.79
-24.26
-10.77
3.06
15.73
26.14
33.64
38.00
39.20
37.42
33.11
27.05
20.32
14.11
9.36
6.62
5.87
6.77
8.87
11.80
15.26
18.91
22.28
24.74
25.72
25.02
22.92
20.10
17.30
14.96
13.02
11.06
8.54
5.16
1.04
-3.45
-7.83
-11.83
-15.43
-18.81
-22.13
-25.41
-28.50
-31.29
-33.92
-36.79
-40.32
-44.51
-48.62
-51.07
-50.09
-44.32
-33.66
-19.32
-3.55
11.19
23.07
31.27
35.98
37.93
37.81
35.97
32.52
27.56
21.55
15.43
10.42
7.58
7.37
9.40
12.58
15.54
17.26
17.34
16.08
14.12
11.98
9.82
7.37
4.22
0.18
-4.54
-9.42
-13.85
-17.44
-20.23
-22.56
-24.92
-27.60
-30.67
-34.03
-37.62
-41.50
-45.82
-50.47
-54.86
-57.78
-57.82
-53.89
-45.77
-34.38
-21.42
-8.81
1.97
10.19
15.83
19.11
20.24
19.26
16.22
11.55
6.21
1.59
-0.89
-0.38
3.03
8.33
13.92
18.29
20.49
20.45
18.89
16.75
14.84
13.33
11.75
9.33
5.41
-0.18
-6.98
-14.34
-21.53
-28.17
-34.13
-39.35
-43.68
-46.99
-49.42
-51.61
-54.55
-58.91
-64.41
-69.39
-71.31
-67.72
-57.29
-40.60
-19.81
2.07
22.28
38.85
50.87
58.10
60.83
59.30
54.08
46.14
36.97
28.49
22.51
20.19
21.73
25.89
30.78
34.39
35.52
34.14
31.33
28.38
26.13
24.32
21.92
17.89
11.90
4.74
-2.04
-7.01
-9.66
-10.73
-11.74
-14.06
-18.02
-22.77
-26.85
-29.27
-29.99
-30.32
-31.82
-35.26
-39.86
-43.36
-42.90
-36.31
-23.06
-4.56
16.35
36.49
53.24
65.10
71.72
73.52
71.37
66.04
58.29
48.93
38.95
29.57
22.09
17.50
16.21
17.81
21.20
24.92
27.71
28.85
28.33
26.65
24.53
22.51
20.74
18.98
16.81
13.87
10.06
5.57
0.82
-3.74
-7.86
-11.63
-15.41
-19.63
-24.63
-30.43
-36.79
-43.35
-49.79
-55.87
-61.24
-65.23
-66.78
-64.68
-57.99
-46.64
-31.64
-14.87
1.47
15.51
26.19
33.20
36.78
37.37
35.39
31.32
25.85
19.94
14.66
10.97
9.44
10.04
12.19
15.06
17.67
19.30
19.58
18.52
16.45
13.83
11.01
8.02
4.62
0.43
-4.70
-10.57
-16.62
-22.17
-26.75
-30.29
-33.13
-35.82
-38.89
-42.71
-47.38
-52.80
-58.57
-64.01
-68.06
-69.44
-66.94
-59.81
-48.06
-32.65
-15.30
1.93
17.14
28.99
36.84
40.73
41.14
38.83
34.62
29.38
24.06
19.60
16.80
16.16
17.73
21.01
25.09
28.86
31.29
31.84
30.51
27.79
24.36
20.68
16.80
12.41
7.18
1.07
-5.45
-11.59
-16.54
-19.93
-21.98
-23.37
-25.07
-27.97
-32.64
-39.17
-46.98
-54.90
-61.19
-64.02
-61.98
-54.46
-41.98
-25.99
-8.46
8.46
22.99
34.02
41.08
44.35
44.44
42.19
38.48
33.97
29.23
24.81
21.30
19.29
19.24
21.17
24.57
28.39
31.44
32.85
32.33
30.29
27.54
24.79
22.37
19.93
16.81
12.48
6.88
0.57
-5.52
-10.56
-14.11
-16.41
-18.13
-20.04
-22.67
-26.20
-30.61
-35.81
-41.68
-47.93
-53.92
-58.48
-60.09
-57.38
-49.56
-36.86
-20.52
-2.53
14.90
29.85
41.10
48.17
51.17
50.62
47.30
42.14
36.17
30.46
25.99
23.41
22.92
24.24
26.79
29.88
32.98
35.73
37.88
39.20
39.42
38.32
35.84
32.22
27.90
23.39
19.11
15.21
11.56
7.89
3.93
-0.46
-5.25
-10.24
-15.16
-19.76
-23.97
-27.88
-31.66
-35.62
-40.14
-45.57
-51.95
-58.82
-65.04
-68.85
-68.34
-62.12
-49.98
-33.12
-13.90
4.93
21.00
32.91
40.34
43.72
43.83
41.38
37.04
31.51
25.56
20.14
16.21
14.47
15.13
17.84
21.74
25.83
29.11
30.93
31.11
29.81
27.43
24.37
20.89
17.13
13.08
8.71
4.11
-0.61
-5.28
-9.85
-14.32
-18.69
-22.99
-27.14
-31.01
-34.49
-37.64
-40.77
-44.35
-48.77
-54.08
-59.59
-63.86
-65.01
-61.43
-52.31
-38.29
-21.22
-3.57
12.39
25.25
34.61
40.70
43.88
44.31
42.02
37.29
30.90
24.18
18.62
15.38
14.88
16.69
19.88
23.44
26.58
28.95
30.50
31.24
31.11
29.94
27.60
24.10
19.74
15.06
10.60
6.62
3.01
-0.63
-4.72
-9.39
-14.35
-19.07
-23.03
-26.15
-28.88
-32.05
-36.41
-42.26
-49.03
-55.40
-59.57
-59.84
-55.15
-45.41
-31.59
-15.37
1.20
16.34
28.73
37.69
43.02
44.83
43.44
39.36
33.43
26.84
20.89
16.71
14.95
15.57
17.97
21.23
24.56
27.43
29.64
31.12
31.75
31.31
29.55
26.45
22.32
17.77
13.37
9.46
5.96
2.49
-1.34
-5.66
-10.19
-14.39
-17.81
-20.34
-22.34
-24.49
-27.45
-31.57
-36.74
-42.42
-47.68
-51.39
-52.37
-49.65
-42.72
-31.73
-17.59
-1.86
13.65
27.20
37.53
43.96
46.42
45.35
41.62
36.27
30.43
25.08
20.97
18.55
18.07
19.50
22.45
26.12
29.37
31.13
30.81
28.56
25.24
21.86
19.19
17.30
15.76
13.91
11.34
7.95
4.00
-0.26
-4.62
-9.11
