1552659833.00
64.000000
-0.00
-0.00
-0.00
-0.00
-0.00
-0.00
-0.00
-0.00
-0.00
-0.00
0.00
0.01
0.01
-0.00
-0.03
-0.05
-0.05
0.00
0.13
0.36
0.66
1.01
1.37
1.72
2.06
2.40
2.79
3.24
3.80
4.42
5.06
5.66
6.20
6.68
7.15
7.68
8.31
9.14
10.09
11.04
11.88
12.56
13.14
13.76
14.65
15.96
17.91
20.32
22.90
25.38
27.58
29.57
31.68
34.32
37.81
42.54
48.15
54.10
59.83
64.97
69.58
74.14
79.34
85.71
93.76
103.00
112.62
121.73
129.77
136.75
143.30
150.75
157.77
166.64
177.95
191.79
206.97
220.57
228.25
225.36
208.53
176.87
132.76
80.05
23.07
-34.94
-92.44
-149.16
-205.23
-260.37
-313.74
-363.87
-409.83
-450.91
-486.50
-515.74
-537.23
-549.22
-549.96
-538.37
-514.21
-478.67
-433.88
-382.45
-327.02
-269.84
-212.63
-156.66
-102.95
-52.37
-5.90
35.58
71.43
101.35
125.50
144.38
158.69
169.15
176.37
180.75
182.57
182.07
179.51
175.23
169.65
163.18
156.15
148.81
141.30
133.69
126.02
118.33
110.69
103.16
95.80
88.68
81.83
75.25
68.95
62.95
57.25
51.86
46.78
42.03
37.59
33.45
29.61
26.07
22.81
19.83
17.11
14.67
12.48
10.54
8.83
7.35
6.07
4.97
4.05
3.27
2.62
2.09
1.65
1.30
1.01
0.79
0.61
0.47
0.37
0.28
0.22
0.18
0.15
0.13
0.12
0.13
0.14
0.15
0.17
0.20
0.24
0.27
0.31
0.35
0.40
0.44
0.49
0.54
0.59
0.65
0.70
0.76
0.83
0.90
0.98
1.07
1.16
1.27
1.39
1.52
1.67
1.83
2.02
2.23
2.46
2.70
2.99
3.29
3.63
4.00
4.41
4.85
5.33
5.84
6.39
6.99
7.62
8.31
9.03
9.80
10.62
11.48
12.39
13.33
14.34
15.41
16.55
17.74
18.99
20.26
21.52
22.70
23.72
24.46
24.81
24.64
23.86
22.39
20.22
17.35
13.89
9.92
5.64
1.26
-3.04
-7.05
-10.64
-13.64
-16.01
-17.70
-18.73
-19.12
-18.98
-18.39
-17.46
-16.29
-14.98
-13.60
-12.16
-10.63
-8.97
-7.18
-5.27
-3.30
-1.27
0.73
2.72
4.67
6.66
8.82
11.08
13.39
15.71
17.93
20.00
21.88
23.69
25.61
27.96
30.70
33.78
37.07
40.35
43.42
46.17
48.70
51.37
54.70
58.64
63.06
67.64
71.84
75.15
77.25
78.29
78.81
79.69
80.97
82.53
83.69
83.41
80.46
73.72
62.31
45.28
26.39
7.14
-11.77
-30.38
-49.25
-69.29
-91.52
-116.79
-145.36
-176.25
-207.46
-235.12
-254.54
-261.66
-254.74
-235.08
-206.72
-174.78
-143.68
-116.48
-94.11
-76.11
-61.82
-50.92
-43.40
-38.95
-36.63
-34.79
-31.97
-27.12
-20.07
-11.61
-3.02
4.45
10.09
13.91
16.56
18.67
20.63
22.42
23.56
23.43
21.51
17.78
12.70
7.04
1.74
-2.34
-4.50
-4.31
-1.64
3.40
10.45
18.86
27.84
36.42
43.69
48.87
51.51
51.52
49.25
45.26
40.29
34.99
29.92
25.51
22.04
19.65
18.29
17.71
17.49
17.17
16.40
15.09
13.36
11.44
9.52
7.54
5.26
2.26
-1.80
-6.96
-12.89
-18.82
-23.67
-26.37
-26.17
-22.83
-16.76
-8.83
-0.12
8.39
16.02
22.41
27.38
30.74
32.33
31.99
29.82
26.24
22.00
17.91
14.57
12.17
10.49
9.08
7.56
5.83
4.03
2.36
0.99
-0.17
-1.33
-2.72
-4.45
-6.52
-8.93
-11.64
-14.66
-17.78
-20.56
-22.23
-21.99
-19.24
-13.97
-6.78
1.30
9.17
16.03
21.44
25.31
27.71
28.68
28.23
26.39
23.39
19.74
16.05
13.00
11.01
10.09
9.84
9.68
9.15
8.10
6.69
5.28
4.16
3.21
2.07
0.22
-2.67
-6.59
-11.15
-15.75
-19.79
-22.90
-24.79
-25.22
-23.88
-20.40
-14.63
-6.82
2.25
11.21
18.64
23.42
25.09
23.95
20.77
16.44
11.65
6.81
2.13
-2.16
-5.73
-8.25
-9.57
-9.83
-9.41
-8.87
-8.60
-8.75
-9.22
-9.76
-10.21
-10.59
-11.04
-11.88
-13.38
-15.64
-18.44
-21.24
-23.29
-23.80
-22.16
-18.21
-12.24
-4.95
2.69
9.74
15.42
19.20
20.88
20.48
18.28
14.74
10.45
6.06
2.24
-0.56
-2.08
-2.44
-2.01
-1.30
-0.77
-0.68
-1.03
-1.67
-2.32
-2.85
-3.22
-3.58
-4.23
-5.47
-7.56
-10.51
-14.02
-17.42
-19.85
-20.42
-18.57
-14.21
-7.74
0.02
8.13
15.67
21.92
26.35
28.64
28.65
26.50
22.50
17.26
11.60
6.38
2.26
-0.42
-1.74
-2.13
-2.17
-2.23
-2.47
-2.77
-2.88
-2.73
-2.39
-2.11
-2.19
-2.81
-4.01
-5.81
-8.13
-10.85
-13.62
-15.84
-16.73
-15.51
-11.73
-5.53
2.37
10.80
18.48
24.30
27.59
28.10
26.09
22.17
17.17
11.95
7.32
3.84
1.79
1.15
1.71
3.08
4.75
6.20
7.00
6.94
5.96
4.22
1.92
-0.79
-3.82
-7.18
-10.82
-14.59
-18.15
-20.92
-22.12
-21.07
-17.32
-10.91
-2.40
7.15
16.53
24.60
30.50
33.77
34.31
32.25
27.97
22.07
15.36
8.75
3.08
-1.03
-3.45
-4.45
-4.63
-4.61
-4.88
-5.59
-6.58
-7.59
-8.46
-9.32
-10.55
-12.67
-16.00
-20.53
-25.79
-30.96
-35.10
-37.33
-37.06
-34.08
-28.59
-21.12
-12.49
-3.63
4.53
11.19
15.84
18.27
18.55
17.05
14.36
11.15
8.09
5.70
4.21
3.60
3.63
4.05
4.58
5.07
5.41
5.56
5.39
4.76
3.52
1.56
-1.18
-4.70
-8.91
-13.53
-18.07
-21.77
-23.76
-23.20
-19.65
-13.23
-4.61
5.03
14.40
22.36
28.08
31.22
31.76
29.97
26.29
21.29
15.66
10.13
5.34
1.72
-0.61
-1.87
-2.55
-3.20
-4.20
-5.65
-7.41
-9.19
-10.73
-11.95
-13.02
-14.19
-15.73
-17.77
-20.23
-22.79
-24.91
-26.01
-25.45
-22.78
-17.82
-10.70
-1.99
7.53
16.84
24.93
30.91
34.10
34.29
31.70
27.05
21.33
15.59
10.60
6.73
4.03
2.32
1.28
0.67
0.25
-0.20
-0.89
-1.91
-3.22
-4.68
-6.07
-7.33
-8.66
-10.44
-13.13
-16.94
-21.62
-26.38
-30.08
-31.58
-30.14
-25.61
-18.45
-9.58
-0.04
9.19
17.34
23.82
28.21
30.25
29.99
27.80
24.37
20.64
17.45
15.36
14.43
14.25
14.26
13.89
12.92
11.38
9.56
7.72
6.02
4.47
3.02
1.58
0.06
-1.72
-4.01
-7.07
-10.96
-15.44
-19.82
-23.21
-24.67
-23.62
-20.00
-14.22
-7.06
0.58
7.84
14.02
18.57
21.21
21.80
20.51
17.69
13.86
9.60
5.49
1.97
-0.67
-2.38
-3.25
-3.55
-3.61
-3.75
-4.15
-4.92
-5.95
-7.05
-8.04
-8.75
-9.15
-9.41
-9.88
-10.95
-12.92
-15.79
-19.19
-22.35
-24.29
-24.15
-21.40
-16.10
-8.84
-0.58
7.63
14.90
20.61
24.41
26.19
25.96
23.92
20.44
16.11
11.69
7.90
5.31
4.11
4.14
4.88
5.73
6.17
5.93
5.04
3.81
2.57
1.52
0.60
-0.45
-2.04
-4.45
-7.77
-11.79
-16.07
-19.98
-22.78
-23.74
-22.24
-18.01
-11.17
-2.43
7.20
16.53
24.53
30.46
33.95
34.92
33.51
30.07
25.17
19.58
14.12
9.52
6.15
4.02
2.77
1.88
0.92
-0.32
-1.79
-3.32
-4.68
-5.84
-7.00
-8.49
-10.67
-13.81
-17.93
-22.76
-27.76
-32.21
-35.32
-36.42
-35.03
-31.03
-24.64
-16.36
-6.91
2.83
11.95
19.61
25.07
27.88
27.97
25.73
21.88
17.26
12.68
8.73
5.73
3.83
3.01
3.10
3.71
4.31
4.33
3.39
1.51
-0.95
-3.42
-5.49
-7.08
-8.57
-10.57
-13.57
-17.64
-22.31
-26.67
-29.65
-30.30
-28.19
-23.49
-16.79
-9.02
-1.07
6.36
12.74
17.69
20.76
21.61
20.14
16.76
12.41
8.37
5.73
4.98
5.80
7.31
8.49
8.73
8.04
6.91
5.94
5.49
5.46
5.35
4.73
3.34
1.30
-1.15
-3.82
-6.69
-9.81
-13.12
-16.17
-18.17
-18.17
-15.50
-10.07
-2.42
6.34
14.88
22.04
27.07
29.65
29.87
28.09
24.82
20.55
15.83
11.17
7.01
3.71
1.49
0.35
0.09
0.38
0.90
1.30
1.39
1.10
0.38
-0.75
-2.32
-4.39
-7.04
-10.30
-14.10
-18.26
-22.40
-25.95
-28.21
-28.45
-26.12
-21.11
-13.84
-5.29
3.34
10.91
16.61
20.07
21.25
20.31
17.45
12.94
7.29
1.22
-4.33
-8.54
-10.92
-11.53
-10.98
-10.03
-9.30
-9.06
-9.13
-9.15
-8.78
-8.00
-7.05
-6.38
-6.51
-7.74
-10.11
-13.43
-17.21
-20.76
-23.30
-24.12
-22.69
-18.83
-12.74
-5.08
3.23
11.14
17.72
22.27
24.52
24.51
22.64
19.44
15.56
11.57
7.98
5.16
3.37
2.70
3.06
4.17
5.54
6.67
7.15
6.76
5.56
3.81
1.86
-0.03
-1.82
-3.72
-6.09
-9.27
-13.29
-17.76
-21.79
-24.34
-24.49
-21.74
-16.28
-8.83
-0.40
7.99
15.52
21.65
26.09
28.63
29.21
27.87
24.87
20.75
16.24
12.14
9.09
7.36
6.80
6.88
6.98
6.55
5.40
3.69
1.81
0.08
-1.39
-2.83
-4.58
-6.99
-10.16
-13.99
-18.16
-22.17
-25.45
-27.32
-27.10
-24.33
-18.87
-11.13
-2.01
7.32
15.64
21.97
25.78
26.96
25.77
22.69
18.32
13.31
8.33
3.95
0.67
-1.32
-2.10
-2.08
-1.78
-1.65
-1.93
-2.59
-3.42
-4.30
-5.19
-6.25
-7.68
-9.70
-12.42
-15.82
-19.72
-23.68
-26.95
-28.58
-27.69
-23.78
-17.02
-8.35
0.89
9.34
16.05
20.63
23.17
23.95
23.25
21.21
18.03
14.09
10.06
6.67
4.53
3.79
4.08
4.68
4.93
4.45
3.33
1.95
0.79
-0.00
-0.63
-1.53
-3.22
-6.01
-9.85
-14.44
-19.26
-23.75
-27.37
-29.51
-29.65
-27.44
-22.84
-16.27
-8.49
-0.50
6.87
13.07
17.83
21.12
22.96
23.36
22.38
20.33
17.66
15.00
12.91
11.60
10.99
10.66
10.17
9.17
7.52
5.33
2.83
0.29
-2.12
-4.39
-6.59
-8.91
-11.60
-14.82
-18.63
-22.81
-26.96
-30.39
-32.30
-31.97
-28.90
-23.02
-14.84
-5.30
4.35
12.89
19.36
23.31
24.78
24.22
22.27
19.56
16.51
13.46
10.58
8.12
6.34
5.46
5.48
6.24
7.26
8.01
8.05
7.31
6.00
4.56
3.37
2.56
1.88
0.86
-1.05
-4.18
-8.51
-13.57
-18.56
-22.48
-24.43
-23.78
-20.41
-14.70
-7.46
0.34
7.81
14.25
19.22
22.47
23.87
23.47
21.40
18.06
14.01
9.91
6.39
3.88
2.51
2.14
2.36
2.68
2.71
2.21
1.16
-0.30
-1.93
-3.56
-5.12
-6.65
-8.26
-10.12
-12.41
-15.26
-18.70
-22.59
-26.54
-29.96
-32.02
-31.93
-29.08
-23.38
-15.36
-6.11
2.98
10.62
16.04
19.04
19.95
19.34
17.71
15.41
12.64
9.65
6.82
4.63
3.49
3.55
4.63
6.17
7.54
8.22
7.97
6.92
5.40
3.79
2.28
0.87
-0.66
-2.62
-5.25
-8.67
-12.81
-17.40
-21.99
-26.00
-28.75
-29.58
-27.96
-23.63
-16.80
-8.09
1.52
10.89
19.00
25.13
28.94
30.48
30.02
27.96
24.74
20.84
16.76
13.06
10.21
8.55
8.04
8.41
9.10
9.52
9.24
8.08
6.18
3.90
1.67
-0.17
-1.57
-2.75
-4.17
-6.28
-9.29
-13.02
-16.85
-19.90
-21.31
-20.45
-17.17
-11.77
-4.94
2.43
9.47
15.44
19.84
22.42
23.12
22.06
19.51
15.97
12.05
8.43
5.65
3.97
3.29
3.27
3.41
3.40
3.04
2.36
1.44
0.36
-0.81
-2.04
-3.27
-4.45
-5.71
-7.33
-9.74
-13.22
-17.71
-22.56
-26.73
-29.06
-28.79
-25.76
-20.45
-13.70
-6.39
0.79
7.33
12.81
16.69
18.51
18.02
15.43
11.42
7.00
3.12
0.40
-1.14
-1.81
-2.04
-2.14
-2.13
-1.89
-1.36
-0.61
-0.05
-0.04
-0.87
-2.52
-4.75
-7.24
-9.85
-12.68
-15.96
-19.76
-23.72
-26.97
-28.35
-26.88
-22.16
-14.54
-5.09
4.80
13.87
21.25
26.45
29.34
29.93
28.42
25.10
20.49
15.29
10.24
5.97
2.86
0.95
0.09
-0.08
0.13
0.46
0.82
1.14
1.39
1.41
0.96
-0.25
-2.42
-5.59
-9.64
-14.29
-19.13
-23.67
-27.26
-29.15
-28.63
-25.24
-18.96
-10.34
-0.38
9.69
18.74
25.85
30.56
32.66
32.26
29.69
25.45
20.21
14.71
9.69
5.72
3.13
1.95
1.86
2.31
2.68
2.47
1.46
-0.24
-2.33
-4.41
-6.32
-8.10
-10.07
-12.59
-15.89
-19.91
-24.18
-27.97
-30.38
-30.61
-28.22
-23.16
-15.93
-7.37
1.45
9.48
15.87
20.03
21.67
20.90
18.04
13.63
8.42
3.09
-1.66
-5.37
-7.81
-8.91
-8.90
-8.09
-6.94
-5.87
-5.26
-5.37
-6.36
-8.23
-10.86
-14.05
-17.53
-20.99
-24.17
-26.76
-28.46
-28.86
-27.55
-24.13
-18.46
-10.79
-1.76
7.77
16.81
24.61
30.67
34.73
36.61
36.19
33.46
28.67
22.40
15.59
9.26
4.20
0.78
-1.17
-2.05
-2.28
-2.14
-1.70
-0.94
0.02
0.90
1.35
1.04
-0.22
-2.38
-5.20
-8.42
-11.70
-14.67
-16.87
-17.80
-16.96
-14.07
-9.21
-2.85
4.18
10.94
16.60
20.65
22.96
23.65
23.03
21.49
19.40
17.18
15.22
13.84
13.21
13.28
13.77
14.33
14.61
14.33
13.38
11.76
9.62
7.12
4.43
1.59
-1.51
-5.07
-9.17
-13.64
-17.92
-21.12
-22.29
-20.74
-16.40
-9.76
-1.86
6.03
12.82
17.79
20.64
21.45
20.53
18.26
15.00
11.11
6.92
2.76
-1.08
-4.34
-6.83
-8.43
-9.15
-9.15
-8.73
-8.34
-8.41
-9.30
-11.21
-14.12
-17.71
-21.47
-24.64
-26.33
-25.65
-21.99
-15.29
-6.05
4.65
15.54
25.52
33.92
40.43
44.89
46.99
46.19
41.91
33.99
23.07
10.71
-1.12
-10.65
-16.97
-20.09
-20.77
-19.89
-18.04
-15.46
-12.19
-8.40
-4.60
-1.50
0.35
0.83
0.31
-0.47
-0.90
-0.65
0.26
1.74
3.92
7.34
12.80
21.03
32.04
44.91
57.74
68.14
73.84
73.42
66.55
54.16
37.98
20.31
3.43
-10.77
-21.06
-26.93
-28.60
-26.87
-23.09
-18.85
-15.73
-14.87
-16.63
-20.44
-25.08
-29.24
-32.31
-34.53
-36.86
-40.19
-44.77
-49.75
-53.62
-54.88
-52.95
-48.27
-42.00
-35.43
-29.31
-23.69
-18.29
-12.91
-7.89
-3.94
-1.84
-1.80
-3.34
-5.43
-6.92
-7.10
-5.97
-4.12
-2.35
-1.25
-0.93
-1.07
-1.16
-0.76
0.16
1.19
1.66
0.92
-1.41
-5.32
-10.21
-15.15
-19.13
-21.33
-21.37
-19.33
-15.69
-11.11
-6.23
-1.56
2.51
5.77
7.99
9.03
8.84
7.48
5.22
2.47
-0.22
-2.39
-3.70
-4.15
-3.93
-3.38
-2.83
-2.32
-1.76
-0.93
0.18
1.39
2.26
2.36
1.41
-0.60
-3.42
-6.70
-10.09
-13.24
-15.82
-17.44
-17.73
-16.42
-13.49
-9.30
-4.49
0.18
3.96
6.51
7.86
8.33
8.34
8.22
8.08
7.88
7.56
7.14
6.63
6.07
5.29
4.06
2.07
-0.78
-4.31
-8.09
-11.67
-14.67
-17.10
-19.22
-21.44
-24.08
-27.06
-29.86
-31.63
-31.52
-28.96
-24.00
-17.27
-9.75
-2.48
3.70
8.32
11.28
12.66
12.69
11.67
9.91
7.79
5.69
3.86
2.53
1.73
1.42
1.46
1.60
1.69
1.59
1.31
0.93
0.51
-0.06
-1.03
-2.82
-5.75
-9.72
-14.15
-17.98
-20.08
-19.58
-16.19
-10.33
-2.82
5.32
13.30
20.56
26.82
31.87
35.58
37.81
38.60
38.19
37.05
35.71
34.60
33.88
33.47
33.13
32.61
31.81
30.75
29.57
28.29
26.79
24.86
22.20
18.66
14.23
9.13
3.76
-1.49
-6.14
-9.69
-11.74
-11.99
-10.34
-7.04
-2.65
2.04
6.14
8.98
10.13
9.67
7.96
5.56
2.99
0.61
-1.46
-3.27
-4.88
-6.27
-7.43
-8.30
-8.92
-9.40
-9.86
-10.33
-10.74
-11.02
-11.16
-11.27
-11.49
-12.01
-12.91
-14.12
-15.45
-16.55
-16.95
-16.16
-13.79
-9.84
-4.77
0.51
4.96
7.78
8.75
8.21
6.96
5.72
4.90
4.43
3.94
3.05
1.60
-0.21
-1.98
-3.29
-3.89
-3.82
-3.27
-2.47
-1.54
-0.48
0.69
1.79
2.41
2.01
0.17
-3.15
-7.49
-11.97
-15.52
-17.28
-16.78
-14.07
-9.63
-4.14
1.76
7.54
12.93
17.83
22.28
26.24
29.62
32.13
33.41
33.09
31.04
27.40
22.57
17.13
11.61
6.43
1.82
-2.13
-5.36
-7.93
-9.93
-11.67
-13.49
-15.52
-17.28
-17.45
-14.13
-5.52
9.09
28.83
51.37
73.71
93.15
107.94
117.39
121.55
120.81
115.77
107.42
97.24
87.14
78.94
73.91
72.47
74.23
78.26
83.36
88.23
91.54
92.17
89.46
83.47
74.96
64.92
53.99
42.24
29.25
14.80
-0.46
-14.91
-26.52
-33.83
-36.66
-35.96
-33.15
-29.15
-24.04
-17.36
-8.92
0.51
9.40
15.99
19.31
19.38
17.00
13.03
7.84
1.35
-6.58
-15.53
-24.33
-31.25
-34.70
-33.95
-29.65
-23.73
-18.91
-17.78
-21.84
-30.89
-43.13
-55.63
-65.35
-69.94
-68.34
-60.89
-49.04
-34.79
-20.17
-6.75
4.71
14.43
23.41
32.96
44.10
57.15
71.42
85.47
97.45
105.61
108.70
106.37
99.30
89.14
78.00
67.74
59.44
52.96
47.43
41.79
35.50
28.82
22.49
17.14
12.76
8.73
4.24
-1.04
-6.67
-11.55
-14.39
-14.26
-10.95
-4.85
3.24
12.40
21.78
30.64
38.42
44.52
48.25
48.80
45.52
38.25
27.79
16.09
5.76
-0.79
-2.20
1.24
8.03
16.19
24.34
32.08
39.88
48.30
57.41
66.53
74.63
80.82
84.91
87.33
88.85
90.13
91.40
92.69
94.10
95.98
99.04
103.97
111.00
119.57
128.24
135.10
138.31
136.83
130.71
121.09
109.62
97.85
86.78
76.72
67.53
59.01
51.19
44.24
38.41
33.67
29.60
25.56
20.94
15.40
9.08
2.44
-3.97
-9.77
-15.05
-20.33
-26.34
-33.67
-42.51
-52.49
-62.86
-72.84
-82.10
-90.82
-99.83
-110.07
-122.33
-136.87
-153.80
-173.14
-195.25
-220.62
-249.31
-280.55
-312.43
-342.34
-368.00
-388.09
-402.59
-412.47
-418.79
-422.01
-421.86
-417.74
-409.77
-399.25
-388.55
-379.91
-374.04
-369.25
-362.15
-349.45
-329.80
-304.68
-277.57
-251.84
-229.05
-208.36
-187.47
-164.53
-139.70
-114.88
-92.50
-73.60
-56.93
-39.44
-18.52
5.91
30.09
47.57
51.85
39.48
11.98
-24.36
-61.13
-91.15
-111.16
-122.24
-128.28
-133.33
-139.75
-147.53
-155.37
-161.90
-166.73
-170.31
-173.24
-175.38
-175.69
-172.67
-165.02
-152.71
-137.32
-121.63
-108.86
-101.35
-99.85
-103.13
-108.38
-112.26
-112.07
-106.82
-97.37
-85.82
-75.12
-67.18
-62.40
-59.59
-56.70
-51.91
-44.35
-34.21
-22.36
-10.53
-0.27
7.03
10.54
10.28
7.24
3.28
0.45
0.68
3.92
9.80
17.75
27.50
39.01
51.78
64.32
74.05
79.71
78.74
72.49
64.68
59.95
62.01
72.00
88.24
107.18
127.96
145.72
160.72
175.15
191.85
213.13
240.03
272.15
307.87
348.71
385.81
413.01
423.21
410.57
373.37
316.14
249.55
187.40
147.82
132.22
141.15
170.05
212.81
264.77
323.52
387.07
415.04
441.45
448.35
425.77
370.60
289.56
197.80
113.41
50.54
14.40
5.90
8.23
10.35
6.47
-1.95
-8.35
-6.24
6.37
25.27
46.54
57.92
56.35
44.93
30.50
19.30
13.59
11.10
7.62
3.19
-4.05
-10.03
-10.44
-3.21
10.65
28.28
47.00
65.67
85.81
106.22
126.24
144.46
160.09
173.95
188.45
206.11
227.92
252.62
275.62
291.82
296.88
288.35
266.07
231.73
188.20
139.14
88.63
40.87
-0.53
-33.34
-57.05
-72.59
-81.37
-84.30
-82.08
-75.70
-67.10
-59.18
-54.67
-54.66
-57.83
-61.30
-62.58
-61.45
-60.47
-63.73
-74.33
-92.55
-115.29
-137.44
-154.82
-165.86
-171.99
-176.20
-180.88
-186.38
-191.13
-192.86
-190.83
-186.41
-182.67
-182.64
-187.51
-195.89
-204.89
-212.04
-217.11
-222.00
-228.94
-238.27
-247.49
-252.14
-248.28
-234.54
-212.97
-187.49
-161.65
-137.01
-113.20
-89.31
-65.59
-43.77
-26.54
-16.03
-12.64
-14.90
-20.21
-25.77
-29.47
-30.16
-27.92
-23.56
-17.95
-11.19
-2.24
10.61
28.36
49.96
71.71
88.48
96.23
94.41
86.57
78.76
76.42
81.56
91.94
102.70
109.32
110.06
106.55
102.27
100.00
99.99
99.77
95.52
84.36
65.93
42.68
18.83
-1.32
-15.04
-21.95
-23.72
-23.01
-22.08
-21.78
-21.46
-19.61
-15.16
-8.51
-1.65
2.78
2.89
-1.14
-6.92
-10.91
-10.14
-3.88
5.92
15.56
21.41
21.57
16.50
8.46
0.20
-6.49
-11.40
-15.65
-20.90
-28.39
-38.39
-50.05
-61.74
-71.72
-78.64
-81.77
-80.89
-75.92
-66.71
-53.15
-35.74
-16.05
3.46
20.15
32.16
39.19
42.45
43.96
45.63
48.63
53.12
58.42
63.15
65.72
64.91
60.50
53.91
47.72
44.31
44.24
45.31
43.46
34.97
18.96
-1.74
-21.97
-36.97
-44.71
-46.43
-45.07
-42.97
-40.35
-35.46
-26.28
-12.14
5.56
23.78
39.31
49.99
55.34
56.37
54.78
52.26
49.98
48.36
47.24
46.19
44.87
43.28
41.62
39.99
38.07
35.01
29.77
21.54
10.19
-3.50
-18.04
-31.54
-42.10
-48.28
-49.43
-45.82
-38.50
-28.88
-18.36
-7.96
1.80
10.62
18.22
24.22
28.27
30.17
29.93
27.70
23.66
18.07
11.41
4.53
-1.57
-6.03
-8.62
-9.95
-11.12
-13.26
-16.93
-21.89
-27.26
-31.74
-33.98
-32.84
-27.67
-18.63
-6.91
5.56
16.80
25.67
32.30
37.92
43.94
51.07
58.96
66.57
72.90
77.69
81.25
83.77
84.67
82.26
74.33
59.16
36.65
9.07
-19.26
-43.16
-58.32
-62.83
-57.78
-46.65
-33.80
-22.86
-15.74
-12.61
-12.63
-14.64
-17.47
-19.93
-20.63
-18.19
-11.92
-2.35
8.66
18.54
25.14
27.69
27.14
25.64
25.58
28.55
34.79
43.25
52.30
60.44
66.81
71.24
73.94
75.09
74.60
72.28
68.13
62.60
56.61
51.21
47.06
44.20
41.98
39.37
35.59
30.46
24.62
19.18
15.21
13.06
12.10
10.97
8.28
3.24
-3.95
-12.36
-20.81
-28.54
-35.38
-41.58
-47.35
-52.62
-56.86
-59.47
-60.05
-58.57
-55.35
-50.92
-45.79
-40.58
-36.06
-33.15
-32.72
-35.14
-39.88
-45.40
-49.34
-49.21
-43.30
-31.55
-15.91
0.06
12.20
17.02
12.98
0.86
-16.35
-34.44
-49.08
-56.93
-56.33
-47.63
-32.80
-14.89
2.85
17.69
27.82
32.35
30.99
23.78
11.21
-5.53
-24.25
-42.13
-56.48
-65.77
-70.09
-70.87
-69.77
-67.80
-64.93
-60.70
-55.18
-49.28
-44.38
-41.21
-39.05
-35.90
-29.78
-19.99
-7.60
5.39
17.54
28.87
40.66
53.92
68.17
81.22
90.26
93.52
91.31
85.63
78.69
71.55
63.61
53.44
39.97
23.55
5.91
-10.50
-23.30
-30.67
-31.36
-24.71
-10.83
8.96
32.10
55.06
74.17
86.69
91.50
89.27
82.10
72.72
63.57
56.22
51.05
47.42
44.20
40.31
35.19
28.79
21.40
13.26
4.43
-4.92
-14.13
-21.85
-26.35
-26.30
-21.76
-14.39
-7.08
-2.51
-1.98
-4.80
-8.81
-11.65
-11.91
-9.51
-5.30
-0.10
6.00
13.53
23.04
34.30
46.18
57.13
66.01
72.54
77.18
80.45
82.33
82.07
78.76
72.05
62.64
52.16
42.47
34.81
29.25
24.78
20.10
14.37
7.79
1.40
-3.56
-6.48
-7.71
-8.47
-10.24
-14.05
-20.07
-27.80
-36.40
-45.17
-53.66
-61.52
-68.27
-73.26
-75.74
-75.33
-72.09
-66.68
-59.99
-52.89
-46.01
-39.67
-34.06
-29.38
-25.88
-24.00
-23.99
-25.78
-28.83
-32.19
-34.68
-35.33
-33.71
-30.21
-25.85
-21.71
-18.52
-16.27
-14.39
-12.18
-9.33
-6.34
-4.17
-3.78
-5.55
-9.03
-13.14
-16.68
-18.81
-19.50
-19.12
-18.06
-16.35
-13.56
-9.08
-2.75
4.99
12.70
18.73
21.77
21.49
18.61
14.51
10.53
7.42
4.95
2.30
-1.40
-6.50
-12.62
-18.86
-24.19
-27.95
-30.24
-31.69
-33.00
-34.30
-34.92
-33.65
-29.54
-22.67
-14.78
-8.66
-7.01
-10.85
-18.81
-27.47
-33.02
-33.08
-27.93
-20.20
-13.23
-9.26
-8.28
-8.31
-6.87
-2.48
4.37
11.58
16.62
17.85
15.23
9.97
3.65
-2.66
-8.85
-15.56
-23.46
-32.70
-42.62
-52.20
-60.62
-67.87
-74.73
-82.14
-90.28
-98.00
-102.99
-102.73
-95.72
-82.31
-64.57
-45.51
-27.85
-13.41
-3.09
2.76
4.01
1.00
-5.17
-12.41
-18.31
-21.33
-21.77
-22.04
-25.53
-34.59
-48.73
-64.15
-74.89
-75.28
-62.34
-37.18
-4.50
29.31
58.45
79.44
91.40
95.23
92.34
83.66
69.75
51.38
30.26
9.00
-9.47
-23.10
-31.29
-35.00
-35.98
-35.68
-34.76
-32.85
-29.24
-23.50
-15.76
-6.67
2.94
12.30
20.85
28.13
33.69
37.13
38.27
37.14
34.00
29.41
24.23
19.78
17.77
19.80
26.67
37.71
50.75
62.77
71.01
73.95
71.70
65.47
56.87
47.07
36.73
26.24
16.09
6.88
-0.85
-6.96
-11.71
-15.51
-18.54
-20.63
-21.41
-20.67
-18.63
-15.89
-13.04
-10.36
-7.80
-5.18
-2.61
-0.65
-0.05
-1.27
-3.95
-6.83
-8.20
-6.64
-1.69
6.02
15.02
23.71
30.88
36.08
39.40
41.32
42.39
43.14
43.98
45.09
46.22
46.54
44.75
39.55
30.34
17.74
3.63
-9.36
-18.89
-23.58
-23.38
-19.08
-11.88
-2.94
6.66
15.62
22.44
25.81
25.19
21.24
15.66
10.47
7.11
5.88
6.03
6.39
6.09
4.96
3.39
1.87
0.62
-0.54
-2.04
-4.24
-7.25
-10.83
-14.58
-18.18
-21.48
-24.57
-27.62
-30.56
-32.99
-34.11
-33.04
-29.23
-22.77
-14.49
-5.68
2.33
8.65
13.00
15.61
16.84
16.99
16.17
14.45
12.08
9.58
7.61
6.65
6.71
7.35
7.81
7.43
5.96
3.66
1.13
-1.07
-2.74
-4.13
-5.76
-8.28
-12.07
-17.09
-22.93
-28.77
-33.63
-36.58
-36.92
-34.27
-28.72
-20.83
-11.62
-2.39
5.60
11.41
14.66
15.60
14.93
13.40
11.47
9.25
6.72
3.92
1.28
-0.58
-1.19
-0.56
0.61
1.26
0.50
-1.97
-5.69
-9.74
-13.32
-16.08
-18.54
-21.56
-25.83
-31.30
-36.94
-41.07
-42.05
-38.98
-32.37
-23.67
-14.68
-6.68
0.08
6.23
12.53
19.24
25.52
29.99
31.52
29.98
26.54
23.14
21.47
22.12
24.15
25.81
25.48
22.61
17.99
13.26
9.99
8.87
9.34
10.06
9.67
7.46
3.56
-1.33
-6.35
-10.88
-14.65
-17.50
-19.15
-19.18
-17.12
-12.82
-6.58
0.89
8.51
15.28
20.40
23.50
24.59
24.06
22.51
20.64
19.01
17.98
17.64
17.83
18.25
18.57
18.49
17.82
16.53
14.74
12.61
10.33
8.03
5.71
3.32
0.72
-2.24
-5.70
-9.69
-14.07
-18.45
-22.09
-24.12
-23.70
-20.38
-14.35
-6.43
2.14
10.12
16.61
21.25
24.12
25.57
25.94
25.39
23.97
21.79
19.11
16.40
14.25
13.09
12.96
13.49
14.03
13.95
12.91
11.02
8.73
6.53
4.71
3.22
1.74
-0.21
-3.00
-6.79
-11.43
-16.50
-21.35
-25.15
-27.06
-26.43
-22.94
-16.81
-8.74
0.21
8.89
16.31
21.88
25.43
27.10
27.24
26.23
24.45
22.19
19.79
17.55
15.70
14.37
13.48
12.77
11.89
10.56
8.67
6.31
3.77
1.34
-0.80
-2.63
-4.37
-6.33
-8.84
-12.12
-16.21
-20.85
-25.46
-29.22
-31.27
-30.93
-27.97
-22.65
-15.68
-7.98
-0.49
6.08
11.26
14.82
16.72
17.06
16.08
14.14
11.70
9.25
7.27
6.09
5.77
6.05
6.45
6.42
5.60
4.08
2.22
0.57
-0.54
-1.18
-1.77
-2.85
-4.78
-7.59
-11.21
-15.44
-20.06
-24.66
-28.55
-30.74
-30.28
-26.66
-20.21
-11.97
-3.28
4.68
11.28
16.39
20.13
22.48
23.20
22.04
19.00
14.61
9.84
5.84
3.39
2.69
3.12
3.70
3.49
2.12
-0.12
-2.46
-4.13
-4.80
-4.85
-5.14
-6.54
-9.49
-13.74
-18.55
-23.01
-26.37
-28.24
-28.53
-27.23
-24.32
-19.79
-13.77
-6.67
0.84
7.88
13.57
17.33
18.91
18.46
16.46
13.56
10.46
7.71
5.63
4.24
3.35
2.67
2.03
1.37
0.80
0.41
0.18
-0.02
-0.48
-1.41
-2.95
-5.06
-7.64
-10.53
-13.68
-16.97
-20.18
-22.88
-24.47
-24.31
-21.92
-17.29
-10.87
-3.53
3.74
10.06
14.85
17.91
19.29
19.18
17.81
15.49
12.55
9.40
6.48
4.14
2.57
1.71
1.31
1.01
0.52
-0.34
-1.48
-2.75
-3.95
-4.96
-5.83
-6.76
-8.03
-9.87
-12.37
-15.28
-18.06
-19.98
-20.35
-18.74
-15.17
-10.06
-4.10
1.98
7.58
12.25
15.70
17.68
18.02
16.71
14.04
10.63
7.32
4.89
3.79
4.02
5.08
6.30
7.11
7.23
6.80
6.12
5.46
4.84
3.99
2.58
0.33
-2.76
-6.41
-10.17
-13.56
-16.18
-17.76
-18.12
-17.09
-14.55
-10.52
-5.30
0.54
6.19
10.82
13.80
14.94
14.40
12.69
10.42
8.13
6.16
4.62
3.51
2.70
2.07
1.48
0.87
0.16
-0.68
-1.62
-2.65
-3.71
-4.79
-5.89
-7.07
-8.41
-10.06
-12.10
-14.46
-16.84
-18.70
-19.34
-18.13
-14.79
-9.60
-3.35
2.92
8.30
12.21
14.52
15.42
15.17
13.97
12.00
9.52
6.96
4.82
3.57
3.29
3.70
4.24
4.35
3.75
2.54
1.05
-0.26
-1.19
-1.77
-2.30
-3.19
-4.81
-7.32
-10.59
-14.09
-17.12
-18.87
-18.78
-16.65
-12.75
-7.64
-2.05
3.39
8.15
11.87
14.19
14.83
13.67
10.91
7.13
3.18
-0.11
-2.22
-3.17
-3.37
-3.41
-3.78
-4.60
-5.69
-6.71
-7.44
-7.89
-8.33
-9.11
-10.51
-12.60
-15.22
-18.07
-20.71
-22.68
-23.52
-22.84
-20.41
-16.23
-10.62
-4.25
2.02
7.31
10.93
12.58
12.38
10.80
8.44
5.88
3.48
1.39
-0.38
-1.84
-3.00
-3.73
-3.99
-3.85
-3.52
-3.35
-3.63
-4.51
-5.89
-7.49
-9.11
-10.62
-12.08
-13.65
-15.28
-16.62
-17.06
-15.94
-13.03
-8.63
-3.52
1.34
5.29
8.16
10.15
11.56
12.34
12.18
10.76
8.09
4.75
1.76
-0.03
-0.21
0.81
2.17
3.02
2.93
2.09
1.04
0.33
0.10
-0.18
-1.29
-3.85
-7.89
-12.62
-16.65
-18.65
-17.82
-14.47
-9.65
-4.64
-0.31
3.25
6.54
10.07
13.86
17.17
18.93
18.37
15.57
11.54
7.75
5.42
4.98
5.85
6.90
7.08
5.96
3.85
1.54
-0.25
-1.23
-1.72
-2.47
-4.17
-7.19
-11.37
-16.05
-20.34
-23.34
-24.40
-23.27
-20.06
-15.24
-9.47
-3.46
2.13
6.89
10.53
12.93
14.08
14.00
12.84
10.90
8.61
6.51
5.08
4.56
4.86
5.59
6.22
6.31
5.69
4.50
3.05
1.61
0.19
-1.43
-3.61
-6.60
-10.24
-13.89
-16.64
-17.55
-16.09
-12.26
-6.65
-0.22
6.06
11.46
15.55
18.22
19.53
19.57
18.53
16.68
14.39
12.13
10.31
9.15
8.63
8.48
8.33
7.88
6.98
5.72
4.27
2.83
1.47
0.06
-1.67
-4.10
-7.41
-11.50
-15.84
-19.59
-21.81
-21.81
-19.34
-14.72
-8.68
-2.06
4.39
10.12
14.78
18.10
19.88
20.04
18.73
16.40
13.72
11.35
9.75
9.03
8.97
9.13
9.08
8.55
7.49
5.99
4.23
2.33
0.38
-1.61
-3.62
-5.60
-7.54
-9.50
-11.66
-14.21
-17.17
-20.16
-22.44
-23.03
-21.13
-16.50
-9.72
-1.93
5.52
11.59
15.86
18.54
20.12
20.98
21.25
20.79
19.48
17.45
15.17
13.27
12.18
11.95
12.23
12.46
12.15
11.14
9.63
7.97
6.46
5.18
3.95
2.50
0.64
-1.59
-4.03
-6.44
-8.83
-11.32
-14.08
-17.06
-19.77
-21.31
-20.75
-17.50
-11.76
-4.52
2.82
8.96
13.21
15.67
16.86
17.39
17.45
16.88
15.39
13.00
10.21
7.86
6.75
7.16
8.65
10.28
11.09
10.58
8.95
6.94
5.32
4.56
4.45
4.36
3.62
1.87
-0.67
-3.43
-5.85
-7.66
-9.16
-10.86
-13.20
-16.18
-19.18
-21.24
-21.38
-19.03
-14.37
-8.15
-1.50
4.51
9.21
12.40
14.33
15.40
15.96
16.14
15.86
15.04
13.66
11.96
10.32
9.15
8.66
8.81
9.32
9.76
9.78
9.20
8.09
6.68
5.26
3.96
2.77
1.53
0.07
-1.64
-3.47
-5.18
-6.62
-7.85
-9.21
-11.14
-13.89
-17.26
-20.55
-22.73
-22.85
-20.47
-15.78
-9.58
-2.94
3.14
8.02
11.51
13.67
14.69
14.76
13.95
12.40
10.32
8.13
6.28
5.19
5.04
5.61
6.44
6.99
6.91
6.23
5.26
4.40
3.84
3.49
3.01
2.10
0.65
-1.14
-2.94
-4.46
-5.66
-6.75
-8.10
-10.01
-12.56
-15.56
-18.49
-20.70
-21.49
-20.43
-17.44
-12.85
-7.30
-1.50
3.90
8.49
12.04
14.44
15.65
15.69
14.74
13.13
11.35
9.88
9.08
9.00
9.42
9.97
10.25
10.05
9.37
8.36
7.19
5.95
4.59
3.04
1.30
-0.54
-2.27
-3.72
-4.83
-5.73
-6.67
-7.95
-9.70
-11.89
-14.24
-16.26
-17.45
-17.37
-15.82
-12.90
-8.93
-4.39
0.25
4.59
8.34
11.21
12.98
13.50
12.73
10.87
8.40
5.92
3.96
2.85
2.57
2.86
3.34
3.72
3.89
3.86
3.73
3.54
3.25
2.79
2.13
1.34
0.53
-0.24
-1.04
-2.06
-3.54
-5.57
-8.02
-10.44
-12.25
-12.91
-12.13
-9.92
-6.62
-2.68
1.42
5.32
8.78
11.57
13.48
14.29
13.85
12.19
9.56
6.47
3.53
1.23
-0.12
-0.58
-0.44
-0.14
-0.04
-0.33
-0.94
-1.69
-2.39
-2.94
-3.39
-3.88
-4.54
-5.37
-6.32
-7.33
-8.40
-9.67
-11.18
-12.82
-14.19
-14.71
-13.82
-11.33
-7.47
-2.91
1.50
5.06
7.39
8.47
8.47
7.65
6.22
4.33
2.19
0.13
-1.50
-2.38
-2.52
-2.16
-1.80
-1.86
-2.49
-3.46
-4.35
-4.75
-4.64
-4.36
-4.42
-5.18
-6.66
-8.54
-10.34
-11.72
-12.55
-12.89
-12.78
-12.14
-10.80
-8.59
-5.54
-1.83
2.09
5.74
8.66
10.45
10.95
10.19
8.44
6.16
3.72
1.41
-0.64
-2.39
-3.72
-4.41
-4.24
-3.17
-1.62
-0.27
0.19
-0.60
-2.37
-4.46
-6.16
-7.22
-8.02
-9.27
-11.48
-14.50
-17.37
-18.77
-17.68
-13.92
-8.39
-2.56
2.21
5.26
6.79
7.55
8.22
8.98
9.34
8.58
6.34
2.98
-0.50
-2.95
-3.64
-2.58
-0.57
1.35
2.40
2.38
1.67
0.81
0.19
-0.13
-0.53
-1.44
-3.15
-5.57
-8.33
-10.81
-12.41
-12.70
-11.52
-9.00
-5.53
-1.66
2.05
5.14
7.27
8.32
8.37
7.61
6.29
4.64
2.88
1.16
-0.32
-1.39
-1.94
-1.97
-1.63
-1.21
-1.00
-1.16
-1.68
-2.38
-3.08
-3.71
-4.43
-5.52
-7.19
-9.39
-11.69
-13.40
-13.82
-12.56
-9.67
-5.69
-1.41
2.41
5.23
6.88
7.42
7.12
6.22
4.97
3.56
2.16
0.95
0.07
-0.40
-0.49
-0.31
-0.09
-0.00
-0.19
-0.68
-1.39
-2.19
-3.01
-3.93
-5.12
-6.78
-8.95
-11.34
-13.35
-14.23
-13.37
-10.57
-6.16
-0.91
4.27
8.58
11.59
13.20
13.56
12.95
11.66
9.97
8.17
6.55
5.36
4.72
4.61
4.85
5.12
5.16
4.76
3.91
2.82
1.75
0.89
0.21
-0.55
-1.74
-3.56
-5.79
-7.82
-8.80
-8.12
-5.60
-1.65
2.95
7.33
10.85
13.27
14.58
14.86
14.19
12.59
10.20
7.34
4.54
2.39
1.30
1.27
1.92
2.61
2.80
2.32
1.36
0.32
-0.49
-1.07
-1.72
-2.85
-4.63
-6.87
-8.99
-10.37
-10.52
-9.39
-7.15
-4.19
-0.84
2.66
6.06
9.13
11.48
12.70
12.55
11.08
8.68
5.96
3.57
1.97
1.20
0.99
0.94
0.69
0.17
-0.49
-1.02
-1.24
-1.28
-1.44
-2.14
-3.63
-5.85
-8.48
-10.99
-12.89
-13.87
-13.87
-12.92
-11.10
-8.45
-5.06
-1.08
3.10
6.88
9.58
10.75
10.34
8.72
6.61
4.69
3.46
2.95
2.87
2.81
2.43
1.65
0.62
-0.39
-1.13
-1.55
-1.75
-1.96
-2.44
-3.43
-4.96
-6.89
-8.85
-10.36
-10.98
-10.40
-8.62
-5.85
-2.49
1.04
4.42
7.38
9.71
11.18
11.57
10.77
8.91
6.42
3.93
2.01
0.99
0.80
1.06
1.32
1.26
0.82
0.25
-0.19
-0.37
-0.43
-0.73
-1.68
-3.51
-6.12
-9.04
-11.63
-13.21
-13.37
-12.00
-9.30
-5.70
-1.72
2.17
5.58
8.23
9.96
10.70
10.56
9.72
8.45
7.06
5.86
5.00
4.47
4.10
3.64
2.93
1.91
0.75
-0.30
-1.06
-1.53
-1.93
-2.61
-3.87
-5.79
-8.16
-10.50
-12.31
-13.12
-12.69
-10.95
-8.00
-4.10
0.42
5.08
9.41
12.89
15.12
15.86
15.15
13.26
10.68
7.98
5.69
4.11
3.31
3.10
3.16
3.17
2.93
2.39
1.65
0.82
-0.02
-0.88
-1.80
-2.83
-4.01
-5.33
-6.78
-8.35
-9.92
-11.27
-12.05
-11.82
-10.19
-7.09
-2.83
1.89
6.21
9.37
10.99
11.13
10.22
8.81
7.35
6.05
4.94
3.98
3.17
2.63
2.51
2.85
3.48
4.09
4.22
3.62
2.29
0.56
-1.10
-2.28
-2.89
-3.21
-3.73
-4.93
-6.97
-9.61
-12.19
-13.96
-14.34
-13.07
-10.35
-6.67
-2.62
1.30
4.76
7.60
9.74
11.15
11.74
11.47
10.39
8.70
6.81
5.17
4.19
4.03
4.57
5.42
6.11
6.31
5.92
5.08
4.08
3.11
2.22
1.30
0.22
-1.04
-2.33
-3.50
-4.48
-5.38
-6.52
-8.16
-10.35
-12.72
-14.59
-15.18
-14.01
-11.04
-6.76
-1.97
2.53
6.20
8.85
10.53
11.40
11.58
11.10
9.99
8.40
6.65
5.13
4.20
3.96
4.30
4.89
5.38
5.56
5.41
5.07
4.71
4.40
4.06
3.50
2.55
1.15
-0.53
-2.28
-3.86
-5.17
-6.34
-7.62
-9.23
-11.20
-13.22
-14.82
-15.47
-14.76
-12.57
-9.08
-4.66
0.17
4.78
8.50
10.78
11.32
10.21
8.01
5.50
3.48
2.42
2.35
2.94
3.75
4.35
4.58
4.50
4.26
3.98
3.55
2.78
1.56
-0.02
-1.62
-2.69
-2.83
-1.97
-0.63
0.37
0.28
-1.21
-3.77
-6.59
-8.76
-9.71
-9.47
-8.44
-7.14
-5.80
-4.32
-2.36
0.24
3.23
5.87
7.25
6.82
4.67
1.59
-1.32
-3.10
-3.37
-2.48
-1.18
-0.17
0.22
0.16
0.09
0.41
1.21
2.22
3.00
3.20
2.74
1.82
0.78
-0.14
-0.82
-1.37
-1.97
-2.74
-3.64
-4.48
-4.91
-4.66
-3.56
-1.66
0.74
3.23
5.37
6.83
7.50
7.44
6.85
5.96
4.90
3.76
2.63
1.59
0.78
0.31
0.21
0.41
0.73
1.00
1.04
0.75
0.14
-0.72
-1.72
-2.72
-3.62
-4.43
-5.20
-6.04
-6.99
-7.97
-8.75
-8.99
-8.42
-6.88
-4.47
-1.44
1.79
4.79
7.16
8.62
9.05
8.49
7.11
5.22
3.17
1.32
-0.04
-0.71
-0.67
-0.09
0.73
1.39
1.60
1.27
0.53
-0.39
-1.28
-2.07
-2.92
-4.06
-5.69
-7.83
-10.26
-12.55
-14.18
-14.66
-13.74
-11.45
-8.11
-4.26
-0.43
2.92
5.52
7.23
8.03
7.91
7.00
5.51
3.84
2.39
1.47
1.12
1.13
1.20
1.05
0.58
-0.17
-1.04
-1.90
-2.68
-3.37
-4.02
-4.70
-5.49
-6.52
-7.88
-9.56
-11.42
-13.11
-14.25
-14.45
-13.50
-11.36
-8.23
-4.52
-0.70
2.71
5.30
6.85
7.39
7.13
6.40
5.51
4.67
4.01
3.56
3.33
3.35
3.68
4.23
4.85
5.26
5.19
4.48
3.17
1.54
-0.11
-1.62
-3.05
-4.69
-6.78
-9.33
-11.98
-14.12
-15.16
-14.82
-13.23
-10.81
-8.01
-5.14
-2.29
0.51
3.16
5.29
6.49
6.42
5.12
3.01
0.80
-0.83
-1.45
-1.18
-0.46
0.18
0.35
0.09
-0.34
-0.53
-0.30
0.25
0.72
0.72
0.03
-1.28
-2.94
-4.70
-6.41
-8.19
-10.12
-12.13
-13.82
-14.61
-13.94
-11.59
-7.77
-3.17
1.33
4.99
7.37
8.41
8.35
7.52
6.29
4.97
3.81
3.00
2.60
2.55
2.64
2.65
2.42
1.96
1.36
0.78
0.23
-0.33
-1.02
-1.87
-2.81
-3.74
-4.64
-5.65
-7.01
-8.86
-11.09
-13.22
-14.58
-14.52
-12.75
-9.45
-5.17
-0.67
3.39
6.59
8.81
10.11
10.56
10.23
9.14
7.38
5.22
3.08
1.43
0.63
0.73
1.47
2.38
3.02
3.14
2.78
2.18
1.59
1.15
0.78
0.25
-0.64
-2.00
-3.74
-5.63
-7.35
-8.61
-9.19
-8.97
-7.89
-6.01
-3.46
-0.42
2.82
5.93
8.54
10.36
11.17
10.91
9.69
7.81
5.70
3.77
2.38
1.69
1.65
2.03
2.54
2.90
2.94
2.67
2.15
1.50
0.84
0.23
-0.26
-0.65
-1.03
-1.59
-2.54
-4.03
-5.98
-8.04
-9.71
-10.42
-9.79
-7.79
-4.68
-0.97
2.77
6.04
8.55
10.18
10.97
11.07
10.60
9.71
8.52
7.21
5.95
5.00
4.53
4.57
5.01
5.57
5.97
6.06
5.87
5.56
5.33
5.22
5.11
4.70
3.69
1.96
-0.40
-3.03
-5.45
-7.22
-8.05
-7.90
-6.85
-5.12
-2.93
-0.48
2.04
4.43
6.47
7.92
8.61
8.50
7.72
6.56
5.38
4.48
4.00
3.90
3.95
3.88
3.49
2.81
1.99
1.25
0.74
0.42
0.12
-0.34
-1.11
-2.20
-3.52
-4.96
-6.37
-7.65
-8.62
-9.04
-8.60
-7.07
-4.46
-1.07
2.56
5.78
8.07
9.18
9.17
8.37
7.18
5.98
4.96
4.23
3.74
3.45
3.30
3.32
3.49
3.81
4.23
4.60
4.75
4.53
3.94
3.08
2.17
1.36
0.68
-0.03
-0.99
-2.32
-3.89
-5.31
-6.12
-5.99
-4.86
-2.99
-0.81
1.32
3.17
4.69
5.86
6.60
6.77
6.16
4.74
2.69
0.45
-1.49
-2.77
-3.32
-3.38
-3.34
-3.53
-4.02
-4.59
-4.89
-4.63
-3.79
-2.69
-1.77
-1.40
-1.73
-2.66
-4.01
-5.58
-7.20
-8.61
-9.43
-9.20
-7.55
-4.50
-0.63
3.17
6.04
7.47
7.54
6.75
5.69
4.74
3.94
3.15
2.29
1.41
0.73
0.42
0.52
0.88
1.06
0.72
-0.33
-2.02
-3.99
-5.77
-7.02
-7.62
-7.91
-8.42
-9.64
-11.68
-14.13
-16.17
-16.90
-15.80
-13.02
-9.31
-5.61
-2.66
-0.62
0.80
2.05
3.40
4.64
5.25
4.80
3.25
1.06
-1.06
-2.53
-3.08
-3.01
-2.75
-2.70
-2.92
-3.19
-3.14
-2.56
-1.44
-0.07
1.10
1.65
1.33
0.11
-1.70
-3.59
-4.91
-5.12
-3.92
-1.43
1.93
5.50
8.71
11.23
12.98
14.09
14.69
14.79
14.30
13.15
11.40
9.34
7.39
5.95
5.18
4.95
4.89
4.60
3.86
2.76
1.61
0.80
0.51
0.59
0.63
0.15
-1.16
-3.22
-5.57
-7.49
-8.33
-7.70
-5.63
-2.46
1.28
5.10
8.64
11.67
14.06
15.66
16.29
15.88
14.46
12.30
9.82
7.49
5.62
4.29
3.33
2.44
1.36
0.01
-1.46
-2.74
-3.58
-3.85
-3.68
-3.34
-3.19
-3.47
-4.26
-5.49
-6.97
-8.50
-9.82
-10.63
-10.67
-9.69
-7.63
-4.67
-1.27
2.02
4.68
6.37
6.99
6.67
5.67
4.26
2.75
1.38
0.34
-0.27
-0.45
-0.28
0.10
0.59
1.07
1.42
1.47
1.08
0.21
-0.96
-2.06
-2.73
-2.77
-2.35
-1.95
-2.14
-3.31
-5.44
-8.04
-10.38
-11.73
-11.65
-10.10
-7.36
-3.90
-0.24
3.21
6.11
8.24
9.45
9.71
9.14
7.96
6.56
5.35
4.63
4.52
4.91
5.46
5.81
5.68
5.01
4.00
2.91
2.03
1.44
1.05
0.64
0.01
-0.92
-2.06
-3.37
-4.80
-6.41
-8.25
-10.21
-11.96
-13.01
-12.91
-11.49
-8.94
-5.75
-2.44
0.65
3.43
5.96
8.25
10.10
11.11
10.98
9.63
7.47
5.15
3.36
2.55
2.63
3.19
3.68
3.69
3.15
2.27
1.40
0.83
0.64
0.69
0.74
0.58
0.11
-0.62
-1.55
-2.61
-3.89
-5.45
-7.37
-9.48
-11.45
-12.78
-13.00
-11.86
-9.39
-6.00
-2.27
1.24
4.12
6.24
7.62
8.42
8.74
8.67
8.23
7.43
6.32
5.03
3.77
2.77
2.20
2.08
2.30
2.57
2.64
2.34
1.67
0.82
-0.01
-0.69
-1.21
-1.73
-2.39
-3.32
-4.54
-5.97
-7.55
-9.16
-10.70
-12.00
-12.84
-12.96
-12.15
-10.32
-7.56
-4.18
-0.64
2.55
4.94
6.34
6.85
6.75
6.34
5.83
5.20
4.39
3.33
2.15
1.16
0.70
0.97
1.84
2.96
3.81
4.05
3.58
2.55
1.26
0.00
-1.08
-2.00
-2.88
-3.80
-4.80
-5.87
-6.96
-7.98
-8.85
-9.45
-9.64
-9.24
-8.14
-6.31
-3.80
-0.77
2.50
5.65
8.31
10.18
11.05
10.95
10.04
8.65
7.07
5.55
4.14
2.89
1.78
0.90
0.38
0.33
0.74
1.40
1.95
2.02
1.43
0.26
-1.13
-2.33
-3.00
-3.16
-3.10
-3.25
-3.99
-5.46
-7.49
-9.67
-11.52
-12.63
-12.71
-11.68
-9.60
-6.67
-3.19
0.45
3.82
6.55
8.35
9.10
8.90
7.99
6.70
5.36
4.25
3.50
3.16
3.15
3.32
3.51
3.61
3.55
3.32
2.92
2.36
1.67
0.88
0.09
-0.61
-1.17
-1.62
-2.13
-2.93
-4.26
-6.19
-8.57
-11.02
-13.03
-14.10
-13.92
-12.43
-9.88
-6.66
-3.27
-0.05
2.75
5.02
6.69
7.68
7.90
7.32
6.01
4.27
2.48
1.07
0.33
0.30
0.80
1.46
1.90
1.88
1.37
0.52
-0.42
-1.27
-1.96
-2.56
-3.18
-3.88
-4.65
-5.41
-6.10
-6.74
-7.45
-8.27
-9.10
-9.60
-9.36
-8.04
-5.60
-2.36
1.11
4.20
6.51
7.93
8.58
8.64
8.23
7.39
6.10
4.51
2.92
1.71
1.18
1.41
2.11
2.86
3.20
2.89
1.98
0.75
-0.44
-1.31
-1.82
-2.13
-2.48
-3.10
-4.07
-5.30
-6.59
-7.75
-8.64
-9.22
-9.40
-9.01
-7.82
-5.65
-2.55
1.13
4.75
7.63
9.35
9.83
9.37
8.31
6.93
5.38
3.74
2.20
1.15
0.93
1.69
3.06
4.40
5.03
4.64
3.48
2.21
1.43
1.37
1.63
1.49
0.30
-2.09
-5.23
-8.31
-10.56
-11.58
-11.56
-10.94
-10.11
-9.12
-7.71
-5.50
-2.42
1.21
4.60
6.95
7.78
7.17
5.70
4.14
3.05
2.63
2.63
2.67
2.51
2.13
1.75
1.54
1.55
1.66
1.64
1.32
0.72
-0.02
-0.74
-1.41
-2.11
-2.98
-4.12
-5.50
-6.97
-8.29
-9.25
-9.68
-9.45
-8.47
-6.74
-4.35
-1.56
1.28
3.75
5.54
6.50
6.70
6.33
5.61
4.72
3.72
2.64
1.49
0.34
-0.72
-1.61
-2.24
-2.63
-2.81
-2.89
-3.00
-3.25
-3.68
-4.23
-4.77
-5.21
-5.55
-5.95
-6.63
-7.71
-9.07
-10.33
-10.95
-10.49
-8.75
-5.91
-2.40
1.25
4.65
7.49
9.61
10.91
11.28
10.67
9.10
6.80
4.16
1.67
-0.24
-1.32
-1.57
-1.22
-0.61
-0.03
0.35
0.56
0.73
1.00
1.44
1.97
2.39
2.50
2.14
1.26
-0.05
-1.69
-3.53
-5.44
-7.25
-8.73
-9.50
-9.24
-7.72
-5.03
-1.52
2.25
5.75
8.58
10.60
11.80
12.24
11.93
10.86
9.11
6.90
4.63
2.75
1.63
1.36
1.77
2.45
2.93
2.94
2.43
1.58
0.69
0.00
-0.46
-0.90
-1.63
-2.92
-4.85
-7.18
-9.55
-11.51
-12.73
-13.07
-12.50
-11.08
-8.87
-5.96
-2.60
0.85
3.93
6.21
7.46
7.75
7.35
6.57
5.57
4.36
2.93
1.35
-0.11
-1.05
-1.15
-0.40
0.83
1.91
2.32
1.82
0.65
-0.64
-1.51
-1.66
-1.28
-0.88
-1.03
-2.06
-3.89
-6.10
-8.08
-9.29
-9.52
-8.81
-7.36
-5.33
-2.76
0.38
4.03
7.88
11.33
13.67
14.43
13.58
11.64
9.41
7.69
6.92
6.95
7.24
7.21
6.50
5.24
3.89
2.97
2.78
3.18
3.71
3.86
3.29
2.00
0.29
-1.47
-2.99
-4.26
-5.52
-7.06
-9.02
-11.30
-13.47
-14.95
-15.13
-13.73
-10.81
-6.83
-2.48
1.55
4.76
7.01
8.43
9.29
9.80
10.03
9.92
9.39
8.49
7.52
6.90
6.97
7.81
9.12
10.32
10.80
10.21
8.59
6.38
4.13
2.30
1.07
0.26
-0.48
-1.52
-3.08
-5.14
-7.49
-9.80
-11.77
-13.12
-13.61
-13.08
-11.39
-8.51
-4.62
-0.05
4.64
8.84
12.05
14.01
14.77
14.62
13.97
13.16
12.40
11.73
11.13
10.54
10.01
9.61
9.36
9.17
8.84
8.12
6.89
5.23
3.42
1.82
0.70
0.04
-0.46
-1.25
-2.76
-5.11
-8.05
-11.02
-13.33
-14.42
-14.04
-12.27
-9.39
-5.85
-2.06
1.66
5.01
7.78
9.81
11.01
11.37
10.96
9.93
8.50
6.96
5.56
4.54
3.98
3.79
3.73
3.52
3.00
2.19
1.23
0.27
-0.64
-1.62
-2.81
-4.25
-5.80
-7.25
-8.43
-9.36
-10.27
-11.37
-12.69
-13.91
-14.47
-13.81
-11.60
-7.96
-3.42
1.31
5.53
8.81
11.03
12.28
12.76
12.62
11.94
10.76
9.17
7.42
5.90
4.95
4.74
5.09
5.57
5.68
5.10
3.88
2.34
0.92
-0.10
-0.78
-1.41
-2.37
-3.90
-5.98
-8.39
-10.79
-12.88
-14.40
-15.15
-14.92
-13.53
-10.92
-7.19
-2.68
2.08
6.48
9.95
12.10
12.84
12.36
11.07
9.47
7.99
6.89
6.18
5.76
5.42
5.03
4.56
4.03
3.51
2.98
2.42
1.74
0.92
-0.01
-0.96
-1.88
-2.79
-3.88
-5.35
-7.31
-9.60
-11.75
-13.12
-13.14
-11.54
-8.47
-4.46
-0.19
3.75
6.99
9.42
11.02
11.78
11.66
10.68
8.96
6.85
4.82
3.36
2.76
3.00
3.75
4.56
4.98
4.84
4.26
3.51
2.87
2.43
2.03
1.36
0.17
-1.65
-3.94
-6.47
-8.93
-11.12
-12.89
-14.02
-14.20
-13.13
-10.66
-7.03
-2.79
1.31
4.68
7.05
8.52
9.37
9.89
10.14
10.02
9.40
8.29
6.92
5.63
4.73
4.33
4.20
4.04
3.52
2.49
1.04
-0.51
-1.88
-2.88
-3.76
-4.93
-6.83
-9.58
-12.79
-15.65
-17.26
-16.99
-14.86
-11.45
-7.53
-3.73
-0.20
3.27
6.86
10.44
13.31
14.61
13.79
11.05
7.32
3.88
1.75
1.23
1.76
2.38
2.27
1.21
-0.40
-1.87
-2.64
-2.60
-2.20
-2.11
-2.85
-4.59
-7.07
-9.84
-12.40
-14.32
-15.39
-15.48
-14.48
-12.32
-9.04
-4.85
-0.18
4.41
8.32
11.05
12.35
12.23
10.96
8.99
6.84
4.98
3.71
3.08
2.95
3.06
3.14
2.98
2.52
1.78
0.82
-0.29
-1.54
-2.96
-4.61
-6.55
-8.84
-11.39
-13.97
-16.18
-17.57
-17.76
-16.57
-14.07
-10.53
-6.30
-1.76
2.73
6.83
10.17
12.36
13.18
12.59
10.88
8.58
6.27
4.41
3.20
2.50
2.03
1.48
0.74
-0.11
-0.84
-1.24
-1.25
-1.06
-1.04
-1.55
-2.79
-4.72
-7.03
-9.28
-10.98
-11.77
-11.41
-9.84
-7.15
-3.55
0.60
4.84
8.63
11.45
12.88
12.76
11.20
8.61
5.56
2.64
0.30
-1.30
-2.20
-2.62
-2.80
-2.91
-3.06
-3.32
-3.78
-4.52
-5.59
-6.98
-8.61
-10.35
-12.10
-13.77
-15.20
-16.18
-16.40
-15.50
-13.27
-9.74
-5.25
-0.37
4.15
7.71
9.93
10.75
10.47
9.56
8.46
7.50
6.75
6.15
5.62
5.14
4.84
4.88
5.39
6.28
7.34
8.24
8.68
8.52
7.73
6.35
4.49
2.25
-0.20
-2.54
-4.31
-4.98
-4.10
-1.56
2.34
6.99
11.60
15.51
18.35
20.06
20.81
20.76
20.05
18.74
16.89
14.67
12.35
10.25
8.57
7.25
6.01
4.47
2.34
-0.44
-3.63
-6.87
-9.83
-12.42
-14.74
-16.94
-19.03
-20.69
-21.39
-20.60
-18.01
-13.79
-8.52
-2.97
2.09
6.19
9.20
11.20
12.42
12.93
12.65
11.42
9.16
5.99
2.27
-1.50
-4.84
-7.46
-9.39
-10.81
-12.06
-13.34
-14.73
-16.21
-17.68
-19.19
-20.92
-23.10
-25.86
-29.01
-32.04
-34.15
-34.56
-32.80
-28.89
-23.35
-17.07
-11.00
-5.89
-2.17
0.07
0.98
0.80
-0.21
-1.83
-3.85
-5.97
-7.87
-9.21
-9.77
-9.52
-8.65
-7.55
-6.60
-6.11
-6.20
-6.85
-7.93
-9.36
-11.08
-13.04
-15.07
-16.80
-17.64
-16.99
-14.41
-9.90
-3.93
2.66
8.85
13.82
17.03
18.40
18.16
16.71
14.49
11.84
9.04
6.27
3.72
1.57
-0.01
-0.95
-1.37
-1.51
-1.69
-2.18
-3.16
-4.59
-6.43
-8.64
-11.18
-13.93
-16.59
-18.59
-19.21
-17.83
-14.17
-8.48
-1.52
5.67
11.99
16.63
19.17
19.67
18.50
16.28
13.59
10.89
8.44
6.27
4.37
2.73
1.39
0.44
-0.13
-0.44
-0.76
-1.34
-2.31
-3.62
-5.07
-6.49
-7.82
-9.12
-10.42
-11.57
-12.15
-11.56
-9.30
-5.25
0.23
6.34
12.11
16.75
19.85
21.38
21.59
20.84
19.44
17.64
15.70
13.90
12.54
11.78
11.59
11.69
11.62
10.92
9.36
7.00
4.17
1.30
-1.31
-3.69
-6.11
-9.01
-12.67
-17.01
-21.53
-25.38
-27.68
-27.78
-25.44
-20.93
-14.86
-8.02
-1.13
5.24
10.75
15.23
18.65
21.06
22.53
23.13
22.99
22.26
21.11
19.72
18.22
16.69
15.12
13.48
11.72
9.81
7.74
5.52
3.13
0.57
-2.15
-4.95
-7.65
-10.08
-12.11
-13.77
-15.30
-17.02
-19.19
-21.76
-24.28
-25.93
-25.79
-23.18
-18.00
-10.70
-2.24
6.30
14.00
20.25
24.76
27.47
28.42
27.79
25.87
23.14
20.21
17.62
15.75
14.64
14.03
13.51
12.74
11.53
9.94
8.16
6.37
4.67
2.96
1.10
-1.06
-3.51
-6.09
-8.58
-10.80
-12.77
-14.73
-17.05
-20.01
-23.59
-27.35
-30.50
-32.12
-31.45
-28.18
-22.50
-15.04
-6.65
1.81
9.63
16.35
21.68
25.48
27.71
28.50
28.09
26.86
25.11
23.07
20.86
18.56
16.27
14.21
12.57
11.39
10.45
9.31
7.54
4.97
1.79
-1.50
-4.40
-6.58
-8.17
-9.54
-11.10
-13.11
-15.54
-18.21
-20.88
-23.43
-25.88
-28.10
-29.71
-30.04
-28.29
-23.90
-16.92
-8.14
1.01
9.01
14.73
17.86
18.87
18.75
18.44
18.45
18.66
18.56
17.72
16.10
14.12
12.49
11.67
11.71
12.05
11.95
10.87
8.77
6.13
3.58
1.60
0.25
-0.81
-2.05
-3.77
-5.99
-8.45
-10.91
-13.31
-15.76
-18.56
-21.83
-25.41
-28.69
-30.76
-30.72
-27.99
-22.56
-15.00
-6.37
2.17
9.61
15.31
19.06
21.05
21.66
21.38
20.64
19.76
18.88
18.00
17.07
16.02
14.87
13.72
12.64
11.66
10.68
9.49
7.90
5.80
3.29
0.62
-1.89
-4.00
-5.66
-7.02
-8.34
-9.86
-11.70
-13.91
-16.43
-19.22
-22.14
-24.91
-27.00
-27.70
-26.30
-22.42
-16.24
-8.49
-0.30
7.19
13.21
17.45
20.04
21.30
21.56
21.01
19.79
18.10
16.19
14.41
13.07
12.35
12.18
12.36
12.55
12.45
11.82
10.55
8.66
6.33
3.79
1.29
-0.97
-2.92
-4.58
-6.08
-7.59
-9.28
-11.34
-13.89
-17.00
-20.48
-23.86
-26.40
-27.24
-25.69
-21.54
-15.16
-7.47
0.39
7.41
12.95
16.81
19.09
20.05
19.92
18.88
17.11
14.80
12.29
9.98
8.25
7.36
7.32
7.85
8.48
8.71
8.18
6.85
4.87
2.57
0.22
-1.99
-4.00
-5.78
-7.31
-8.63
-9.87
-11.35
-13.38
-16.11
-19.28
-22.23
-24.05
-23.94
-21.47
-16.82
-10.59
-3.63
3.28
9.53
14.74
18.70
21.28
22.42
22.17
20.70
18.34
15.57
12.90
10.79
9.43
8.73
8.38
7.96
7.21
6.07
4.71
3.39
2.21
1.07
-0.26
-1.98
-4.07
-6.35
-8.58
-10.64
-12.66
-14.88
-17.43
-20.02
-21.97
-22.41
-20.61
-16.39
-10.27
-3.30
3.39
8.88
12.81
15.22
16.37
16.49
15.67
13.96
11.49
8.60
5.78
3.49
2.02
1.38
1.34
1.57
1.75
1.66
1.22
0.47
-0.53
-1.68
-2.97
-4.46
-6.34
-8.73
-11.71
-15.10
-18.49
-21.27
-22.80
-22.56
-20.33
-16.28
-10.88
-4.79
1.29
6.85
11.51
15.03
17.28
18.12
17.51
15.58
12.67
9.33
6.19
3.71
2.13
1.35
1.07
0.92
0.66
0.24
-0.30
-0.84
-1.37
-1.99
-2.89
-4.27
-6.21
-8.66
-11.45
-14.27
-16.77
-18.52
-19.13
-18.28
-15.78
-11.72
-6.42
-0.47
5.41
10.51
14.27
16.38
16.82
15.84
13.87
11.42
8.95
6.79
5.16
4.08
3.49
3.24
3.11
2.88
2.36
1.48
0.30
-1.08
-2.51
-3.91
-5.36
-7.00
-9.00
-11.43
-14.13
-16.74
-18.69
-19.36
-18.31
-15.40
-10.84
-5.23
0.67
6.13
10.61
13.83
15.75
16.41
15.89
14.31
11.87
8.91
5.93
3.42
1.75
1.00
0.95
1.15
1.22
0.94
0.31
-0.47
-1.24
-1.96
-2.79
-3.98
-5.77
-8.25
-11.23
-14.28
-16.76
-18.04
-17.67
-15.48
-11.65
-6.64
-1.10
4.32
9.04
12.63
14.81
15.46
14.67
12.72
10.07
7.25
4.73
2.79
1.51
0.78
0.45
0.39
0.49
0.68
0.80
0.66
0.11
-0.93
-2.44
-4.32
-6.47
-8.80
-11.19
-13.39
-14.99
-15.54
-14.66
-12.19
-8.33
-3.52
1.64
6.58
10.79
13.90
15.65
15.88
14.70
12.43
9.59
6.78
4.51
3.04
2.35
2.22
2.34
2.47
2.47
2.31
2.00
1.52
0.80
-0.25
-1.71
-3.62
-5.93
-8.49
-11.08
-13.36
-14.90
-15.26
-14.08
-11.26
-6.98
-1.80
3.52
8.21
11.71
13.75
14.40
13.95
12.74
11.03
9.04
6.92
4.88
3.12
1.88
1.28
1.27
1.62
2.01
2.11
1.75
0.97
-0.11
-1.35
-2.76
-4.47
-6.67
-9.37
-12.29
-14.86
-16.38
-16.32
-14.49
-11.10
-6.74
-2.12
2.18
5.82
8.70
10.88
12.36
13.10
12.94
11.80
9.85
7.50
5.30
3.74
3.04
3.02
3.24
3.19
2.58
1.39
-0.22
-2.16
-4.47
-7.33
-10.83
-14.77
-18.62
-21.72
-23.48
-23.73
-22.67
-20.61
-17.85
-14.44
-10.32
-5.56
-0.52
4.02
7.22
8.48
7.75
5.53
2.71
0.12
-1.76
-3.01
-4.00
-5.13
-6.50
-7.88
-8.86
-9.15
-8.80
-8.29
-8.26
-9.14
-10.98
-13.44
-15.96
-18.13
-19.72
-20.78
-21.35
-21.36
-20.52
-18.50
-15.13
-10.54
-5.17
0.31
5.24
9.13
11.77
13.19
13.60
13.29
12.58
11.70
10.86
10.15
9.60
9.18
8.77
8.26
7.59
6.76
5.81
4.77
3.60
2.12
0.17
-2.32
-5.17
-7.93
-10.00
-10.89
-10.36
-8.54
-5.81
-2.62
0.63
3.70
6.43
8.65
10.22
10.96
10.81
9.84
8.34
6.68
5.25
4.32
3.91
3.85
3.88
3.75
3.36
2.77
2.09
1.37
0.52
-0.69
-2.52
-5.08
-8.22
-11.47
-14.16
-15.58
-15.26
-13.06
-9.22
-4.28
1.16
6.53
11.38
15.38
18.26
19.79
19.85
18.52
16.22
13.52
11.05
9.19
8.02
7.32
6.83
6.36
5.94
5.73
5.88
6.38
6.97
7.27
6.91
5.70
3.73
1.37
-0.79
-2.11
-2.07
-0.37
3.00
7.71
13.24
18.91
23.98
27.80
29.84
29.83
27.89
24.52
20.55
16.88
14.18
12.66
12.08
11.83
11.30
10.07
8.08
5.51
2.61
-0.45
-3.64
-7.00
-10.56
-14.26
-17.93
-21.41
-24.52
-27.07
-28.82
-29.40
-28.41
-25.52
-20.66
-14.21
-6.91
0.25
6.33
10.73
13.28
14.21
13.98
12.96
11.40
9.47
7.34
5.31
3.78
3.03
3.04
3.36
3.32
2.35
0.26
-2.64
-5.71
-8.30
-10.10
-11.29
-12.36
-13.81
-15.78
-17.95
-19.61
-20.00
-18.51
-15.14
-10.32
-4.79
0.68
5.53
9.56
12.73
15.06
16.35
16.31
14.68
11.59
7.60
3.66
0.70
-0.76
-0.86
-0.29
0.11
-0.22
-1.33
-2.82
-4.17
-5.03
-5.51
-6.00
-6.99
-8.77
-11.33
-14.36
-17.44
-20.09
-21.91
-22.52
-21.65
-19.14
-15.03
-9.65
-3.57
2.49
7.77
11.71
13.98
14.60
13.84
12.16
10.11
8.19
6.71
5.76
5.24
4.94
4.68
4.35
3.92
3.43
2.87
2.17
1.29
0.17
-1.15
-2.60
-4.14
-5.80
-7.66
-9.82
-12.27
-14.76
-16.82
-17.85
-17.32
-14.89
-10.63
-4.94
1.46
7.74
13.14
17.16
19.61
20.65
20.62
19.92
18.90
17.74
16.52
15.25
14.00
12.89
12.09
11.71
11.74
12.06
12.41
12.52
12.17
11.24
9.76
7.84
5.58
3.02
0.16
-3.04
-6.51
-10.00
-13.10
-15.26
-15.92
-14.77
-11.78
-7.29
-1.91
3.66
8.81
13.09
16.21
17.98
18.34
17.32
15.13
12.14
8.86
5.80
3.30
1.50
0.32
-0.41
-0.88
-1.20
-1.43
-1.58
-1.68
-1.78
-1.99
-2.41
-3.18
-4.37
-6.01
-8.08
-10.51
-13.19
-15.97
-18.58
-20.60
-21.50
-20.80
-18.25
-13.95
-8.47
-2.62
2.75
7.02
9.95
11.60
12.21
12.01
11.12
9.66
7.79
5.83
4.18
3.20
3.00
3.40
4.02
4.39
4.20
3.39
2.16
0.77
-0.54
-1.72
-2.87
-4.24
-6.05
-8.43
-11.27
-14.24
-16.79
-18.34
-18.41
-16.79
-13.62
-9.30
-4.34
0.74
5.51
9.64
12.85
14.94
15.75
15.25
13.62
11.19
8.43
5.84
3.77
2.39
1.63
1.26
1.02
0.69
0.13
-0.64
-1.60
-2.70
-3.92
-5.24
-6.65
-8.17
-9.84
-11.78
-14.09
-16.72
-19.42
-21.71
-22.99
-22.77
-20.79
-17.17
-12.32
-6.83
-1.31
3.73
7.92
11.03
12.95
13.68
13.34
12.19
10.59
8.96
7.67
6.96
6.82
7.02
7.21
7.04
6.33
5.17
3.83
2.60
1.65
0.90
0.01
-1.37
-3.50
-6.34
-9.63
-12.93
-15.77
-17.82
-18.83
-18.65
-17.16
-14.35
-10.44
-5.87
-1.24
2.84
6.03
8.29
9.83
10.86
11.42
11.35
10.45
8.73
6.52
4.41
2.92
2.33
2.40
2.64
2.47
1.51
-0.27
-2.60
-5.11
-7.45
-9.57
-11.59
-13.77
-16.28
-19.10
-21.99
-24.56
-26.46
-27.56
-27.86
-27.33
-25.77
-22.78
-17.97
-11.37
-3.59
4.15
10.45
14.30
15.44
14.41
12.23
9.84
7.82
6.13
4.49
2.75
1.07
-0.02
0.04
1.48
4.06
7.04
9.59
11.12
11.52
11.12
10.44
9.78
9.11
8.01
5.96
2.65
-1.87
-7.09
-12.20
-16.33
-18.75
-19.07
-17.28
-13.68
-8.81
-3.35
2.01
6.68
10.23
12.45
13.32
12.95
11.56
9.41
6.80
4.07
1.61
-0.23
-1.20
-1.22
-0.44
0.84
2.30
3.64
4.69
5.35
5.50
4.95
3.52
1.06
-2.41
-6.72
-11.54
-16.50
-21.15
-25.05
-27.65
-28.40
-26.91
-23.01
-16.98
-9.44
-1.28
6.55
13.21
18.13
21.03
22.00
21.40
19.80
17.81
15.89
14.25
12.81
11.37
9.71
7.75
5.58
3.39
1.42
-0.16
-1.19
-1.61
-1.42
-0.76
0.10
0.75
0.72
-0.39
-2.76
-6.21
-10.22
-14.01
-16.73
-17.65
-16.39
-13.01
-7.96
-1.99
4.04
9.35
13.42
15.98
17.00
16.64
15.15
12.90
10.33
7.92
6.10
5.08
4.83
5.10
5.49
5.64
5.32
4.56
3.50
2.35
1.25
0.23
-0.76
-1.81
-2.98
-4.23
-5.46
-6.53
-7.31
-7.69
-7.55
-6.77
-5.21
-2.83
0.23
3.57
6.59
8.64
9.28
8.46
6.52
4.06
1.79
0.18
-0.54
-0.48
0.06
0.74
1.33
1.74
2.04
2.29
2.49
2.54
2.25
1.51
0.34
-1.18
-2.95
-5.01
-7.42
-10.16
-12.96
-15.18
-16.06
-14.96
-11.74
-6.81
-1.04
4.57
9.19
12.38
13.98
14.06
12.80
10.39
7.22
3.85
0.92
-0.97
-1.63
-1.23
-0.45
-0.05
-0.59
-2.14
-4.31
-6.43
-7.93
-8.62
-8.77
-8.98
-9.83
-11.59
-14.12
-16.87
-19.13
-20.22
-19.75
-17.62
-14.02
-9.33
-3.98
1.54
6.74
11.17
14.42
16.24
16.55
15.54
13.56
11.08
8.59
6.50
5.03
4.15
3.67
3.32
2.84
2.13
1.20
0.22
-0.65
-1.36
-1.98
-2.67
-3.65
-5.06
-6.91
-8.99
-10.96
-12.35
-12.69
-11.66
-9.15
-5.32
-0.56
4.64
9.71
14.15
17.53
19.56
20.10
19.21
17.11
14.19
10.94
7.90
5.53
4.14
3.80
4.33
5.32
6.32
7.01
7.24
7.09
6.73
6.24
5.55
4.44
2.73
0.35
-2.53
-5.48
-7.97
-9.45
-9.51
-7.93
-4.80
-0.49
4.32
8.74
11.84
12.88
11.57
8.15
3.40
-1.63
-5.87
-8.57
-9.45
-8.70
-6.84
-4.48
-2.10
-0.00
1.69
2.91
3.54
3.44
2.52
0.81
-1.42
-3.82
-6.01
-7.80
-9.27
-10.67
-12.28
-14.18
-16.15
-17.65
-18.08
-16.96
-14.19
-10.06
-5.15
-0.10
4.62
8.76
12.22
14.95
16.80
17.58
17.13
15.53
13.12
10.45
8.00
6.07
4.58
3.26
1.78
-0.04
-2.12
-4.20
-6.00
-7.36
-8.37
-9.27
-10.36
-11.80
-13.59
-15.52
-17.29
-18.60
-19.24
-19.02
-17.83
-15.61
-12.32
-8.07
-3.10
2.15
7.16
11.44
14.63
16.57
17.39
17.31
16.63
15.53
14.10
12.36
10.34
8.17
6.10
4.39
3.26
2.74
2.64
2.65
2.42
1.72
0.52
-1.03
-2.72
-4.44
-6.21
-8.19
-10.51
-13.10
-15.57
-17.32
-17.76
-16.56
-13.84
-10.09
-5.96
-1.98
1.58
4.71
7.45
9.76
11.42
12.16
11.84
10.60
8.87
7.15
5.90
5.28
5.13
5.09
4.77
3.96
2.71
1.24
-0.18
-1.43
-2.50
-3.59
-4.86
-6.38
-8.09
-9.87
-11.57
-13.07
-14.23
-14.78
-14.42
-12.80
-9.80
-5.58
-0.66
4.22
8.36
11.28
12.87
13.27
12.80
11.76
10.35
8.70
6.89
5.01
3.18
1.51
0.08
-1.04
-1.88
-2.55
-3.20
-3.98
-4.99
-6.18
-7.42
-8.55
-9.56
-10.57
-11.77
-13.21
-14.69
-15.74
-15.84
-14.67
-12.23
-8.83
-4.94
-0.93
2.90
6.30
8.95
10.50
10.65
9.44
7.30
4.95
3.12
2.23
2.19
2.56
2.74
2.36
1.40
0.15
-0.97
-1.68
-2.01
-2.23
-2.69
-3.68
-5.23
-7.18
-9.24
-11.13
-12.77
-14.10
-15.04
-15.32
-14.56
-12.33
-8.54
-3.51
1.91
6.67
9.90
11.27
11.05
9.95
8.73
7.87
7.41
7.04
6.45
5.55
4.50
3.67
3.29
3.40
3.71
3.85
3.59
2.90
1.93
0.88
-0.16
-1.24
-2.56
-4.24
-6.26
-8.36
-10.11
-11.01
-10.63
-8.75
-5.45
-1.16
3.43
7.60
10.75
12.59
13.20
12.90
12.07
11.01
9.87
8.67
7.36
5.96
4.55
3.29
2.29
1.60
1.11
0.63
-0.05
-1.07
-2.42
-4.00
-5.62
-7.18
-8.65
-10.10
-11.58
-13.04
-14.23
-14.80
-14.35
-12.61
-9.58
-5.52
-0.95
3.56
7.51
10.60
12.77
14.08
14.65
14.52
13.66
12.08
9.92
7.52
5.36
3.88
3.28
3.40
3.84
4.15
4.03
3.47
2.66
1.82
1.03
0.12
-1.12
-2.91
-5.23
-7.86
-10.40
-12.44
-13.64
-13.79
-12.83
-10.77
-7.78
-4.09
-0.03
4.02
7.67
10.59
12.48
13.18
12.74
11.37
9.48
7.55
5.98
4.99
4.60
4.68
5.06
5.58
6.14
6.61
6.84
6.66
5.94
4.70
3.12
1.42
-0.25
-1.92
-3.81
-6.15
-8.98
-12.00
-14.56
-15.89
-15.39
-12.91
-8.82
-3.91
0.95
5.09
8.16
10.15
11.17
11.30
10.59
9.14
7.18
5.12
3.48
2.63
2.66
3.33
4.16
4.68
4.58
3.87
2.77
1.62
0.66
-0.05
-0.65
-1.40
-2.52
-4.08
-6.01
-8.09
-10.09
-11.78
-12.95
-13.38
-12.83
-11.10
-8.17
-4.25
0.12
4.25
7.51
9.53
10.32
10.17
9.46
8.49
7.36
6.04
4.55
3.06
1.86
1.24
1.26
1.72
2.16
2.15
1.45
0.22
-1.14
-2.19
-2.72
-2.84
-2.98
-3.64
-5.15
-7.50
-10.31
-12.97
-14.90
-15.64
-15.05
-13.21
-10.34
-6.72
-2.65
1.58
5.62
9.11
11.66
13.00
13.05
11.98
10.23
8.30
6.68
5.71
5.49
5.88
6.59
7.22
7.40
6.90
5.71
4.05
2.30
0.82
-0.20
-0.85
-1.44
-2.35
-3.85
-5.93
-8.35
-10.68
-12.48
-13.42
-13.30
-12.05
-9.73
-6.50
-2.67
1.40
5.28
8.54
10.87
12.05
12.12
11.26
9.77
8.05
6.41
5.04
3.98
3.18
2.52
1.97
1.52
1.16
0.83
0.42
-0.17
-0.99
-2.00
-3.11
-4.28
-5.55
-6.99
-8.70
-10.59
-12.41
-13.75
-14.17
-13.34
-11.17
-7.84
-3.77
0.51
4.42
7.58
9.79
11.06
11.49
11.22
10.35
8.96
7.19
5.28
3.55
2.28
1.57
1.31
1.22
1.00
0.49
-0.27
-1.07
-1.71
-2.10
-2.35
-2.71
-3.50
-4.89
-6.90
-9.28
-11.62
-13.48
-14.51
-14.54
-13.59
-11.77
-9.25
-6.14
-2.57
1.27
5.06
8.40
10.91
12.35
12.75
12.37
11.52
10.50
9.48
8.51
7.60
6.80
6.18
5.80
5.56
5.32
4.90
4.19
3.21
2.12
1.05
0.08
-0.89
-2.02
-3.50
-5.38
-7.56
-9.75
-11.59
-12.75
-12.99
-12.16
-10.32
-7.60
-4.28
-0.68
2.85
5.99
8.45
10.06
10.72
10.41
9.21
7.32
5.06
2.89
1.22
0.36
0.31
0.83
1.50
1.98
2.09
1.94
1.74
1.64
1.60
1.39
0.72
-0.66
-2.76
-5.44
-8.44
-11.44
-14.15
-16.29
-17.55
-17.69
-16.54
-14.15
-10.79
-6.89
-2.99
0.44
3.06
4.71
5.39
5.26
4.54
3.53
2.51
1.72
1.29
1.21
1.35
1.53
1.56
1.34
0.89
0.29
-0.38
-1.05
-1.71
-2.44
-3.33
-4.46
-5.91
-7.66
-9.59
-11.44
-12.81
-13.28
-12.54
-10.45
-7.11
-2.90
1.71
6.24
10.29
13.60
15.97
17.30
17.52
16.69
14.98
12.71
10.33
8.29
6.87
6.12
5.81
5.55
5.00
3.97
2.61
1.24
0.21
-0.33
-0.51
-0.70
-1.22
-2.27
-3.79
-5.67
-7.79
-10.04
-12.23
-13.95
-14.57
-13.55
-10.69
-6.46
-1.80
2.26
5.06
6.59
7.34
7.92
8.60
9.17
9.18
8.34
6.79
5.13
4.02
3.85
4.47
5.21
5.35
4.48
2.72
0.69
-0.87
-1.54
-1.40
-1.11
-1.50
-3.10
-5.89
-9.25
-12.25
-14.04
-14.21
-12.86
-10.45
-7.50
-4.30
-0.92
2.65
6.30
9.74
12.49
14.10
14.34
13.31
11.37
9.03
6.74
4.86
3.51
2.68
2.24
1.98
1.72
1.32
0.72
-0.01
-0.79
-1.54
-2.27
-3.09
-4.18
-5.68
-7.64
-9.94
-12.26
-14.15
-15.18
-15.06
-13.68
-11.18
-7.82
-3.91
0.24
4.36
8.15
11.23
13.24
13.93
13.33
11.75
9.73
7.82
6.36
5.43
4.90
4.54
4.21
3.84
3.46
3.06
2.60
1.97
1.03
-0.34
-2.14
-4.30
-6.66
-8.97
-11.00
-12.51
-13.31
-13.27
-12.26
-10.22
-7.21
-3.45
0.65
4.52
7.62
9.59
10.32
10.02
9.02
7.72
6.44
5.36
4.53
3.93
3.50
3.18
2.95
2.80
2.64
2.42
2.01
1.34
0.38
-0.81
-2.11
-3.47
-4.88
-6.41
-8.07
-9.78
-11.26
-12.07
-11.79
-10.15
-7.22
-3.39
0.74
4.57
7.69
9.94
11.40
12.17
12.31
11.76
10.50
8.67
6.61
4.81
3.67
3.36
3.66
4.11
4.24
3.74
2.66
1.31
0.06
-0.84
-1.40
-1.88
-2.62
-3.87
-5.65
-7.73
-9.76
-11.34
-12.20
-12.18
-11.21
-9.26
-6.40
-2.81
1.11
4.81
7.71
9.40
9.80
9.17
8.02
6.87
6.09
5.75
5.71
5.71
5.51
5.01
4.22
3.26
2.22
1.17
0.13
-0.89
-1.86
-2.75
-3.56
-4.34
-5.33
-6.75
-8.77
-11.31
-13.98
-16.14
-17.13
-16.59
-14.61
-11.64
-8.35
-5.26
-2.58
-0.25
1.92
3.96
5.65
6.60
6.50
5.36
3.57
1.78
0.62
0.42
0.99
1.80
2.21
1.83
0.71
-0.74
-1.98
-2.59
-2.64
-2.47
-2.56
-3.23
-4.49
-6.07
-7.63
-8.85
-9.58
-9.76
-9.32
-8.14
-6.11
-3.17
0.51
4.64
8.72
12.26
14.83
16.19
16.28
15.21
13.26
10.76
8.05
5.41
3.06
1.10
-0.44
-1.58
-2.41
-3.01
-3.44
-3.75
-3.95
-4.02
-4.01
-3.95
-3.92
-4.02
-4.30
-4.75
-5.31
-5.82
-6.12
-6.01
-5.34
-3.97
-1.88
0.90
4.21
7.76
11.20
14.12
16.17
17.16
17.09
16.16
14.67
12.99
11.36
9.93
8.70
7.63
6.67
5.80
5.00
4.27
3.55
2.80
1.97
1.09
0.26
-0.43
-1.01
-1.66
-2.68
-4.34
-6.66
-9.38
-11.95
-13.73
-14.22
-13.25
-10.96
-7.80
-4.26
-0.79
2.32
4.85
6.65
7.55
7.46
6.39
4.55
2.33
0.17
-1.59
-2.80
-3.55
-4.07
-4.55
-5.11
-5.68
-6.19
-6.59
-7.02
-7.72
-8.93
-10.74
-13.00
-15.28
-17.00
-17.65
-16.91
-14.79
-11.51
-7.48
-3.11
1.18
5.06
8.25
10.51
11.66
11.63
10.55
8.74
6.69
4.92
3.81
3.51
3.81
4.38
4.81
4.85
4.45
3.74
2.87
1.89
0.72
-0.81
-2.82
-5.32
-8.08
-10.72
-12.83
-13.97
-13.90
-12.53
-10.00
-6.58
-2.66
1.36
5.10
8.22
10.43
11.52
11.45
10.35
8.57
6.57
4.80
3.53
2.77
2.34
2.04
1.73
1.43
1.21
1.11
1.00
0.63
-0.25
-1.79
-3.92
-6.35
-8.73
-10.72
-12.02
-12.45
-11.88
-10.27
-7.66
-4.23
-0.31
3.63
7.12
9.70
11.14
11.39
10.64
9.19
7.36
5.40
3.48
1.72
0.23
-0.90
-1.61
-1.87
-1.79
-1.54
-1.33
-1.38
-1.83
-2.76
-4.15
-5.94
-7.97
-10.01
-11.76
-12.89
-13.09
-12.13
-9.90
-6.50
-2.23
2.40
6.71
10.14
12.27
13.01
12.54
11.16
9.21
6.99
4.76
2.80
1.36
0.63
0.58
0.97
1.37
1.39
0.88
-0.11
-1.27
-2.36
-3.28
-4.13
-5.15
-6.49
-8.09
-9.62
-10.61
-10.57
-9.14
-6.30
-2.28
2.39
7.05
11.03
13.82
15.17
15.06
13.65
11.26
8.28
5.15
2.32
0.22
-0.95
-1.21
-0.93
-0.66
-0.89
-1.82
-3.31
-4.92
-6.26
-7.14
-7.83
-8.78
-10.40
-12.68
-15.12
-16.88
-17.18
-15.59
-12.39
-8.31
-4.16
-0.46
2.71
5.62
8.43
11.06
12.96
13.53
12.42
9.87
6.63
3.65
1.65
0.86
0.97
1.44
1.77
1.76
1.43
0.92
0.31
-0.42
-1.38
-2.68
-4.31
-6.19
-8.18
-10.10
-11.76
-12.87
-13.12
-12.25
-10.16
-6.97
-3.02
1.22
5.27
8.71
11.27
12.77
13.18
12.55
11.12
9.17
7.08
5.18
3.74
2.86
2.47
2.41
2.43
2.31
1.94
1.32
0.57
-0.15
-0.76
-1.32
-2.04
-3.17
-4.88
-7.10
-9.49
-11.51
-12.57
-12.22
-10.31
-7.06
-2.95
1.40
5.43
8.70
11.00
12.25
12.52
11.94
10.67
8.92
6.99
5.15
3.68
2.74
2.31
2.20
2.15
1.95
1.53
0.96
0.39
-0.11
-0.57
-1.18
-2.15
-3.60
-5.52
-7.74
-10.00
-11.95
-13.27
-13.62
-12.71
-10.42
-6.81
-2.24
2.72
7.37
11.10
13.48
14.39
13.98
12.57
10.52
8.19
5.88
3.87
2.35
1.47
1.26
1.59
2.20
2.80
3.19
3.23
2.93
2.34
1.52
0.46
-0.93
-2.76
-5.07
-7.78
-10.66
-13.30
-15.16
-15.75
-14.76
-12.16
-8.27
-3.67
0.99
5.17
8.57
11.08
12.75
13.66
13.83
13.27
12.03
10.26
8.23
6.25
4.54
3.24
2.31
1.73
1.43
1.39
1.57
1.84
2.03
1.97
1.58
0.91
0.09
-0.75
-1.64
-2.73
-4.20
-6.00
-7.84
-9.20
-9.49
-8.37
-5.81
-2.21
1.82
5.69
8.98
11.52
13.33
14.50
15.04
14.81
13.71
11.78
9.36
7.02
5.37
4.76
5.12
5.93
6.51
6.34
5.31
3.74
2.17
1.03
0.48
0.30
0.07
-0.56
-1.80
-3.60
-5.72
-7.87
-9.70
-10.91
-11.22
-10.45
-8.55
-5.62
-1.91
2.24
6.48
10.45
13.81
16.19
17.32
17.03
15.47
13.10
10.60
8.60
7.46
7.15
7.29
7.41
7.14
6.38
5.25
3.96
2.62
1.22
-0.32
-2.02
-3.77
-5.42
-6.83
-8.05
-9.27
-10.74
-12.56
-14.58
-16.33
-17.23
-16.77
-14.76
-11.39
-7.20
-2.83
1.15
4.39
6.83
8.52
9.53
9.83
9.32
7.97
5.87
3.37
0.93
-0.97
-2.03
-2.19
-1.67
-0.82
-0.03
0.41
0.31
-0.36
-1.51
-3.02
-4.76
-6.73
-8.96
-11.49
-14.27
-17.00
-19.20
-20.33
-19.97
-18.05
-14.82
-10.81
-6.56
-2.49
1.14
4.21
6.59
8.14
8.72
8.33
7.12
5.46
3.75
2.32
1.31
0.68
0.26
-0.14
-0.65
-1.31
-2.10
-2.94
-3.72
-4.35
-4.80
-5.10
-5.35
-5.72
-6.37
-7.38
-8.75
-10.30
-11.72
-12.61
-12.60
-11.42
-9.02
-5.59
-1.56
2.51
6.13
8.90
10.65
11.43
11.35
10.58
9.25
7.50
5.48
3.41
1.57
0.18
-0.65
-1.01
-1.15
-1.40
-1.97
-2.90
-4.06
-5.22
-6.22
-7.11
-8.08
-9.44
-11.40
-13.91
-16.59
-18.88
-20.14
-19.94
-18.17
-15.06
-11.10
-6.82
-2.66
1.11
4.36
7.00
8.93
10.07
10.38
9.98
9.18
8.30
7.62
7.21
7.02
6.89
6.67
6.30
5.80
5.20
4.52
3.73
2.75
1.48
-0.21
-2.37
-4.98
-7.84
-10.57
-12.72
-13.86
-13.71
-12.28
-9.75
-6.47
-2.77
1.01
4.56
7.61
9.88
11.17
11.43
10.83
9.72
8.52
7.60
7.13
7.05
7.12
7.13
6.91
6.47
5.88
5.23
4.52
3.65
2.49
0.95
-1.00
-3.24
-5.57
-7.74
-9.46
-10.45
-10.51
-9.56
-7.66
-4.97
-1.75
1.68
4.96
7.72
9.69
10.74
10.92
10.41
9.48
8.31
7.03
5.64
4.20
2.81
1.67
0.87
0.41
0.15
-0.13
-0.57
-1.18
-1.88
-2.57
-3.34
-4.33
-5.69
-7.36
-8.98
-10.00
-9.85
-8.27
-5.46
-1.99
1.40
4.15
6.03
7.15
7.80
8.24
8.47
8.34
7.66
6.38
4.74
3.14
2.00
1.53
1.58
1.77
1.70
1.16
0.28
-0.67
-1.48
-2.21
-3.27
-5.14
-8.05
-11.74
-15.41
-18.03
-18.78
-17.39
-14.24
-10.15
-5.95
-2.18
1.09
4.10
7.11
10.20
13.12
15.52
17.11
17.90
18.13
18.16
18.13
17.92
17.17
15.51
12.81
9.27
5.39
1.67
-1.56
-4.22
-6.50
-8.67
-10.92
-13.25
-15.48
-17.24
-18.13
-17.77
-15.93
-12.64
-8.15
-2.97
2.33
7.20
11.31
14.44
16.50
17.47
17.34
16.14
14.03
11.26
8.17
5.11
2.33
-0.01
-1.87
-3.25
-4.17
-4.71
-5.03
-5.35
-5.93
-6.97
-8.55
-10.57
-12.76
-14.75
-16.15
-16.59
-15.87
-13.95
-10.96
-7.17
-3.01
1.04
4.55
7.20
8.88
9.62
9.58
8.97
7.98
6.79
5.52
4.30
3.19
2.22
1.35
0.52
-0.35
-1.35
-2.52
-3.85
-5.28
-6.72
-8.14
-9.51
-10.88
-12.29
-13.62
-14.63
-14.93
-14.12
-12.02
-8.72
-4.64
-0.34
3.59
6.82
9.23
10.92
12.01
12.52
12.39
11.53
9.99
7.98
5.88
4.08
2.84
2.17
1.90
1.77
1.57
1.24
0.82
0.35
-0.20
-0.93
-2.00
-3.46
-5.15
-6.75
-7.75
-7.71
-6.41
-3.90
-0.58
3.02
6.40
9.21
11.29
12.59
13.14
12.96
12.09
10.68
8.96
7.27
5.90
5.04
4.72
4.81
5.03
5.17
5.03
4.54
3.72
2.66
1.39
-0.08
-1.82
-3.83
-6.00
-7.99
-9.39
-9.75
-8.84
-6.68
-3.58
-0.01
3.52
6.56
8.78
9.95
10.00
9.00
7.22
5.06
2.93
1.14
-0.22
-1.23
-2.08
-2.88
-3.63
-4.17
-4.38
-4.21
-3.94
-3.98
-4.79
-6.67
-9.58
-13.11
-16.56
-19.12
-20.16
-19.29
-16.50
-12.04
-6.41
-0.23
5.82
11.06
14.94
17.11
17.50
16.34
14.03
11.08
7.93
4.91
2.22
-0.11
-2.09
-3.83
-5.38
-6.71
-7.65
-7.95
-7.46
-6.24
-4.67
-3.35
-2.88
-3.60
-5.40
-7.76
-9.96
-11.32
-11.43
-10.21
-7.87
-4.77
-1.28
2.26
5.50
8.13
9.83
10.43
9.95
8.64
6.89
5.19
3.88
3.11
2.83
2.81
2.79
2.62
2.27
1.88
1.61
1.61
1.89
2.29
2.50
2.21
1.15
-0.72
-3.24
-6.06
-8.66
-10.55
-11.32
-10.80
-9.07
-6.45
-3.41
-0.44
2.07
3.86
4.83
5.04
4.69
4.09
3.60
3.54
4.07
5.15
6.53
7.88
8.89
9.41
9.39
8.88
7.92
6.46
4.44
1.80
-1.46
-5.24
-9.42
-13.87
-18.41
-22.78
-26.50
-28.95
-29.45
-27.53
-23.17
-16.82
-9.40
-1.98
4.50
9.44
12.69
14.39
14.87
14.43
13.37
11.89
10.23
8.60
7.14
5.92
4.88
3.86
2.71
1.36
-0.13
-1.60
-2.87
-3.74
-4.20
-4.34
-4.40
-4.69
-5.47
-6.89
-8.84
-11.00
-12.83
-13.77
-13.37
-11.49
-8.30
-4.24
0.17
4.42
8.16
11.17
13.38
14.76
15.35
15.22
14.50
13.40
12.15
10.97
10.04
9.42
9.03
8.72
8.28
7.53
6.38
4.90
3.25
1.60
0.09
-1.28
-2.54
-3.79
-5.09
-6.49
-7.99
-9.61
-11.28
-12.82
-13.95
-14.28
-13.45
-11.27
-7.84
-3.55
1.01
5.22
8.61
10.96
12.23
12.53
11.98
10.76
9.06
7.15
5.42
4.19
3.65
3.76
4.27
4.80
5.07
4.93
4.44
3.75
2.96
2.11
1.10
-0.24
-2.03
-4.31
-6.95
-9.67
-12.08
-13.79
-14.44
-13.88
-12.10
-9.32
-5.82
-1.92
2.13
6.12
9.85
13.07
15.48
16.82
16.95
15.99
14.25
12.16
10.11
8.32
6.83
5.59
4.59
3.90
3.57
3.60
3.82
3.88
3.46
2.35
0.60
-1.58
-3.93
-6.33
-8.79
-11.43
-14.29
-17.14
-19.46
-20.60
-20.01
-17.50
-13.38
-8.36
-3.27
1.14
4.49
6.66
7.74
7.93
7.39
6.34
5.08
3.94
3.19
2.92
2.97
3.06
2.94
2.50
1.88
1.27
0.87
0.65
0.46
0.08
-0.63
-1.65
-2.84
-4.05
-5.17
-6.38
-7.86
-9.72
-11.77
-13.49
-14.18
-13.26
-10.55
-6.48
-1.84
2.56
6.17
8.87
10.86
12.36
13.44
13.91
13.51
12.22
10.31
8.33
6.86
6.26
6.46
7.01
7.30
6.86
5.56
3.66
1.64
-0.05
-1.12
-1.63
-1.88
-2.25
-3.01
-4.31
-6.07
-8.08
-10.00
-11.50
-12.25
-12.04
-10.82
-8.70
-5.91
-2.74
0.56
3.73
6.57
8.85
10.35
10.88
10.46
9.26
7.64
6.01
4.69
3.82
3.31
2.94
2.49
1.82
0.95
-0.00
-0.88
-1.61
-2.22
-2.83
-3.53
-4.40
-5.46
-6.69
-8.05
-9.52
-10.99
-12.29
-13.14
-13.21
-12.25
-10.18
-7.15
-3.52
0.27
3.80
6.75
8.95
10.40
11.12
11.20
10.71
9.75
8.43
6.91
5.36
3.98
2.89
2.14
1.66
1.31
0.93
0.38
-0.39
-1.35
-2.41
-3.51
-4.66
-5.92
-7.38
-9.08
-10.90
-12.59
-13.80
-14.24
-13.71
-12.20
-9.81
-6.74
-3.22
0.53
4.25
7.57
10.10
11.48
11.50
10.26
8.11
5.66
3.46
1.89
1.05
0.72
0.58
0.35
-0.07
-0.58
-1.02
-1.28
-1.36
-1.45
-1.73
-2.36
-3.36
-4.67
-6.19
-7.82
-9.44
-10.92
-12.05
-12.54
-12.12
-10.62
-8.06
-4.70
-0.96
2.64
5.71
8.00
9.45
10.09
9.97
9.13
7.64
5.68
3.56
1.74
0.58
0.28
0.69
1.43
2.07
2.31
2.05
1.42
0.59
-0.33
-1.42
-2.79
-4.58
-6.78
-9.19
-11.43
-13.05
-13.65
-13.05
-11.32
-8.74
-5.69
-2.50
0.64
3.59
6.23
8.30
9.51
9.64
8.69
6.96
4.98
3.29
2.17
1.58
1.23
0.75
-0.02
-1.01
-1.91
-2.46
-2.55
-2.40
-2.43
-3.04
-4.43
-6.51
-8.89
-11.09
-12.67
-13.40
-13.18
-12.04
-10.07
-7.38
-4.14
-0.61
2.91
6.08
8.62
10.30
11.03
10.80
9.74
8.12
6.29
4.56
3.18
2.23
1.59
1.10
0.59
0.03
-0.51
-0.92
-1.14
-1.32
-1.66
-2.41
-3.68
-5.40
-7.30
-9.02
-10.24
-10.71
-10.28
-8.93
-6.68
-3.66
-0.11
3.63
7.14
10.02
11.95
12.81
12.67
11.76
10.43
8.98
7.62
6.41
5.29
4.16
2.97
1.78
0.75
0.02
-0.38
-0.57
-0.79
-1.28
-2.19
-3.56
-5.32
-7.31
-9.36
-11.23
-12.64
-13.26
-12.80
-11.09
-8.22
-4.50
-0.50
3.21
6.11
7.90
8.53
8.11
6.94
5.34
3.63
2.06
0.79
-0.09
-0.58
-0.77
-0.74
-0.63
-0.55
-0.61
-0.87
-1.33
-2.00
-2.91
-4.06
-5.51
-7.20
-8.99
-10.57
-11.46
-11.23
-9.59
-6.55
-2.46
2.06
6.34
9.77
11.99
12.84
12.43
11.07
9.19
7.19
5.43
4.06
3.08
2.37
1.82
1.35
0.98
0.71
0.50
0.21
-0.29
-1.15
-2.37
-3.84
-5.45
-7.11
-8.80
-10.46
-11.93
-12.86
-12.81
-11.37
-8.40
-4.18
0.71
5.45
9.35
11.99
13.30
13.50
12.89
11.76
10.35
8.82
7.31
5.94
4.80
3.93
3.33
2.96
2.72
2.48
2.05
1.27
0.04
-1.60
-3.52
-5.52
-7.46
-9.25
-10.79
-11.88
-12.18
-11.32
-9.00
-5.31
-0.69
4.10
8.25
11.19
12.71
13.00
12.46
11.49
10.31
8.99
7.50
5.87
4.22
2.75
1.61
0.81
0.22
-0.40
-1.26
-2.41
-3.79
-5.27
-6.78
-8.37
-10.16
-12.22
-14.35
-16.10
-16.82
-15.94
-13.25
-9.00
-3.84
1.39
5.99
9.56
12.07
13.66
14.50
14.64
14.06
12.75
10.88
8.78
6.91
5.65
5.14
5.24
5.53
5.59
5.14
4.16
2.87
1.47
0.08
-1.42
-3.25
-5.53
-8.11
-10.59
-12.37
-12.95
-12.09
-9.88
-6.69
-2.98
0.83
4.42
7.59
10.18
12.05
13.02
13.00
11.96
10.16
8.03
6.12
4.88
4.46
4.66
5.02
5.04
4.45
3.34
2.03
0.79
-0.31
-1.48
-3.04
-5.15
-7.65
-10.12
-12.01
-13.02
-13.05
-12.21
-10.57
-8.10
-4.71
-0.44
4.33
8.85
12.21
13.76
13.36
11.47
8.98
6.76
5.33
4.64
4.29
3.80
2.97
1.94
1.11
0.78
0.97
1.32
1.28
0.46
-1.19
-3.37
-5.59
-7.49
-8.92
-10.00
-10.85
-11.43
-11.40
-10.30
-7.81
-3.97
0.74
5.53
9.56
12.24
13.36
13.09
11.82
10.00
8.08
6.36
5.03
4.16
3.69
3.49
3.38
3.25
3.06
2.79
2.41
1.86
1.05
-0.09
-1.56
-3.33
-5.31
-7.44
-9.64
-11.76
-13.54
-14.61
-14.57
-13.14
-10.30
-6.27
-1.49
3.50
8.15
11.98
14.63
15.92
15.83
14.59
12.59
10.32
8.23
6.63
5.58
4.98
4.62
4.30
3.92
3.46
2.90
2.22
1.36
0.28
-0.96
-2.25
-3.50
-4.73
-6.13
-7.96
-10.38
-13.21
-15.92
-17.74
-17.97
-16.18
-12.48
-7.38
-1.67
3.86
8.65
12.36
14.93
16.39
16.81
16.25
14.85
12.85
10.58
8.46
6.79
5.72
5.18
4.92
4.64
4.12
3.29
2.16
0.86
-0.52
-1.90
-3.28
-4.69
-6.16
-7.70
-9.35
-11.13
-13.07
-15.18
-17.32
-19.19
-20.34
-20.27
-18.64
-15.41
-10.96
-5.95
-1.12
2.96
6.04
8.16
9.55
10.37
10.73
10.57
9.88
8.74
7.43
6.34
5.84
6.07
6.88
7.86
8.49
8.44
7.64
6.30
4.76
3.29
1.97
0.70
-0.68
-2.27
-4.01
-5.77
-7.51
-9.26
-11.09
-12.94
-14.46
-15.07
-14.22
-11.64
-7.53
-2.58
2.40
6.68
9.91
12.07
13.34
13.85
13.65
12.70
11.07
9.03
7.03
5.55
4.89
5.03
5.63
6.16
6.19
5.54
4.35
2.98
1.86
1.26
1.11
1.12
0.89
0.16
-1.10
-2.67
-4.26
-5.65
-6.74
-7.53
-7.96
-7.84
-6.87
-4.77
-1.51
2.64
7.09
11.12
14.09
15.60
15.57
14.20
11.86
9.05
6.24
3.78
1.87
0.50
-0.52
-1.45
-2.50
-3.77
-5.21
-6.69
-8.01
-9.03
-9.74
-10.23
-10.69
-11.34
-12.35
-13.76
-15.48
-17.26
-18.71
-19.39
-18.88
-16.93
-13.51
-8.92
-3.70
1.47
5.94
9.21
11.06
11.52
10.84
9.37
7.51
5.62
3.97
2.72
1.90
1.45
1.23
1.10
0.91
0.52
-0.15
-1.11
-2.32
-3.63
-4.94
-6.20
-7.51
-9.00
-10.77
-12.73
-14.55
-15.72
-15.74
-14.29
-11.37
-7.36
-2.83
1.58
5.37
8.26
10.19
11.21
11.39
10.79
9.48
7.60
5.47
3.51
2.12
1.49
1.47
1.68
1.69
1.25
0.41
-0.53
-1.25
-1.63
-1.80
-2.11
-2.87
-4.26
-6.15
-8.22
-10.06
-11.27
-11.56
-10.77
-8.85
-5.91
-2.18
1.99
6.19
9.96
12.90
14.70
15.21
14.46
12.73
10.47
8.17
6.24
4.86
3.99
3.38
2.79
2.04
1.13
0.15
-0.78
-1.63
-2.48
-3.49
-4.78
-6.39
-8.22
-10.11
-11.84
-13.17
-13.85
-13.61
-12.25
-9.68
-6.03
-1.63
2.96
7.16
10.44
12.46
13.15
12.62
11.19
9.26
7.24
5.44
4.03
3.01
2.33
1.89
1.65
1.59
1.63
1.64
1.43
0.82
-0.30
-1.88
-3.77
-5.73
-7.58
-9.15
-10.28
-10.79
-10.45
-9.07
-6.56
-3.06
1.00
5.10
8.65
11.22
12.62
12.92
12.31
11.09
9.48
7.68
5.85
4.11
2.60
1.43
0.63
0.18
0.00
0.00
0.04
-0.04
-0.36
-1.03
-2.10
-3.54
-5.28
-7.24
-9.26
-11.13
-12.49
-12.92
-12.03
-9.66
-6.01
-1.64
2.75
6.53
9.32
11.06
11.86
11.91
11.29
10.06
8.33
6.35
4.49
3.14
2.53
2.62
3.13
3.68
3.89
3.57
2.71
1.49
0.13
-1.22
-2.52
-3.87
-5.32
-6.80
-8.01
-8.51
-7.96
-6.24
-3.58
-0.44
2.64
5.36
7.60
9.40
10.70
11.33
11.03
9.72
7.59
5.15
3.00
1.56
0.92
0.82
0.85
0.61
-0.05
-1.09
-2.34
-3.62
-4.94
-6.36
-7.99
-9.87
-11.84
-13.61
-14.76
-14.94
-14.07
-12.28
-9.90
-7.29
-4.67
-2.05
0.58
3.17
5.42
6.90
7.22
6.33
4.57
2.56
0.94
0.07
-0.16
-0.14
-0.24
-0.60
-1.00
-1.09
-0.61
0.33
1.19
1.34
0.30
-1.93
-4.85
-7.67
-9.64
-10.32
-9.76
-8.27
-6.25
-3.92
-1.34
1.50
4.51
7.39
9.66
10.89
10.89
9.80
8.02
6.06
4.30
2.94
1.96
1.23
0.61
0.04
-0.47
-0.90
-1.24
-1.52
-1.84
-2.31
-3.09
-4.28
-5.95
-7.99
-10.14
-11.97
-13.05
-13.01
-11.75
-9.38
-6.26
-2.77
0.75
4.01
6.83
9.00
10.31
10.57
9.80
8.21
6.18
4.19
2.60
1.56
1.01
0.74
0.54
0.24
-0.23
-0.87
-1.64
-2.50
-3.42
-4.37
-5.35
-6.43
-7.61
-8.84
-9.94
-10.61
-10.50
-9.37
-7.19
-4.18
-0.77
2.59
5.49
7.70
9.14
9.82
9.78
9.10
7.89
6.36
4.80
3.51
2.66
2.25
2.13
2.03
1.73
1.15
0.31
-0.70
-1.82
-3.05
-4.44
-6.01
-7.74
-9.48
-11.02
-12.09
-12.43
-11.84
-10.21
-7.57
-4.14
-0.29
3.54
6.91
9.47
11.04
11.58
11.22
10.18
8.78
7.33
6.05
5.06
4.33
3.77
3.25
2.72
2.15
1.57
0.99
0.39
-0.30
-1.19
-2.38
-3.96
-5.87
-7.99
-10.06
-11.74
-12.65
-12.53
-11.25
-8.89
-5.68
-1.98
1.77
5.18
7.92
9.74
10.57
10.44
9.47
7.81
5.65
3.19
0.72
-1.42
-2.89
-3.53
-3.35
-2.71
-2.03
-1.69
-1.86
-2.45
-3.25
-4.09
-4.96
-6.02
-7.43
-9.16
-10.91
-12.12
-12.24
-10.93
-8.16
-4.37
-0.15
3.87
7.29
9.95
11.91
13.24
13.98
13.99
13.16
11.53
9.38
7.16
5.36
4.31
4.03
4.24
4.49
4.38
3.71
2.52
1.05
-0.43
-1.74
-2.91
-4.11
-5.54
-7.33
-9.34
-11.25
-12.56
-12.82
-11.76
-9.39
-6.00
-2.10
1.78
5.20
7.85
9.63
10.52
10.58
9.88
8.56
6.90
5.23
3.92
3.24
3.26
3.79
4.47
4.96
4.96
4.40
3.32
1.90
0.27
-1.46
-3.29
-5.23
-7.32
-9.53
-11.66
-13.41
-14.37
-14.13
-12.47
-9.45
-5.44
-0.99
3.33
7.06
9.95
11.91
12.92
12.99
12.17
10.61
8.62
6.61
5.00
4.01
3.61
3.49
3.27
2.68
1.67
0.47
-0.64
-1.44
-1.98
-2.52
-3.40
-4.89
-6.97
-9.36
-11.62
-13.28
-13.98
-13.54
-11.97
-9.38
-5.96
-1.98
2.21
6.16
9.40
11.52
12.26
11.66
10.01
7.83
5.68
3.99
2.95
2.44
2.21
1.92
1.37
0.53
-0.48
-1.46
-2.29
-3.00
-3.76
-4.76
-6.15
-7.86
-9.70
-11.35
-12.49
-12.90
-12.42
-11.00
-8.65
-5.45
-1.63
2.44
6.25
9.24
11.01
11.39
10.53
8.84
6.83
4.94
3.43
2.35
1.63
1.14
0.78
0.55
0.42
0.36
0.26
-0.04
-0.72
-1.88
-3.53
-5.55
-7.76
-9.90
-11.68
-12.79
-12.96
-12.00
-9.86
-6.64
-2.63
1.74
5.92
9.36
11.63
12.50
12.00
10.46
8.32
6.04
3.93
2.10
0.53
-0.83
-2.05
-3.09
-3.93
-4.54
-4.97
-5.35
-5.84
-6.61
-7.80
-9.43
-11.43
-13.63
-15.75
-17.48
-18.49
-18.45
-17.13
-14.40
-10.38
-5.42
-0.16
4.67
8.46
10.91
12.14
12.54
12.61
12.66
12.74
12.67
12.25
11.39
10.24
9.08
8.20
7.72
7.55
7.39
6.93
5.91
4.28
2.17
-0.20
-2.61
-4.95
-7.14
-9.07
-10.50
-11.10
-10.50
-8.50
-5.16
-0.85
3.86
8.37
12.21
15.03
16.67
17.12
16.48
14.96
12.85
10.52
8.32
6.51
5.22
4.40
3.82
3.18
2.20
0.79
-0.93
-2.65
-4.07
-5.06
-5.79
-6.62
-7.86
-9.58
-11.49
-13.00
-13.58
-12.91
-11.03
-8.18
-4.69
-0.77
3.40
7.59
11.35
14.10
15.35
14.93
13.13
10.61
8.10
6.12
4.80
3.96
3.29
2.65
2.06
1.68
1.62
1.78
1.80
1.23
-0.26
-2.65
-5.62
-8.58
-11.06
-12.78
-13.83
-14.42
-14.64
-14.31
-12.95
-10.12
-5.71
-0.12
5.64
10.41
13.30
14.04
13.06
11.20
9.25
7.68
6.45
5.32
4.02
2.60
1.32
0.47
0.17
0.26
0.32
0.00
-0.86
-2.16
-3.67
-5.14
-6.50
-7.80
-9.15
-10.56
-11.90
-12.88
-13.14
-12.38
-10.47
-7.44
-3.52
0.86
5.24
9.09
11.97
13.59
13.89
13.04
11.38
9.34
7.32
5.61
4.35
3.52
3.02
2.76
2.64
2.62
2.63
2.58
2.35
1.79
0.84
-0.52
-2.22
-4.18
-6.32
-8.60
-10.93
-13.16
-14.95
-15.90
-15.57
-13.71
-10.35
-5.86
-0.91
3.80
7.65
10.34
11.87
12.43
12.27
11.56
10.37
8.76
6.93
5.18
3.86
3.23
3.27
3.74
4.21
4.31
3.86
2.98
1.97
1.13
0.59
0.25
-0.23
-1.20
-2.86
-5.15
-7.73
-10.08
-11.72
-12.33
-11.81
-10.26
-7.84
-4.71
-1.02
3.01
7.03
10.59
13.19
14.45
14.34
13.08
11.16
9.07
7.18
5.65
4.52
3.74
3.31
3.19
3.31
3.51
3.53
3.15
2.23
0.82
-0.86
-2.50
-3.88
-4.93
-5.79
-6.76
-8.13
-10.05
-12.37
-14.69
-16.46
-17.16
-16.51
-14.54
-11.49
-7.77
-3.78
0.11
3.51
6.07
7.49
7.62
6.56
4.70
2.53
0.60
-0.74
-1.36
-1.38
-1.07
-0.72
-0.60
-0.79
-1.20
-1.66
-1.99
-2.16
-2.29
-2.58
-3.16
-4.00
-4.94
-5.82
-6.62
-7.40
-8.25
-9.08
-9.56
-9.20
-7.62
-4.80
-1.13
2.72
6.11
8.68
10.41
11.49
12.13
12.35
12.01
10.99
9.36
7.42
5.67
4.57
4.34
4.79
5.47
5.88
5.70
4.97
4.01
3.21
2.80
2.65
2.35
1.47
-0.19
-2.43
-4.76
-6.58
-7.43
-7.15
-5.89
-3.90
-1.40
1.51
4.81
8.46
12.27
15.86
18.76
20.57
21.05
20.28
18.62
16.61
14.78
13.45
12.69
12.32
12.04
11.58
10.78
9.62
8.22
6.68
5.13
3.62
2.10
0.46
-1.50
-3.89
-6.71
-9.73
-12.58
-14.80
-16.01
-16.00
-14.70
-12.13
-8.43
-3.79
1.38
6.48
10.79
13.65
14.72
14.09
12.24
9.85
7.49
5.43
3.65
1.95
0.13
-1.85
-3.86
-5.74
-7.37
-8.74
-10.00
-11.32
-12.79
-14.42
-16.11
-17.74
-19.20
-20.41
-21.26
-21.57
-21.10
-19.61
-17.03
-13.49
-9.40
-5.37
-1.95
0.47
1.79
2.14
1.80
1.06
0.13
-0.87
-1.92
-3.00
-4.06
-4.97
-5.56
-5.61
-4.99
-3.70
-1.96
-0.08
1.56
2.71
3.28
3.31
2.92
2.17
1.04
-0.39
-1.92
-3.16
-3.63
-2.98
-1.18
1.38
4.00
5.93
6.60
5.87
3.94
1.23
-1.77
-4.72
-7.38
-9.65
-11.45
-12.69
-13.32
-13.31
-12.74
-11.78
-10.67
-9.66
-8.93
-8.58
-8.62
-9.01
-9.71
-10.72
-12.02
-13.55
-15.14
-16.50
-17.25
-17.06
-15.74
-13.33
-10.10
-6.49
-3.02
-0.11
1.93
2.98
3.14
2.59
1.55
0.20
-1.34
-2.98
-4.58
-5.95
-6.89
-7.30
-7.20
-6.77
-6.24
-5.79
-5.49
-5.34
-5.36
-5.60
-6.13
-6.98
-8.03
-9.01
-9.56
-9.35
-8.19
-6.06
-3.15
0.19
3.54
6.48
8.68
10.02
10.50
10.23
9.37
8.07
6.44
4.63
2.85
1.36
0.36
-0.01
0.19
0.77
1.50
2.12
2.51
2.61
2.34
1.60
0.20
-2.01
-4.97
-8.31
-11.33
-13.19
-13.19
-11.06
-7.05
-1.89
3.48
8.20
11.75
13.95
14.86
14.60
13.34
11.24
8.59
5.75
3.13
1.10
-0.20
-0.80
-0.91
-0.74
-0.45
-0.10
0.20
0.32
-0.02
-1.12
-3.21
-6.31
-10.13
-14.07
-17.32
-19.13
-18.98
-16.80
-12.99
-8.20
-3.16
1.55
5.53
8.56
10.48
11.14
10.49
8.60
5.85
2.79
-0.07
-2.35
-3.95
-4.90
-5.32
-5.19
-4.49
-3.23
-1.71
-0.40
0.18
-0.29
-1.74
-3.80
-5.97
-7.87
-9.40
-10.57
-11.29
-11.19
-9.73
-6.42
-1.19
5.48
12.52
18.75
23.26
25.69
26.29
25.67
24.44
23.02
21.40
19.44
17.07
14.49
12.16
10.57
9.92
10.01
10.17
9.69
8.11
5.50
2.41
-0.48
-2.68
-4.16
-5.38
-6.93
-9.16
-11.91
-14.49
-15.91
-15.35
-12.40
-7.36
-1.02
5.55
11.40
15.87
18.73
20.08
20.21
19.40
17.87
15.75
13.19
10.38
7.60
5.18
3.41
2.46
2.28
2.65
3.25
3.77
3.99
3.85
3.39
2.75
2.02
1.20
0.27
-0.86
-2.21
-3.80
-5.58
-7.50
-9.51
-11.59
-13.61
-15.34
-16.41
-16.35
-14.71
-11.29
-6.18
0.10
6.77
12.90
17.70
20.69
21.79
21.25
19.58
17.35
15.06
13.07
11.59
10.69
10.36
10.43
10.69
10.87
10.76
10.21
9.24
7.93
6.45
4.94
3.54
2.29
1.19
0.19
-0.73
-1.57
-2.30
-2.90
-3.40
-3.96
-4.85
-6.37
-8.67
-11.65
-14.81
-17.43
-18.76
-18.25
-15.72
-11.41
-5.90
0.10
5.88
10.88
14.75
17.30
18.49
18.40
17.20
15.20
12.86
10.72
9.29
8.82
9.22
10.14
11.07
11.63
11.70
11.45
11.14
10.98
10.89
10.61
9.76
8.08
5.60
2.61
-0.48
-3.29
-5.61
-7.46
-8.94
-10.27
-11.65
-13.32
-15.49
-18.24
-21.38
-24.35
-26.26
-26.20
-23.50
-18.19
-10.97
-2.97
4.66
11.24
16.63
21.14
25.14
28.69
31.51
33.08
32.95
31.05
27.78
23.81
19.84
16.29
13.23
10.53
8.03
5.72
3.74
2.30
1.45
0.89
0.17
-1.21
-3.45
-6.36
-9.36
-11.73
-12.92
-12.75
-11.52
-9.80
-8.25
-7.37
-7.40
-8.35
-10.08
-12.45
-15.27
-18.27
-20.96
-22.66
-22.59
-20.20
-15.40
-8.70
-1.03
6.54
13.20
18.53
22.49
25.24
26.92
27.57
27.23
26.11
24.62
23.35
22.82
23.24
24.44
25.87
26.86
26.82
25.48
22.94
19.60
15.99
12.57
9.59
7.10
5.00
3.17
1.57
0.24
-0.76
-1.46
-1.98
-2.53
-3.39
-4.72
-6.53
-8.68
-10.84
-12.57
-13.48
-13.29
-11.90
-9.45
-6.24
-2.68
0.87
4.13
6.93
9.15
10.66
11.34
11.14
10.18
8.74
7.24
6.04
5.33
5.04
4.91
4.63
3.97
2.92
1.63
0.28
-1.02
-2.34
-3.86
-5.77
-8.13
-10.83
-13.63
-16.29
-18.75
-21.17
-23.85
-27.08
-30.91
-35.05
-38.94
-41.94
-43.58
-43.69
-42.37
-39.92
-36.67
-32.91
-28.96
-25.14
-21.88
-19.59
-18.58
-18.91
-20.31
-22.21
-23.92
-24.79
-24.42
-22.73
-19.97
-16.62
-13.22
-10.20
-7.81
-6.04
-4.69
-3.49
-2.19
-0.68
1.03
2.85
4.64
6.32
7.80
8.98
9.69
9.67
8.72
6.78
4.10
1.11
-1.63
-3.69
-4.82
-5.01
-4.30
-2.76
-0.40
2.71
6.36
10.17
13.62
16.27
17.80
18.16
17.53
16.13
14.23
12.04
9.76
7.56
5.62
4.08
2.97
2.23
1.65
0.97
-0.04
-1.55
-3.58
-6.05
-8.74
-11.40
-13.82
-15.87
-17.52
-18.82
-19.84
-20.62
-21.12
-21.24
-20.90
-20.06
-18.73
-16.95
-14.77
-12.21
-9.27
-6.03
-2.59
0.87
4.16
7.14
9.69
11.71
13.15
13.96
14.14
13.78
13.06
12.22
11.48
10.99
10.78
10.76
10.75
10.57
10.05
9.16
8.01
6.85
5.99
5.64
5.79
6.13
6.16
5.35
3.42
0.48
-3.00
-6.31
-8.81
-10.02
-9.81
-8.30
-5.79
-2.64
0.77
4.08
6.94
9.04
10.22
10.47
10.01
9.22
8.47
8.00
7.85
7.92
8.13
8.50
9.20
10.40
12.13
14.12
15.89
16.92
16.96
16.06
14.56
12.87
11.21
9.59
7.86
5.90
3.75
1.62
-0.27
-1.71
-2.68
-3.15
-3.09
-2.27
-0.43
2.67
7.00
12.21
17.65
22.51
26.02
27.60
27.00
24.31
19.96
14.66
9.11
3.98
-0.37
-3.97
-7.15
-10.30
-13.74
-17.56
-21.73
-26.10
-30.43
-34.40
-37.55
-39.29
-39.15
-37.01
-33.44
-29.42
-26.04
-23.93
-22.90
-22.04
-20.30
-17.01
-12.40
-7.34
-2.85
0.47
2.71
4.42
6.14
7.95
9.25
9.27
7.51
4.25
0.47
-2.54
-3.87
-3.34
-1.69
-0.02
0.74
0.27
-1.10
-2.70
-3.98
-4.75
-5.28
-6.00
-7.20
-8.85
-10.69
-12.36
-13.63
-14.36
-14.56
-14.26
-13.45
-12.09
-10.19
-7.83
-5.14
-2.22
0.87
3.98
6.86
9.07
10.13
9.76
8.09
5.70
3.48
2.16
2.04
2.85
3.85
4.35
3.96
2.82
1.42
0.23
-0.53
-1.04
-1.67
-2.82
-4.70
-7.30
-10.48
-14.00
-17.58
-20.85
-23.30
-24.35
-23.51
-20.55
-15.67
-9.52
-2.95
3.14
8.08
11.51
13.41
13.98
13.58
12.62
11.46
10.41
9.63
9.13
8.79
8.40
7.78
6.84
5.60
4.17
2.69
1.30
0.08
-0.88
-1.55
-1.95
-2.22
-2.65
-3.62
-5.44
-8.15
-11.38
-14.45
-16.61
-17.34
-16.55
-14.59
-12.03
-9.46
-7.28
-5.77
-5.01
-5.04
-5.78
-7.02
-8.34
-9.25
-9.27
-8.12
-5.86
-2.84
0.44
3.51
6.04
7.96
9.32
10.21
10.63
10.49
9.65
8.12
6.07
3.89
2.02
0.83
0.50
1.03
2.33
4.29
6.79
9.71
12.81
15.79
18.24
19.79
20.21
19.42
17.59
15.01
12.08
9.12
6.41
4.06
2.11
0.56
-0.55
-1.19
-1.35
-1.15
-0.81
-0.64
-0.93
-1.82
-3.29
-5.18
-7.27
-9.38
-11.37
-13.05
-14.12
-14.16
-12.73
-9.58
-4.78
1.17
7.45
13.18
17.72
20.72
22.24
22.59
22.11
21.07
19.67
18.09
16.56
15.40
14.87
15.08
15.93
16.99
17.78
17.89
17.16
15.70
13.79
11.68
9.43
6.93
3.99
0.64
-2.78
-5.61
-7.09
-6.64
-4.05
0.29
5.64
11.03
15.61
18.81
20.35
20.28
18.90
16.61
13.87
11.13
8.75
6.94
5.73
5.00
4.59
4.28
3.87
3.17
2.00
0.19
-2.32
-5.49
-9.11
-12.91
-16.68
-20.24
-23.50
-26.28
-28.31
-29.19
-28.55
-26.26
-22.53
-17.95
-13.32
-9.41
-6.79
-5.61
-5.71
-6.69
-8.06
-9.48
-10.72
-11.67
-12.30
-12.50
-12.19
-11.33
-10.02
-8.50
-7.12
-6.14
-5.69
-5.72
-6.08
-6.65
-7.39
-8.38
-9.63
-11.03
-12.26
-12.84
-12.26
-10.19
-6.63
-1.94
3.20
7.99
11.70
13.91
14.51
13.75
12.09
9.98
7.83
5.88
4.27
3.02
2.16
1.70
1.61
1.81
2.09
2.23
1.99
1.29
0.21
-1.06
-2.35
-3.67
-5.19
-7.08
-9.27
-11.30
-12.37
-11.64
-8.65
-3.61
2.65
9.01
14.47
18.51
21.16
22.71
23.48
23.59
23.00
21.68
19.73
17.46
15.27
13.44
11.97
10.67
9.19
7.29
4.94
2.28
-0.42
-3.02
-5.55
-8.22
-11.30
-14.97
-19.12
-23.32
-26.84
-28.84
-28.65
-25.94
-20.93
-14.27
-6.86
0.40
6.91
12.40
16.83
20.25
22.70
24.14
24.59
24.23
23.46
22.79
22.64
23.28
24.71
26.85
29.58
32.91
36.90
41.51
46.44
51.05
54.43
55.65
54.14
49.89
43.56
36.32
29.44
23.88
20.02
17.65
16.14
14.81
13.19
11.13
8.70
6.10
3.45
0.82
-1.77
-4.26
-6.54
-8.45
-9.93
-11.04
-11.94
-12.85
-13.91
-15.07
-16.15
-16.91
-17.23
-17.24
-17.31
-17.87
-19.22
-21.31
-23.77
-25.98
-27.31
-27.30
-25.67
-22.32
-17.28
-10.73
-3.10
4.93
12.39
18.23
21.56
21.89
19.31
14.44
8.23
1.66
-4.50
-9.91
-14.50
-18.40
-21.67
-24.27
-26.06
-26.91
-26.87
-26.16
-25.13
-24.12
-23.39
-23.08
-23.22
-23.75
-24.52
-25.26
-25.63
-25.25
-23.84
-21.29
-17.71
-13.37
-8.64
-4.00
0.06
3.07
4.70
4.85
3.66
1.50
-1.21
-4.09
-6.84
-9.23
-11.02
-11.93
-11.81
-10.65
-8.79
-6.80
-5.33
-4.90
-5.70
-7.55
-10.03
-12.64
-14.98
-16.76
-17.86
-18.15
-17.48
-15.68
-12.72
-8.76
-4.17
0.54
4.86
8.52
11.46
13.80
15.60
16.85
17.51
17.57
17.25
16.87
16.67
16.58
16.01
14.25
10.81
5.82
0.12
-5.08
-8.88
-11.04
-12.25
-13.64
-16.23
-20.33
-25.46
-30.65
-34.92
-37.68
-38.83
-38.52
-36.80
-33.52
-28.52
-21.87
-14.13
-6.23
0.71
5.92
9.20
10.86
11.52
11.74
11.87
12.04
12.22
12.37
12.52
12.67
12.80
12.86
12.78
12.58
12.33
12.07
11.83
11.58
11.23
10.76
10.17
9.51
8.82
8.13
7.43
6.78
6.33
6.34
7.10
8.84
11.62
15.29
19.55
23.98
28.19
31.78
34.48
36.15
36.77
36.44
35.24
33.29
30.67
27.59
24.42
21.67
19.85
19.26
19.81
21.06
22.41
23.32
23.55
23.18
22.52
21.93
21.57
21.38
21.03
20.08
18.17
15.16
11.24
6.91
2.91
0.00
-1.24
-0.65
1.51
4.62
7.86
10.42
11.70
11.33
9.15
5.18
-0.39
-7.19
-14.69
-22.24
-29.32
-35.72
-41.62
-47.37
-53.21
-58.84
-63.47
-66.07
-65.94
-63.03
-58.10
-52.30
-46.68
-41.74
-37.41
-33.25
-28.89
-24.28
-19.69
-15.47
-11.79
-8.42
-4.87
-0.54
4.98
11.74
19.40
27.37
34.91
41.38
46.30
49.41
50.72
50.80
50.95
53.17
59.68
72.00
89.99
111.44
132.55
149.18
158.37
159.24
152.94
141.67
127.40
111.15
92.98
72.77
50.94
28.78
8.18
-9.11
-22.09
-30.80
-36.06
-39.12
-41.07
-42.57
-43.86
-44.89
-45.60
-46.06
-46.50
-47.23
-48.39
-49.89
-51.35
-52.32
-52.54
-52.07
-51.28
-50.75
-50.92
-51.90
-53.37
-54.78
-55.63
-55.65
-54.91
-53.71
-52.39
-51.22
-50.29
-49.60
-49.12
-48.79
-48.52
-48.09
-47.24
-45.69
-43.34
-40.26
-36.82
-33.44
-30.50
-28.18
-26.38
-24.94
-23.68
-22.53
-21.55
-20.87
-20.51
-20.37
-20.23
-19.84
-19.04
-17.84
-16.45
-15.14
-14.14
-13.53
-13.23
-13.07
-12.90
-12.66
-12.48
-12.56
-13.09
-14.09
-15.33
-16.42
-16.89
-16.36
-14.70
-12.02
-8.68
-5.13
-1.75
1.19
3.59
5.47
6.88
7.85
8.35
8.36
7.90
7.08
6.11
5.22
4.60
4.30
4.20
4.13
3.93
3.54
3.03
2.53
2.14
1.88
1.59
1.11
0.30
-0.81
-2.00
-2.92
-3.26
-2.79
-1.51
0.41
2.72
5.09
7.24
8.98
10.15
10.68
10.58
9.91
8.80
7.46
6.13
5.05
4.39
4.17
4.28
4.52
4.68
4.60
4.26
3.74
3.17
2.61
2.04
1.31
0.23
-1.34
-3.34
-5.48
-7.38
-8.60
-8.88
-8.21
-6.74
-4.78
-2.60
-0.41
1.68
3.54
5.01
5.87
5.98
5.37
4.29
3.18
2.46
2.37
2.84
3.54
4.04
4.05
3.53
2.71
1.93
1.40
1.13
0.86
0.25
-0.91
-2.58
-4.42
-5.98
-6.84
-6.81
-6.00
-4.70
-3.21
-1.72
-0.25
1.28
2.87
4.36
5.47
5.94
5.67
4.78
3.61
2.53
1.79
1.45
1.38
1.44
1.46
1.37
1.20
0.96
0.66
0.22
-0.46
-1.50
-2.92
-4.62
-6.36
-7.81
-8.66
-8.72
-7.93
-6.42
-4.42
-2.24
-0.10
1.80
3.34
4.41
4.90
4.76
4.04
2.90
1.60
0.45
-0.35
-0.71
-0.71
-0.56
-0.44
-0.46
-0.62
-0.81
-0.93
-0.94
-0.99
-1.28
-2.03
-3.31
-4.95
-6.55
-7.64
-7.88
-7.16
-5.59
-3.44
-1.00
1.55
4.05
6.30
8.07
9.08
9.17
8.41
7.07
5.63
4.53
4.01
4.08
4.49
4.89
4.97
4.61
3.87
2.93
2.00
1.17
0.40
-0.43
-1.46
-2.72
-4.05
-5.22
-5.93
-5.95
-5.20
-3.72
-1.68
0.68
3.06
5.16
6.69
7.43
7.30
6.37
4.89
3.24
1.82
0.90
0.53
0.57
0.71
0.60
0.06
-0.89
-2.06
-3.11
-3.85
-4.29
-4.63
-5.13
-5.95
-7.01
-8.11
-8.96
-9.29
-8.94
-7.85
-6.01
-3.56
-0.76
1.92
3.95
4.89
4.64
3.47
1.95
0.67
0.04
0.07
0.48
0.95
1.27
1.49
1.78
2.27
2.91
3.33
3.08
1.93
-0.01
-2.25
-4.08
-4.96
-4.68
-3.54
-2.06
-0.65
0.58
1.87
3.58
5.81
8.27
10.27
11.07
10.31
8.21
5.53
3.21
1.90
1.76
2.35
3.02
3.23
2.84
2.06
1.31
0.86
0.79
0.83
0.63
-0.12
-1.45
-3.08
-4.53
-5.29
-4.95
-3.44
-0.96
2.05
5.11
7.74
9.65
10.75
11.14
11.05
10.68
10.21
9.66
9.00
8.18
7.23
6.35
5.75
5.57
5.76
6.06
6.10
5.62
4.53
2.99
1.22
-0.54
-2.20
-3.71
-5.01
-5.91
-6.09
-5.24
-3.23
-0.17
3.50
7.16
10.20
12.18
12.96
12.70
11.73
10.45
9.16
8.01
6.99
6.03
5.07
4.19
3.55
3.30
3.50
4.01
4.57
4.83
4.57
3.71
2.34
0.66
-1.11
-2.81
-4.25
-5.18
-5.29
-4.25
-1.85
1.80
6.26
10.83
14.72
17.35
18.45
18.10
16.70
14.70
12.57
10.64
9.11
8.07
7.51
7.32
7.36
7.42
7.29
6.82
5.96
4.78
3.45
2.11
0.85
-0.45
-1.98
-3.98
-6.50
-9.31
-11.92
-13.64
-13.91
-12.44
-9.34
-5.11
-0.43
4.02
7.70
10.30
11.72
12.03
11.39
10.05
8.31
6.51
4.95
3.80
3.05
2.51
1.95
1.18
0.19
-0.84
-1.70
-2.23
-2.46
-2.60
-2.92
-3.63
-4.80
-6.40
-8.30
-10.29
-12.12
-13.41
-13.73
-12.73
-10.26
-6.46
-1.80
3.12
7.65
11.28
13.71
14.85
14.78
13.78
12.20
10.45
8.81
7.43
6.31
5.36
4.50
3.72
3.11
2.72
2.53
2.37
2.09
1.54
0.75
-0.16
-1.11
-2.12
-3.42
-5.23
-7.54
-9.99
-11.85
-12.30
-10.83
-7.40
-2.59
2.74
7.72
11.79
14.72
16.49
17.18
16.88
15.63
13.62
11.09
8.42
5.97
3.98
2.51
1.49
0.69
-0.08
-0.96
-1.97
-3.05
-4.13
-5.17
-6.20
-7.31
-8.61
-10.19
-12.00
-13.86
-15.41
-16.17
-15.66
-13.56
-9.85
-4.89
0.62
5.87
10.13
13.00
14.45
14.71
14.11
12.92
11.29
9.32
7.15
5.02
3.24
2.09
1.61
1.60
1.68
1.46
0.73
-0.45
-1.83
-3.12
-4.20
-5.19
-6.38
-8.05
-10.34
-13.08
-15.83
-18.00
-19.01
-18.46
-16.21
-12.39
-7.45
-1.97
3.36
7.94
11.32
13.34
14.09
13.83
12.89
11.56
10.02
8.44
6.94
5.70
4.83
4.39
4.27
4.20
3.92
3.24
2.17
0.85
-0.47
-1.58
-2.44
-3.16
-3.92
-4.95
-6.40
-8.30
-10.58
-13.00
-15.23
-16.79
-17.20
-16.12
-13.41
-9.32
-4.39
0.69
5.28
8.95
11.59
13.26
14.14
14.36
13.97
13.01
11.59
9.94
8.36
7.15
6.41
6.07
5.88
5.57
4.94
3.93
2.67
1.31
-0.01
-1.26
-2.47
-3.71
-5.01
-6.34
-7.63
-8.79
-9.78
-10.52
-10.94
-10.86
-10.05
-8.32
-5.55
-1.87
2.37
6.65
10.44
13.32
15.08
15.71
15.31
14.08
12.20
9.90
7.44
5.12
3.21
1.86
1.04
0.56
0.11
-0.55
-1.56
-2.85
-4.27
-5.62
-6.78
-7.72
-8.51
-9.27
-10.12
-11.21
-12.63
-14.40
-16.37
-18.21
-19.43
-19.52
-18.15
-15.28
-11.21
-6.41
-1.42
3.31
7.42
10.63
12.72
13.54
13.09
11.59
9.51
7.39
5.70
4.70
4.35
4.40
4.55
4.57
4.33
3.83
3.12
2.24
1.26
0.26
-0.68
-1.55
-2.34
-3.18
-4.21
-5.57
-7.25
-9.08
-10.76
-11.87
-12.08
-11.14
-9.04
-5.97
-2.25
1.67
5.35
8.40
10.56
11.73
11.93
11.28
9.96
8.22
6.30
4.48
2.99
1.97
1.39
1.05
0.72
0.19
-0.53
-1.27
-1.78
-1.92
-1.79
-1.72
-2.16
-3.43
-5.57
-8.28
-10.99
-13.10
-14.12
-13.84
-12.33
-9.89
-6.84
-3.42
0.23
3.98
7.59
10.68
12.76
13.45
12.71
10.84
8.34
5.77
3.45
1.49
-0.18
-1.54
-2.50
-2.93
-2.87
-2.59
-2.49
-2.92
-3.90
-5.13
-6.19
-6.86
-7.32
-8.05
-9.51
-11.76
-14.29
-16.23
-16.72
-15.32
-12.36
-8.61
-4.97
-1.98
0.28
2.14
3.89
5.53
6.56
6.36
4.59
1.54
-1.85
-4.39
-5.17
-4.03
-1.62
0.98
2.81
3.43
3.05
2.22
1.50
1.18
1.13
1.04
0.60
-0.36
-1.80
-3.56
-5.42
-7.09
-8.33
-8.82
-8.30
-6.63
-3.86
-0.26
3.69
7.48
10.59
12.68
13.55
13.20
11.81
9.71
7.34
5.18
3.55
2.58
2.14
1.94
1.72
1.33
0.84
0.38
0.03
-0.26
-0.67
-1.44
-2.69
-4.43
-6.60
-9.03
-11.54
-13.88
-15.74
-16.79
-16.76
-15.55
-13.30
-10.33
-7.04
-3.82
-0.96
1.40
3.17
4.30
4.78
4.64
4.01
3.05
1.94
0.79
-0.35
-1.49
-2.60
-3.60
-4.37
-4.83
-4.93
-4.73
-4.32
-3.79
-3.23
-2.73
-2.45
-2.55
-3.18
-4.33
-5.78
-7.13
-7.87
-7.59
-6.07
-3.35
0.29
4.45
8.69
12.58
15.80
18.12
19.48
19.95
19.74
19.09
18.26
17.40
16.56
15.71
14.77
13.68
12.42
11.00
9.41
7.61
5.57
3.30
0.84
-1.79
-4.61
-7.68
-11.05
-14.60
-17.97
-20.65
-22.02
-21.73
-19.80
-16.69
-13.19
-10.05
-7.77
-6.42
-5.73
-5.31
-4.84
-4.29
-3.81
-3.65
-3.98
-4.83
-6.16
-7.82
-9.71
-11.68
-13.49
-14.80
-15.25
-14.58
-12.84
-10.38
-7.73
-5.42
-3.71
-2.58
-1.73
-0.80
0.48
2.21
4.30
6.58
8.90
11.16
13.28
15.18
16.72
17.71
18.01
17.62
16.74
15.75
15.02
14.83
15.16
15.77
16.32
16.57
16.42
15.99
15.46
14.93
14.37
13.62
12.53
10.98
8.98
6.58
3.86
0.96
-2.01
-4.81
-7.09
-8.37
-8.20
-6.31
-2.78
1.93
7.02
11.63
15.03
16.87
17.16
16.17
14.31
11.97
9.47
7.07
4.99
3.37
2.25
1.56
1.13
0.78
0.37
-0.20
-0.96
-1.92
-3.12
-4.59
-6.35
-8.33
-10.45
-12.55
-14.40
-15.72
-16.17
-15.47
-13.44
-10.10
-5.75
-0.91
3.80
7.78
10.61
12.12
12.39
11.69
10.38
8.79
7.15
5.61
4.21
2.94
1.81
0.82
-0.02
-0.71
-1.26
-1.74
-2.20
-2.77
-3.53
-4.55
-5.88
-7.54
-9.51
-11.69
-13.86
-15.68
-16.72
-16.56
-14.95
-11.91
-7.75
-3.01
1.70
5.80
8.87
10.68
11.16
10.44
8.79
6.61
4.36
2.42
1.07
0.40
0.29
0.51
0.80
0.89
0.66
0.08
-0.78
-1.79
-2.80
-3.71
-4.50
-5.29
-6.22
-7.41
-8.82
-10.22
-11.18
-11.25
-10.10
-7.64
-4.10
0.10
4.47
8.56
12.04
14.66
16.24
16.62
15.78
13.88
11.25
8.40
5.82
3.85
2.61
1.98
1.68
1.47
1.21
0.90
0.65
0.49
0.35
0.02
-0.74
-2.13
-4.22
-6.86
-9.77
-12.54
-14.75
-16.07
-16.26
-15.25
-13.11
-10.07
-6.42
-2.59
0.96
3.76
5.40
5.64
4.51
2.32
-0.39
-3.01
-5.08
-6.31
-6.69
-6.37
-5.57
-4.54
-3.51
-2.67
-2.18
-2.14
-2.61
-3.50
-4.62
-5.72
-6.54
-6.98
-7.05
-6.94
-6.82
-6.76
-6.63
-6.14
-4.95
-2.93
-0.17
2.93
5.84
8.13
9.55
10.09
9.92
9.24
8.24
7.02
5.68
4.32
3.09
2.15
1.63
1.50
1.57
1.51
1.02
-0.03
-1.53
-3.14
-4.51
-5.46
-6.04
-6.54
-7.24
-8.23
-9.30
-10.00
-9.82
-8.44
-5.85
-2.34
1.64
5.62
9.26
12.35
14.78
16.43
17.22
17.07
16.02
14.30
12.33
10.55
9.32
8.73
8.60
8.64
8.53
8.10
7.36
6.45
5.53
4.67
3.87
3.01
1.97
0.70
-0.74
-2.20
-3.43
-4.15
-4.15
-3.27
-1.46
1.23
4.63
8.38
11.96
14.79
16.35
16.40
15.09
12.88
10.41
8.17
6.39
5.01
3.83
2.68
1.54
0.48
-0.32
-0.80
-0.99
-1.01
-0.98
-1.01
-1.19
-1.62
-2.44
-3.89
-6.11
-9.05
-12.36
-15.39
-17.40
-17.88
-16.75
-14.50
-11.98
-10.00
-9.06
-9.12
-9.73
-10.35
-10.61
-10.51
-10.26
-10.15
-10.25
-10.39
-10.23
-9.51
-8.19
-6.61
-5.31
-4.76
-5.20
-6.45
-8.09
-9.71
-11.08
-12.29
-13.57
-15.06
-16.58
-17.67
-17.71
-16.25
-13.20
-8.95
-4.17
0.40
4.14
6.75
8.17
8.60
8.32
7.64
6.83
6.10
5.60
5.39
5.45
5.72
6.14
6.64
7.19
7.75
8.29
8.76
9.06
9.09
8.76
8.01
6.82
5.22
3.26
1.04
-1.24
-3.22
-4.48
-4.59
-3.36
-0.90
2.29
5.54
8.18
9.78
10.29
9.95
9.12
8.12
7.12
6.13
5.10
4.00
2.87
1.80
0.91
0.31
-0.02
-0.18
-0.33
-0.62
-1.18
-2.02
-3.12
-4.45
-6.01
-7.83
-9.83
-11.77
-13.21
-13.61
-12.53
-9.87
-5.94
-1.41
2.93
6.44
8.75
9.82
9.81
8.94
7.42
5.43
3.22
1.07
-0.70
-1.91
-2.55
-2.80
-2.95
-3.21
-3.69
-4.27
-4.80
-5.13
-5.32
-5.53
-6.06
-7.16
-8.88
-11.04
-13.21
-14.81
-15.33
-14.46
-12.18
-8.78
-4.76
-0.69
2.89
5.63
7.33
7.98
7.69
6.67
5.14
3.38
1.62
0.11
-1.01
-1.68
-1.96
-2.03
-2.06
-2.13
-2.21
-2.23
-2.16
-2.10
-2.32
-3.11
-4.63
-6.78
-9.14
-11.15
-12.27
-12.18
-10.83
-8.36
-5.05
-1.21
2.85
6.66
9.77
11.73
12.32
11.63
10.07
8.20
6.49
5.14
4.11
3.24
2.42
1.71
1.26
1.17
1.37
1.59
1.49
0.82
-0.45
-2.12
-3.88
-5.52
-6.96
-8.37
-9.91
-11.56
-13.02
-13.71
-13.00
-10.55
-6.49
-1.54
3.33
7.19
9.55
10.45
10.31
9.67
8.87
7.95
6.81
5.37
3.76
2.32
1.43
1.27
1.77
2.54
3.08
3.03
2.27
0.96
-0.61
-2.13
-3.45
-4.55
-5.50
-6.27
-6.70
-6.47
-5.27
-2.93
0.43
4.39
8.35
11.71
14.04
15.18
15.19
14.30
12.83
11.12
9.50
8.25
7.54
7.42
7.79
8.42
9.07
9.47
9.47
8.97
7.97
6.55
4.82
2.86
0.74
-1.51
-3.86
-6.17
-8.19
-9.50
-9.69
-8.49
-5.87
-2.14
2.15
6.37
9.96
12.52
13.89
14.05
13.18
11.55
9.49
7.30
5.19
3.33
1.76
0.49
-0.51
-1.34
-2.11
-2.95
-3.97
-5.17
-6.46
-7.67
-8.65
-9.28
-9.54
-9.44
-8.99
-8.14
-6.84
-5.04
-2.77
-0.18
2.51
4.97
6.87
7.97
8.15
7.50
6.25
4.76
3.31
2.11
1.18
0.45
-0.17
-0.74
-1.23
-1.62
-1.93
-2.27
-2.84
-3.80
-5.22
-7.06
-9.11
-11.16
-13.01
-14.46
-15.31
-15.31
-14.18
-11.72
-7.96
-3.24
1.85
6.58
10.28
12.52
13.17
12.39
10.56
8.17
5.69
3.53
1.90
0.89
0.43
0.37
0.59
0.99
1.51
2.06
2.52
2.70
2.41
1.50
-0.05
-2.12
-4.45
-6.74
-8.66
-9.92
-10.27
-9.52
-7.56
-4.46
-0.50
3.81
7.85
11.02
12.92
13.44
12.77
11.31
9.45
7.55
5.81
4.32
3.14
2.30
1.88
1.87
2.19
2.65
2.95
2.82
2.10
0.82
-0.78
-2.42
-3.86
-5.03
-6.01
-6.87
-7.59
-7.94
-7.54
-6.06
-3.41
0.10
3.85
7.11
9.34
10.36
10.35
9.68
8.70
7.58
6.35
4.98
3.50
2.09
0.96
0.24
-0.08
-0.13
-0.14
-0.27
-0.62
-1.17
-1.88
-2.69
-3.61
-4.67
-5.88
-7.15
-8.23
-8.78
-8.43
-6.97
-4.47
-1.28
2.03
4.91
6.96
8.06
8.29
7.81
6.82
5.44
3.82
2.15
0.62
-0.52
-1.11
-1.13
-0.75
-0.23
0.14
0.15
-0.21
-0.78
-1.39
-1.85
-2.17
-2.50
-3.03
-3.91
-5.08
-6.34
-7.48
-8.29
-8.64
-8.49
-7.75
-6.31
-4.10
-1.24
1.87
4.57
6.25
6.57
5.63
3.97
2.25
1.01
0.37
0.15
-0.00
-0.32
-0.80
-1.20
-1.28
-0.95
-0.53
-0.45
-1.14
-2.71
-4.91
-7.15
-8.91
-9.81
-9.98
-9.75
-9.44
-9.13
-8.52
-7.21
-4.94
-1.89
1.29
3.76
4.92
4.67
3.47
2.06
1.05
0.64
0.52
0.16
-0.79
-2.27
-3.85
-4.92
-5.15
-4.59
-3.74
-3.21
-3.43
-4.42
-5.87
-7.34
-8.47
-9.10
-9.30
-9.19
-8.82
-8.13
-7.02
-5.41
-3.37
-1.05
1.28
3.32
4.87
5.75
5.89
5.34
4.26
2.87
1.44
0.14
-0.98
-1.97
-2.90
-3.80
-4.61
-5.18
-5.35
-5.13
-4.63
-4.12
-3.87
-4.06
-4.72
-5.70
-6.74
-7.51
-7.78
-7.38
-6.36
-4.83
-3.01
-1.11
0.70
2.27
3.47
4.21
4.47
4.29
3.76
3.02
2.19
1.37
0.64
0.06
-0.33
-0.49
-0.48
-0.38
-0.27
-0.22
-0.29
-0.52
-1.02
-1.91
-3.27
-5.01
-6.87
-8.45
-9.36
-9.36
-8.45
-6.86
-4.89
-2.85
-0.96
0.66
1.90
2.68
2.92
2.62
1.90
0.99
0.18
-0.29
-0.35
-0.13
0.11
0.12
-0.23
-0.89
-1.68
-2.42
-3.03
-3.61
-4.32
-5.29
-6.42
-7.46
-8.01
-7.79
-6.72
-5.03
-3.04
-1.04
0.83
2.60
4.28
5.80
6.95
7.45
7.10
5.99
4.46
2.94
1.76
1.01
0.56
0.17
-0.32
-0.94
-1.56
-2.07
-2.43
-2.72
-3.10
-3.67
-4.45
-5.39
-6.35
-7.14
-7.56
-7.43
-6.61
-5.09
-2.97
-0.50
2.06
4.51
6.68
8.45
9.71
10.32
10.19
9.38
8.10
6.69
5.41
4.39
3.59
2.87
2.13
1.39
0.78
0.41
0.19
-0.11
-0.78
-1.97
-3.61
-5.34
-6.74
-7.44
-7.36
-6.62
-5.43
-3.93
-2.14
-0.04
2.29
4.61
6.48
7.51
7.49
6.54
5.03
3.42
2.08
1.14
0.49
-0.09
-0.71
-1.38
-1.97
-2.36
-2.56
-2.68
-2.97
-3.59
-4.61
-5.91
-7.31
-8.57
-9.42
-9.59
-8.84
-7.08
-4.38
-1.11
2.22
5.07
7.10
8.24
8.64
8.49
7.94
7.03
5.76
4.17
2.45
0.87
-0.34
-1.05
-1.30
-1.26
-1.16
-1.18
-1.39
-1.80
-2.37
-3.09
-3.97
-5.01
-6.11
-7.10
-7.71
-7.64
-6.69
-4.81
-2.18
0.82
3.76
6.21
7.91
8.80
9.01
8.76
8.28
7.65
6.85
5.83
4.59
3.25
2.03
1.15
0.72
0.66
0.73
0.66
0.25
-0.52
-1.56
-2.74
-3.97
-5.25
-6.58
-7.87
-8.90
-9.29
-8.68
-6.87
-3.97
-0.35
3.41
6.76
9.32
11.01
11.94
12.32
12.38
12.21
11.81
11.15
10.28
9.33
8.52
8.01
7.81
7.75
7.54
6.96
5.93
4.63
3.34
2.29
1.49
0.69
-0.47
-2.29
-4.72
-7.37
-9.56
-10.65
-10.22
-8.32
-5.30
-1.74
1.85
5.11
7.88
10.07
11.58
12.27
12.06
10.98
9.26
7.31
5.52
4.16
3.31
2.83
2.49
2.08
1.50
0.79
0.06
-0.59
-1.11
-1.53
-1.93
-2.41
-3.01
-3.73
-4.54
-5.46
-6.55
-7.82
-9.22
-10.48
-11.18
-10.80
-9.03
-5.84
-1.61
3.04
7.44
11.13
13.89
15.79
16.94
17.51
17.55
17.14
16.34
15.24
13.98
12.71
11.56
10.62
9.91
9.38
8.90
8.32
7.52
6.47
5.24
3.92
2.56
1.13
-0.47
-2.34
-4.46
-6.72
-8.91
-10.85
-12.51
-14.04
-15.66
-17.52
-19.57
-21.51
-22.89
-23.30
-22.56
-20.72
-18.02
-14.68
-10.80
-6.40
-1.57
3.45
8.23
12.23
15.07
16.61
17.04
16.71
16.03
15.30
14.65
14.13
13.70
13.37
13.21
13.31
13.75
14.49
15.37
16.05
16.18
15.50
13.93
11.62
8.80
5.75
2.70
-0.23
-2.98
-5.52
-7.83
-9.94
-11.89
-13.73
-15.42
-16.82
-17.66
-17.61
-16.42
-14.02
-10.61
-6.62
-2.66
0.68
3.00
4.14
4.28
3.78
3.08
2.50
2.16
2.01
1.95
1.91
1.88
1.87
1.84
1.69
1.29
0.62
-0.23
-1.05
-1.65
-2.07
-2.49
-3.15
-4.14
-5.34
-6.46
-7.24
-7.59
-7.71
-7.95
-8.56
-9.56
-10.60
-11.20
-10.88
-9.44
-7.11
-4.33
-1.55
0.98
3.28
5.54
7.89
10.20
11.98
12.73
12.12
10.30
7.89
5.73
4.52
4.52
5.40
6.54
7.26
7.23
6.51
5.43
4.35
3.46
2.62
1.55
0.04
-1.86
-3.87
-5.63
-6.93
-7.80
-8.56
-9.54
-10.89
-12.41
-13.63
-13.98
-13.00
-10.59
-7.04
-2.95
1.01
4.29
6.61
7.97
8.57
8.65
8.39
7.86
7.11
6.19
5.19
4.23
3.37
2.59
1.84
0.99
-0.01
-1.13
-2.27
-3.25
-3.92
-4.16
-3.98
-3.48
-2.82
-2.17
-1.66
-1.32
-1.11
-0.97
-0.83
-0.68
-0.54
-0.43
-0.38
-0.38
-0.40
-0.42
-0.41
-0.37
-0.32
-0.28
-0.25
-0.24
-0.24
-0.24
-0.23
-0.22
-0.19
-0.16
-0.15
-0.14
-0.13
-0.12
-0.11
-0.09
-0.06
-0.04
-0.02
-0.02
-0.02
-0.03
-0.03
-0.04
-0.04
-0.04
-0.03
-0.03
-0.03
-0.04
-0.05
-0.05
-0.06
-0.07
-0.07
-0.07
-0.07
-0.07
-0.07
-0.07
-0.07
-0.07
-0.07
-0.07
-0.07
-0.07
-0.07
-0.07
-0.07
-0.07
-0.07
-0.07
-0.07
-0.07
-0.07
-0.07
-0.07
-0.07
-0.07
-0.07
-0.07
-0.07
-0.07
-0.07
-0.07
-0.07
-0.07
-0.07
-0.07
-0.07
-0.07
-0.07
-0.07
-0.07
-0.07
-0.07
-0.07
-0.07
-0.07
-0.07
-0.07
-0.07
-0.07
-0.07
-0.07
-0.07
-0.06
-0.06
-0.06
-0.06
-0.06
-0.06
-0.06
-0.06
-0.06
-0.06
-0.06
-0.06
-0.06
-0.06
-0.06
-0.06
-0.06
-0.06
-0.06
-0.06
-0.06
-0.06
-0.06
-0.06
-0.06
-0.06
-0.06
-0.06
-0.06
-0.06
-0.06
-0.06
-0.06
-0.06
-0.06
-0.06
-0.06
-0.06
-0.06
-0.06
-0.06
-0.06
-0.06
-0.06
-0.06
-0.06
-0.06
-0.06
-0.06
-0.06
-0.06
-0.06
-0.06
-0.06
-0.06
-0.06
-0.06
-0.06
-0.05
-0.06
-0.05
-0.05
-0.05
-0.05
-0.05
-0.05
-0.05
-0.05
-0.05
-0.05
-0.05
-0.05
-0.05
-0.05
-0.05
-0.05
-0.05
-0.05
-0.05
-0.05
-0.05
-0.05
-0.05
-0.05
-0.05
-0.06
-0.06
-0.06
-0.07
-0.07
-0.06
-0.06
-0.06
-0.05
-0.05
-0.04
-0.03
-0.03
-0.02
-0.01
0.00
0.01
0.02
0.03
0.04
0.04
0.05
0.05
0.05
0.05
0.04
0.04
0.03
0.03
0.03
0.04
0.06
0.08
0.10
0.13
0.16
0.19
0.22
0.26
0.30
0.34
0.38
0.43
0.48
0.55
0.63
0.72
0.82
0.92
0.99
1.04
1.10
1.18
1.32
1.53
1.76
1.96
2.08
2.11
2.14
2.29
2.67
3.29
4.08
4.85
5.43
5.73
5.67
5.27
4.51
3.40
2.00
0.38
-1.30
-2.88
-4.29
-5.55
-6.76
-8.03
-9.37
-10.66
-11.70
-12.17
-11.85
-10.59
-8.43
-5.62
-2.52
0.46
2.94
4.72
5.75
6.07
5.78
4.95
3.69
2.14
0.48
-0.98
-2.02
-2.52
-2.57
-2.43
-2.35
-2.49
-2.82
-3.17
-3.33
-3.27
-3.09
-3.08
-3.49
-4.49
-5.98
-7.63
-9.02
-9.72
-9.48
-8.23
-6.11
-3.32
-0.14
3.25
6.64
9.82
12.49
14.38
15.25
15.10
14.11
12.66
11.14
9.80
8.75
7.91
7.14
6.36
5.51
4.66
3.83
3.04
2.21
1.18
-0.18
-2.01
-4.32
-7.03
-9.95
-12.80
-15.30
-17.21
-18.34
-18.57
-17.87
-16.26
-13.86
-10.87
-7.58
-4.36
-1.63
0.29
1.21
1.24
0.69
0.03
-0.35
-0.22
0.39
1.26
2.10
2.74
3.15
3.36
3.44
3.38
3.09
2.52
1.70
0.73
-0.24
-1.15
-2.01
-2.88
-3.76
-4.51
-4.84
-4.46
-3.20
-1.03
1.84
5.14
8.56
11.82
14.62
16.67
17.67
17.46
16.06
13.76
11.00
8.28
6.03
4.52
3.80
3.75
4.14
4.69
5.10
5.21
5.04
4.73
4.52
4.52
4.69
4.73
4.37
3.44
2.05
0.52
-0.72
-1.28
-0.93
0.42
2.75
5.87
9.47
13.00
15.88
17.55
17.78
16.70
14.76
12.49
10.29
8.28
6.45
4.73
3.20
2.10
1.67
1.99
2.89
3.87
4.41
4.13
3.03
1.46
-0.09
-1.30
-2.17
-3.12
-4.64
-6.96
-9.83
-12.55
-14.21
-14.15
-12.21
-8.84
-4.82
-0.91
2.38
4.87
6.57
7.53
7.70
6.99
5.34
2.94
0.15
-2.58
-4.83
-6.42
-7.41
-8.04
-8.57
-9.21
-10.07
-11.14
-12.38
-13.70
-15.02
-16.28
-17.43
-18.50
-19.58
-20.72
-21.86
-22.76
-23.04
-22.28
-20.20
-16.81
-12.39
-7.43
-2.43
2.23
6.25
9.41
11.44
12.09
11.22
8.96
5.75
2.30
-0.65
-2.58
-3.30
-2.95
-1.90
-0.56
0.78
1.96
2.93
3.70
4.23
4.44
4.20
3.38
1.87
-0.33
-3.08
-6.09
-8.95
-11.21
-12.44
-12.33
-10.74
-7.72
-3.52
1.37
6.29
10.54
13.49
14.77
14.35
12.54
9.92
7.12
4.66
2.82
1.68
1.11
0.95
1.06
1.35
1.74
2.16
2.43
2.37
1.80
0.66
-1.00
-3.04
-5.27
-7.53
-9.72
-11.75
-13.48
-14.66
-14.90
-13.83
-11.22
-7.20
-2.31
2.63
6.74
9.38
10.32
9.74
8.11
5.91
3.56
1.34
-0.56
-1.96
-2.68
-2.65
-1.95
-0.89
0.12
0.70
0.60
-0.17
-1.42
-2.88
-4.35
-5.78
-7.24
-8.86
-10.65
-12.44
-13.83
-14.33
-13.58
-11.43
-8.03
-3.80
0.74
5.06
8.69
11.30
12.65
12.63
11.32
8.96
6.03
3.11
0.73
-0.76
-1.32
-1.20
-0.82
-0.62
-0.83
-1.47
-2.33
-3.08
-3.58
-3.91
-4.38
-5.31
-6.84
-8.80
-10.75
-12.11
-12.50
-11.78
-10.11
-7.78
-5.04
-2.05
1.08
4.14
6.77
8.51
9.02
8.27
6.57
4.48
2.60
1.32
0.72
0.60
0.66
0.66
0.52
0.26
-0.10
-0.56
-1.28
-2.45
-4.17
-6.37
-8.83
-11.17
-13.03
-14.14
-14.47
-14.07
-13.05
-11.47
-9.26
-6.31
-2.62
1.66
6.09
10.07
13.02
14.57
14.66
13.58
11.79
9.80
7.93
6.29
4.83
3.44
2.05
0.75
-0.29
-0.83
-0.77
-0.15
0.77
1.61
1.97
1.57
0.36
-1.48
-3.64
-5.76
-7.50
-8.63
-8.99
-8.44
-6.89
-4.31
-0.89
3.00
6.79
9.88
11.80
12.38
11.74
10.26
8.43
6.68
5.26
4.24
3.53
2.96
2.36
1.63
0.78
-0.10
-0.87
-1.48
-1.95
-2.42
-3.06
-4.03
-5.37
-7.01
-8.71
-10.16
-11.00
-10.89
-9.58
-7.00
-3.33
1.00
5.41
9.31
12.25
14.02
14.68
14.50
13.82
13.01
12.30
11.79
11.45
11.17
10.82
10.35
9.77
9.14
8.50
7.79
6.87
5.55
3.71
1.35
-1.40
-4.33
-7.20
-9.80
-11.90
-13.22
-13.49
-12.49
-10.17
-6.74
-2.64
1.50
5.10
7.77
9.37
10.00
9.89
9.25
8.25
6.99
5.59
4.17
2.88
1.88
1.24
0.96
0.95
1.04
1.03
0.72
-0.02
-1.22
-2.79
-4.60
-6.51
-8.43
-10.24
-11.77
-12.71
-12.64
-11.23
-8.36
-4.31
0.29
4.65
8.13
10.41
11.52
11.75
11.41
10.70
9.67
8.29
6.59
4.70
2.90
1.45
0.50
-0.02
-0.35
-0.79
-1.55
-2.65
-3.91
-5.09
-6.04
-6.83
-7.70
-8.93
-10.68
-12.79
-14.81
-16.15
-16.30
-14.97
-12.27
-8.58
-4.46
-0.41
3.24
6.34
8.89
10.94
12.46
13.34
13.46
12.79
11.47
9.77
8.09
6.70
5.74
5.10
4.54
3.79
2.70
1.30
-0.25
-1.73
-3.02
-4.10
-5.07
-6.09
-7.25
-8.59
-10.06
-11.59
-13.13
-14.57
-15.71
-16.25
-15.77
-13.94
-10.67
-6.23
-1.19
3.78
8.16
11.72
14.55
16.82
18.64
19.87
20.27
19.67
18.19
16.27
14.47
13.24
12.71
12.70
12.87
12.97
12.90
12.73
12.48
12.10
11.44
10.39
9.07
7.76
6.76
6.14
5.63
4.73
2.98
0.26
-3.08
-6.39
-8.94
-10.17
-9.88
-8.11
-5.08
-1.10
3.46
8.14
12.41
15.70
17.50
17.51
15.74
12.49
8.36
4.07
0.24
-2.67
-4.57
-5.59
-5.99
-5.97
-5.65
-5.04
-4.20
-3.36
-2.91
-3.20
-4.41
-6.36
-8.52
-10.30
-11.24
-11.24
-10.66
-10.06
-9.93
-10.48
-11.60
-12.97
-14.27
-15.30
-15.96
-16.16
-15.74
-14.49
-12.29
-9.24
-5.69
-2.07
1.14
3.64
5.29
6.14
6.32
5.99
5.32
4.48
3.57
2.69
1.93
1.37
1.11
1.17
1.45
1.71
1.66
1.04
-0.21
-1.91
-3.77
-5.48
-6.87
-7.98
-8.98
-10.14
-11.65
-13.57
-15.79
-18.04
-19.95
-21.09
-21.08
-19.71
-17.06
-13.46
-9.54
-5.94
-3.21
-1.53
-0.75
-0.44
-0.19
0.22
0.72
1.12
1.22
1.04
0.79
0.77
1.15
1.92
2.90
3.90
4.83
5.76
6.90
8.41
10.25
12.19
13.78
14.56
14.17
12.47
9.61
5.99
2.17
-1.28
-3.84
-5.16
-5.06
-3.51
-0.61
3.34
7.92
12.57
16.67
19.65
21.18
21.17
19.81
17.50
14.72
11.96
9.60
7.93
7.14
7.28
8.22
9.73
11.49
13.10
14.27
14.85
14.82
14.30
13.43
12.27
10.76
8.72
5.98
2.49
-1.58
-5.79
-9.54
-12.18
-13.24
-12.50
-10.04
-6.23
-1.65
3.10
7.34
10.49
12.08
11.83
9.78
6.29
2.07
-2.05
-5.28
-7.13
-7.49
-6.63
-5.06
-3.30
-1.72
-0.46
0.44
1.02
1.28
1.18
0.70
-0.08
-1.04
-2.03
-3.06
-4.28
-5.88
-7.95
-10.32
-12.49
-13.86
-13.90
-12.50
-9.90
-6.68
-3.47
-0.69
1.49
3.11
4.25
4.83
4.66
3.52
1.34
-1.59
-4.68
-7.23
-8.65
-8.77
-7.77
-6.09
-4.12
-2.04
0.18
2.62
5.22
7.67
9.47
10.19
9.68
8.14
5.99
3.69
1.52
-0.48
-2.34
-3.96
-5.04
-5.15
-3.92
-1.36
2.15
5.86
8.89
10.54
10.46
8.73
5.78
2.25
-1.18
-3.99
-5.85
-6.73
-6.77
-6.22
-5.30
-4.19
-2.99
-1.79
-0.69
0.25
0.99
1.57
2.05
2.49
2.91
3.21
3.25
2.86
1.99
0.73
-0.59
-1.51
-1.58
-0.45
1.94
5.31
9.14
12.79
15.70
17.50
18.09
17.53
16.03
13.86
11.25
8.45
5.68
3.14
1.04
-0.50
-1.43
-1.86
-2.03
-2.25
-2.79
-3.77
-5.07
-6.48
-7.76
-8.79
-9.63
-10.48
-11.60
-13.11
-14.91
-16.74
-18.23
-19.02
-18.92
-17.91
-16.11
-13.74
-11.08
-8.41
-5.97
-3.99
-2.69
-2.22
-2.63
-3.84
-5.58
-7.45
-9.06
-10.16
-10.69
-10.83
-10.85
-11.00
-11.34
-11.83
-12.35
-12.79
-13.17
-13.56
-14.04
-14.61
-15.22
-15.81
-16.37
-16.97
-17.65
-18.36
-18.84
-18.71
-17.58
-15.30
-12.04
-8.28
-4.72
-1.94
-0.27
0.32
0.13
-0.42
-1.02
-1.53
-1.95
-2.35
-2.74
-3.08
-3.23
-3.14
-2.82
-2.37
-1.96
-1.71
-1.62
-1.61
-1.57
-1.42
-1.20
-1.07
-1.17
-1.53
-1.97
-2.09
-1.44
0.32
3.16
6.74
10.45
13.67
15.96
17.15
17.31
16.60
15.16
13.08
10.43
7.37
4.17
1.18
-1.29
-3.08
-4.24
-4.96
-5.52
-6.08
-6.72
-7.38
-7.97
-8.46
-8.90
-9.40
-10.06
-10.92
-11.84
-12.51
-12.53
-11.55
-9.34
-6.02
-1.97
2.22
5.96
8.81
10.62
11.44
11.46
10.79
9.51
7.69
5.51
3.34
1.60
0.63
0.53
1.10
1.95
2.65
2.93
2.74
2.16
1.34
0.38
-0.76
-2.12
-3.77
-5.60
-7.34
-8.56
-8.81
-7.77
-5.40
-1.98
1.97
5.83
9.05
11.23
12.13
11.71
10.08
7.56
4.59
1.75
-0.47
-1.75
-2.06
-1.60
-0.73
0.24
1.09
1.74
2.16
2.31
2.18
1.64
0.59
-1.11
-3.50
-6.46
-9.60
-12.31
-13.89
-13.79
-11.80
-8.13
-3.30
1.98
7.04
11.20
13.98
15.10
14.56
12.69
10.09
7.46
5.31
3.83
2.87
2.16
1.44
0.71
0.08
-0.31
-0.48
-0.66
-1.18
-2.31
-4.08
-6.25
-8.45
-10.29
-11.52
-12.20
-12.42
-12.23
-11.43
-9.68
-6.63
-2.31
2.81
7.74
11.43
13.12
12.73
10.82
8.35
6.21
4.91
4.38
4.23
4.10
3.90
3.85
4.26
5.26
6.58
7.58
7.55
6.01
3.00
-0.97
-5.13
-8.77
-11.41
-12.87
-13.16
-12.25
-10.02
-6.38
-1.33
4.74
11.14
16.88
21.07
23.11
22.88
20.73
17.27
13.20
9.13
5.45
2.40
0.07
-1.55
-2.56
-3.12
-3.42
-3.66
-3.99
-4.49
-5.21
-6.19
-7.45
-9.03
-10.88
-12.86
-14.65
-15.81
-15.87
-14.49
-11.61
-7.49
-2.64
2.28
6.67
10.03
12.05
12.61
11.80
9.89
7.30
4.55
2.11
0.34
-0.66
-1.00
-0.92
-0.70
-0.54
-0.48
-0.52
-0.62
-0.82
-1.27
-2.18
-3.72
-5.90
-8.52
-11.16
-13.26
-14.26
-13.72
-11.45
-7.55
-2.43
3.26
8.76
13.36
16.53
18.01
17.80
16.17
13.55
10.45
7.39
4.79
2.92
1.85
1.42
1.38
1.44
1.45
1.36
1.18
0.92
0.52
-0.24
-1.59
-3.69
-6.51
-9.71
-12.71
-14.81
-15.37
-14.04
-10.81
-6.11
-0.61
4.88
9.59
12.91
14.47
14.20
12.30
9.26
5.69
2.21
-0.71
-2.88
-4.35
-5.36
-6.15
-6.88
-7.59
-8.24
-8.86
-9.51
-10.35
-11.54
-13.14
-15.08
-17.18
-19.08
-20.36
-20.59
-19.38
-16.50
-12.01
-6.26
0.15
6.44
11.86
15.79
17.83
17.89
16.16
13.14
9.49
5.88
2.84
0.65
-0.72
-1.45
-1.81
-1.94
-1.88
-1.64
-1.30
-1.00
-0.98
-1.44
-2.50
-4.13
-6.19
-8.47
-10.64
-12.22
-12.63
-11.25
-7.70
-2.00
5.35
13.39
21.01
27.19
31.31
33.21
33.09
31.40
28.63
25.19
21.40
17.58
14.06
11.21
9.28
8.31
8.10
8.16
7.95
7.00
5.15
2.45
-0.84
-4.49
-8.36
-12.37
-16.41
-20.16
-23.05
-24.41
-23.66
-20.60
-15.48
-9.01
-2.19
4.00
8.76
11.62
12.45
11.48
9.23
6.33
3.43
0.99
-0.80
-2.02
-2.87
-3.61
-4.35
-5.10
-5.85
-6.59
-7.39
-8.38
-9.63
-11.21
-13.11
-15.32
-17.83
-20.59
-23.34
-25.62
-26.77
-26.08
-23.03
-17.55
-10.06
-1.43
7.22
14.83
20.65
24.32
25.93
25.83
24.53
22.52
20.24
18.02
16.14
14.81
14.12
13.95
13.99
13.77
12.86
11.04
8.39
5.33
2.39
-0.03
-1.83
-3.25
-4.79
-6.96
-10.01
-13.81
-17.77
-20.99
-22.55
-21.73
-18.32
-12.63
-5.45
2.24
9.49
15.65
20.36
23.49
25.06
25.08
23.63
20.92
17.42
13.80
10.76
8.81
8.05
8.17
8.58
8.70
8.23
7.15
5.68
4.09
2.55
1.07
-0.44
-2.10
-3.99
-6.22
-8.87
-12.06
-15.82
-20.02
-24.24
-27.74
-29.61
-29.01
-25.48
-19.17
-10.86
-1.72
6.98
14.31
19.82
23.50
25.61
26.44
26.18
24.99
23.09
20.81
18.61
16.86
15.76
15.23
14.98
14.64
13.87
12.54
10.67
8.40
5.96
3.49
1.09
-1.24
-3.45
-5.50
-7.26
-8.63
-9.65
-10.59
-11.88
-13.95
-16.98
-20.68
-24.21
-26.47
-26.38
-23.31
-17.32
-9.16
-0.01
8.84
16.41
22.12
25.79
27.50
27.47
26.02
23.55
20.62
17.87
15.82
14.74
14.54
14.87
15.24
15.29
14.82
13.89
12.59
11.05
9.29
7.28
5.03
2.56
-0.00
-2.47
-4.65
-6.44
-7.83
-9.01
-10.30
-12.11
-14.69
-18.03
-21.67
-24.81
-26.46
-25.81
-22.47
-16.66
-9.06
-0.62
7.72
15.17
21.16
25.28
27.27
27.13
25.15
21.95
18.36
15.21
13.00
11.86
11.52
11.52
11.41
10.93
10.04
8.79
7.33
5.75
4.05
2.21
0.18
-2.03
-4.37
-6.74
-9.01
-11.07
-12.87
-14.37
-15.62
-16.73
-17.95
-19.55
-21.74
-24.46
-27.23
-29.21
-29.30
-26.67
-21.00
-12.75
-3.05
6.65
15.09
21.46
25.53
27.39
27.30
25.57
22.59
18.93
15.36
12.67
11.38
11.45
12.35
13.28
13.61
13.13
12.11
10.96
10.00
9.14
8.08
6.50
4.32
1.82
-0.54
-2.39
-3.59
-4.47
-5.52
-7.25
-9.87
-13.20
-16.75
-19.94
-22.20
-23.26
-22.98
-21.24
-17.91
-12.88
-6.22
1.56
9.57
16.54
21.34
23.35
22.71
20.26
17.11
14.28
12.31
11.24
10.79
10.62
10.51
10.43
10.38
10.34
10.17
9.62
8.48
6.64
4.17
1.29
-1.70
-4.56
-7.11
-9.33
-11.32
-13.21
-15.21
-17.47
-20.07
-22.92
-25.69
-27.82
-28.65
-27.59
-24.31
-18.93
-11.99
-4.33
3.17
9.79
15.02
18.61
20.51
20.76
19.55
17.18
14.13
10.96
8.23
6.30
5.22
4.79
4.62
4.40
3.94
3.28
2.56
1.88
1.26
0.63
-0.13
-1.11
-2.32
-3.75
-5.42
-7.37
-9.71
-12.47
-15.52
-18.46
-20.65
-21.35
-19.96
-16.28
-10.65
-3.88
3.03
9.19
14.07
17.51
19.56
20.36
19.95
18.33
15.62
12.13
8.39
5.06
2.67
1.48
1.34
1.82
2.36
2.53
2.20
1.56
0.94
0.66
0.78
1.10
1.29
1.01
0.12
-1.36
-3.29
-5.52
-7.84
-10.01
-11.64
-12.21
-11.27
-8.56
-4.21
1.28
7.09
12.40
16.51
19.07
20.03
19.55
17.92
15.46
12.46
9.23
6.10
3.39
1.43
0.36
0.15
0.52
1.09
1.44
1.35
0.77
-0.22
-1.52
-3.13
-5.10
-7.52
-10.36
-13.44
-16.46
-19.01
-20.76
-21.45
-20.88
-18.96
-15.68
-11.14
-5.69
0.21
5.87
10.63
13.92
15.37
14.94
12.90
9.76
6.18
2.74
-0.14
-2.25
-3.59
-4.30
-4.54
-4.54
-4.49
-4.61
-5.07
-5.96
-7.22
-8.67
-10.11
-11.46
-12.80
-14.39
-16.43
-18.89
-21.33
-23.01
-23.11
-21.05
-16.81
-10.94
-4.44
1.67
6.60
9.96
11.77
12.25
11.65
10.11
7.77
4.86
1.81
-0.83
-2.57
-3.19
-2.85
-2.04
-1.36
-1.27
-1.91
-3.15
-4.71
-6.32
-7.87
-9.50
-11.38
-13.69
-16.35
-19.06
-21.30
-22.45
-21.95
-19.54
-15.29
-9.70
-3.51
2.46
7.49
11.11
13.10
13.52
12.58
10.59
7.90
4.92
2.08
-0.24
-1.79
-2.50
-2.57
-2.35
-2.22
-2.45
-3.12
-4.11
-5.22
-6.32
-7.43
-8.74
-10.51
-12.85
-15.61
-18.30
-20.20
-20.56
-18.87
-15.03
-9.48
-3.00
3.41
8.88
12.84
15.11
15.81
15.23
13.71
11.49
8.80
5.91
3.19
1.03
-0.24
-0.57
-0.20
0.39
0.70
0.46
-0.31
-1.35
-2.41
-3.37
-4.41
-5.84
-7.88
-10.49
-13.16
-15.15
-15.69
-14.28
-10.93
-6.07
-0.43
5.22
10.23
14.18
16.82
18.07
17.95
16.60
14.36
11.65
8.98
6.78
5.31
4.55
4.26
4.02
3.40
2.13
0.21
-2.10
-4.40
-6.36
-7.89
-9.18
-10.56
-12.31
-14.42
-16.61
-18.35
-19.12
-18.55
-16.50
-13.11
-8.68
-3.62
1.63
6.54
10.64
13.49
14.84
14.67
13.21
10.98
8.56
6.47
5.02
4.21
3.80
3.49
3.11
2.67
2.34
2.22
2.27
2.19
1.61
0.17
-2.25
-5.51
-9.30
-13.22
-16.85
-19.72
-21.34
-21.23
-19.08
-14.87
-9.00
-2.26
4.33
9.81
13.47
15.08
14.85
13.34
11.19
8.97
7.01
5.44
4.25
3.39
2.84
2.56
2.46
2.37
2.09
1.47
0.43
-0.98
-2.68
-4.62
-6.84
-9.39
-12.26
-15.25
-17.96
-19.80
-20.18
-18.63
-15.01
-9.63
-3.22
3.27
8.92
13.09
15.57
16.50
16.18
14.93
13.00
10.62
8.12
5.89
4.30
3.51
3.37
3.46
3.35
2.76
1.67
0.31
-1.07
-2.38
-3.74
-5.40
-7.61
-10.45
-13.69
-16.81
-19.11
-19.93
-18.79
-15.62
-10.73
-4.73
1.64
7.67
12.79
16.54
18.64
18.96
17.67
15.18
12.11
9.10
6.62
4.85
3.66
2.81
2.00
1.10
0.08
-1.00
-2.07
-3.07
-4.06
-5.14
-6.42
-8.06
-10.09
-12.44
-14.80
-16.74
-17.75
-17.40
-15.49
-12.12
-7.65
-2.56
2.61
7.32
11.15
13.75
14.95
14.82
13.69
12.03
10.34
8.93
7.84
7.00
6.24
5.59
5.15
5.07
5.35
5.70
5.72
5.07
3.70
1.84
-0.07
-1.78
-3.29
-5.03
-7.48
-10.82
-14.65
-18.01
-19.68
-18.74
-14.91
-8.81
-1.64
5.34
11.22
15.68
18.82
20.91
22.05
22.04
20.65
17.89
14.19
10.40
7.40
5.78
5.59
6.30
7.11
7.29
6.43
4.59
2.11
-0.55
-3.01
-5.16
-7.07
-8.93
-10.93
-13.13
-15.43
-17.63
-19.44
-20.54
-20.65
-19.55
-17.14
-13.46
-8.76
-3.46
1.90
6.81
10.80
13.54
14.83
14.60
12.91
10.02
6.42
2.74
-0.33
-2.34
-3.16
-3.04
-2.51
-2.10
-2.10
-2.51
-3.10
-3.61
-3.91
-4.13
-4.53
-5.41
-6.93
-9.07
-11.66
-14.49
-17.31
-19.89
-21.90
-22.92
-22.52
-20.32
-16.28
-10.69
-4.27
2.06
7.40
11.11
12.99
13.22
12.23
10.48
8.38
6.20
4.18
2.61
1.74
1.75
2.59
3.93
5.31
6.31
6.67
6.47
5.91
5.21
4.44
3.48
2.06
0.02
-2.65
-5.70
-8.73
-11.22
-12.67
-12.68
-11.00
-7.63
-2.83
2.90
8.85
14.28
18.60
21.43
22.68
22.47
21.05
18.70
15.77
12.58
9.45
6.62
4.18
2.09
0.16
-1.76
-3.75
-5.70
-7.33
-8.32
-8.49
-7.88
-6.81
-5.75
-5.19
-5.47
-6.65
-8.52
-10.66
-12.49
-13.44
-13.00
-10.89
-7.17
-2.26
3.15
8.28
12.49
15.47
17.18
17.77
17.36
16.08
14.00
11.37
8.63
6.29
4.80
4.26
4.39
4.63
4.42
3.46
1.78
-0.25
-2.21
-3.82
-5.11
-6.36
-7.95
-10.13
-12.87
-15.81
-18.40
-20.05
-20.36
-19.13
-16.39
-12.26
-6.99
-0.92
5.46
11.56
16.67
20.20
21.82
21.61
19.98
17.62
15.17
13.12
11.63
10.61
9.83
9.06
8.17
7.11
5.89
4.48
2.85
0.96
-1.14
-3.31
-5.43
-7.38
-9.18
-10.94
-12.86
-15.06
-17.49
-19.81
-21.48
-21.86
-20.44
-17.02
-11.82
-5.52
1.02
6.90
11.47
14.42
15.77
15.80
14.87
13.36
11.57
9.75
8.13
6.92
6.30
6.28
6.72
7.30
7.59
7.23
6.07
4.20
1.89
-0.49
-2.70
-4.69
-6.63
-8.78
-11.47
-14.82
-18.77
-22.91
-26.62
-29.16
-29.84
-28.25
-24.36
-18.56
-11.50
-4.03
3.10
9.27
14.07
17.31
18.92
18.99
17.73
15.49
12.76
10.07
7.93
6.63
6.22
6.49
7.03
7.44
7.41
6.81
5.66
4.09
2.28
0.40
-1.38
-2.93
-4.21
-5.33
-6.51
-8.04
-10.08
-12.53
-14.92
-16.54
-16.65
-14.77
-10.89
-5.48
0.71
6.87
12.40
16.92
20.25
22.27
22.89
22.09
20.04
17.15
13.99
11.19
9.24
8.27
8.14
8.40
8.58
8.29
7.34
5.81
3.92
1.92
0.03
-1.68
-3.27
-4.87
-6.63
-8.65
-10.98
-13.50
-16.00
-18.16
-19.55
-19.73
-18.37
-15.29
-10.62
-4.74
1.71
8.01
13.46
17.54
19.98
20.80
20.21
18.58
16.30
13.73
11.14
8.79
6.82
5.35
4.34
3.66
3.06
2.32
1.29
-0.01
-1.46
-2.88
-4.11
-5.16
-6.15
-7.33
-8.95
-11.14
-13.85
-16.73
-19.21
-20.59
-20.34
-18.21
-14.41
-9.46
-4.06
1.20
5.93
9.88
12.91
14.83
15.45
14.69
12.69
9.87
6.84
4.20
2.31
1.26
0.82
0.62
0.34
-0.19
-0.96
-1.83
-2.69
-3.49
-4.31
-5.33
-6.68
-8.41
-10.43
-12.58
-14.69
-16.58
-18.08
-18.99
-19.03
-17.85
-15.24
-11.22
-6.14
-0.64
4.53
8.72
11.51
12.77
12.64
11.36
9.28
6.73
4.12
1.81
0.12
-0.77
-0.87
-0.38
0.38
1.07
1.47
1.48
1.12
0.47
-0.41
-1.52
-2.96
-4.86
-7.29
-10.19
-13.27
-16.09
-18.14
-18.96
-18.26
-16.00
-12.32
-7.58
-2.22
3.23
8.21
12.22
14.97
16.42
16.76
16.33
15.54
14.70
13.99
13.47
13.11
12.78
12.36
11.71
10.80
9.60
8.24
6.84
5.50
4.23
2.98
1.64
0.09
-1.86
-4.37
-7.45
-10.85
-14.03
-16.19
-16.61
-14.91
-11.35
-6.65
-1.77
2.53
5.93
8.52
10.46
11.80
12.23
11.34
9.00
5.59
1.99
-0.75
-1.93
-1.51
-0.13
1.29
2.05
1.93
1.26
0.58
0.23
0.18
-0.02
-0.88
-2.69
-5.31
-8.27
-10.98
-12.95
-13.87
-13.67
-12.34
-9.96
-6.70
-2.83
1.26
5.11
8.32
10.57
11.76
11.90
11.11
9.59
7.60
5.46
3.48
1.91
0.83
0.19
-0.22
-0.58
-1.02
-1.55
-2.10
-2.65
-3.18
-3.81
-4.70
-6.00
-7.78
-9.93
-12.17
-14.10
-15.26
-15.25
-13.91
-11.31
-7.73
-3.60
0.66
4.65
8.09
10.69
12.22
12.49
11.47
9.38
6.67
3.90
1.57
-0.07
-1.10
-1.83
-2.61
-3.69
-5.10
-6.71
-8.29
-9.68
-10.82
-11.81
-12.79
-13.89
-15.10
-16.25
-17.03
-17.09
-16.13
-14.02
-10.80
-6.64
-1.75
3.64
9.26
14.79
19.81
23.81
26.35
27.19
26.39
24.31
21.43
18.27
15.15
12.27
9.68
7.43
5.56
4.12
3.12
2.50
2.05
1.54
0.74
-0.53
-2.35
-4.67
-7.38
-10.26
-12.99
-15.18
-16.41
-16.29
-14.63
-11.48
-7.23
-2.46
2.18
6.15
9.12
10.99
11.80
11.66
10.66
8.94
6.70
4.23
1.90
0.06
-1.06
-1.43
-1.23
-0.72
-0.19
0.13
0.14
-0.20
-0.79
-1.62
-2.59
-3.71
-4.97
-6.35
-7.71
-8.78
-9.19
-8.65
-7.00
-4.35
-1.07
2.30
5.26
7.42
8.59
8.72
7.91
6.32
4.21
1.94
-0.12
-1.64
-2.45
-2.63
-2.47
-2.31
-2.39
-2.76
-3.24
-3.59
-3.64
-3.52
-3.52
-4.02
-5.24
-7.08
-9.12
-10.75
-11.47
-11.07
-9.64
-7.50
-4.99
-2.35
0.29
2.78
4.93
6.42
6.98
6.45
4.98
2.93
0.81
-0.94
-2.07
-2.63
-2.84
-2.99
-3.30
-3.86
-4.66
-5.61
-6.64
-7.76
-9.04
-10.55
-12.30
-14.17
-15.89
-17.04
-17.12
-15.74
-12.73
-8.17
-2.45
3.85
10.07
15.58
19.88
22.63
23.64
22.93
20.76
17.58
14.03
10.79
8.42
7.21
7.16
7.99
9.20
10.30
10.84
10.53
9.30
7.25
4.63
1.72
-1.19
-3.93
-6.33
-8.22
-9.35
-9.36
-7.93
-4.91
-0.47
4.90
10.45
15.47
19.40
22.01
23.26
23.31
22.28
20.32
17.60
14.37
10.99
7.86
5.31
3.46
2.23
1.41
0.73
0.05
-0.67
-1.33
-1.82
-2.18
-2.54
-3.16
-4.31
-6.10
-8.44
-11.03
-13.41
-15.07
-15.60
-14.77
-12.57
-9.29
-5.34
-1.25
2.48
5.43
7.31
7.99
7.48
5.95
3.78
1.44
-0.57
-1.88
-2.34
-2.05
-1.28
-0.31
0.65
1.52
2.28
2.93
3.46
3.85
4.13
4.31
4.43
4.43
4.22
3.62
2.55
1.08
-0.51
-1.79
-2.33
-1.82
-0.25
2.11
4.76
7.17
8.89
9.68
9.51
8.48
6.77
4.61
2.28
0.09
-1.61
-2.60
-2.83
-2.45
-1.79
-1.23
-1.03
-1.30
-1.97
-2.85
-3.70
-4.38
-4.91
-5.53
-6.62
-8.51
-11.25
-14.48
-17.50
-19.53
-20.00
-18.76
-16.14
-12.71
-9.03
-5.50
-2.29
0.47
2.65
4.05
4.55
4.19
3.28
2.32
1.82
2.08
3.09
4.57
6.11
7.35
8.12
8.39
8.29
7.91
7.31
6.49
5.45
4.16
2.64
0.94
-0.85
-2.50
-3.72
-4.17
-3.54
-1.69
1.33
5.29
9.84
14.56
18.93
22.44
24.62
25.08
23.67
20.50
15.89
10.35
4.44
-1.29
-6.39
-10.58
-13.71
-15.86
-17.18
-17.94
-18.36
-18.61
-18.79
-18.98
-19.20
-19.49
-19.92
-20.59
-21.62
-23.15
-25.19
-27.51
-29.63
-30.84
-30.43
-28.00
-23.65
-17.94
-11.73
-5.81
-0.75
3.24
6.12
7.95
8.71
8.44
7.31
5.71
4.16
3.10
2.70
2.78
2.96
2.91
2.50
1.91
1.39
1.14
1.12
1.06
0.72
-0.02
-1.04
-2.09
-3.00
-3.75
-4.52
-5.46
-6.52
-7.35
-7.41
-6.20
-3.57
0.19
4.26
7.73
9.87
10.40
9.58
7.93
6.01
4.19
2.51
0.84
-0.83
-2.35
-3.36
-3.50
-2.69
-1.22
0.27
1.10
0.91
-0.25
-1.90
-3.45
-4.50
-5.00
-5.34
-5.97
-7.17
-8.80
-10.26
-10.82
-9.88
-7.26
-3.36
1.09
5.28
8.67
11.06
12.54
13.31
13.47
12.95
11.70
9.71
7.27
4.77
2.71
1.41
0.99
1.30
1.97
2.58
2.75
2.26
1.14
-0.41
-2.07
-3.60
-4.92
-6.14
-7.44
-8.99
-10.70
-12.26
-13.18
-12.94
-11.25
-8.13
-3.90
0.88
5.65
9.89
13.29
15.64
16.86
16.92
15.82
13.63
10.57
7.05
3.58
0.68
-1.34
-2.44
-2.92
-3.25
-3.88
-5.03
-6.64
-8.48
-10.33
-12.13
-14.00
-16.13
-18.57
-21.16
-23.46
-24.93
-25.11
-23.74
-20.84
-16.70
-11.81
-6.76
-2.09
1.79
4.64
6.42
7.18
7.05
6.20
4.83
3.20
1.60
0.33
-0.47
-0.79
-0.80
-0.74
-0.77
-0.88
-0.94
-0.81
-0.44
-0.00
0.23
-0.05
-1.00
-2.52
-4.33
-5.97
-7.01
-7.09
-5.99
-3.72
-0.48
3.39
7.44
11.18
14.24
16.38
17.54
17.83
17.43
16.56
15.41
14.13
12.83
11.55
10.34
9.20
8.16
7.24
6.45
5.76
5.14
4.48
3.69
2.69
1.42
-0.11
-1.87
-3.79
-5.73
-7.46
-8.66
-8.98
-8.15
-6.09
-2.96
0.81
4.66
8.04
10.54
11.96
12.30
11.80
10.71
9.32
7.89
6.51
5.19
3.88
2.53
1.23
0.10
-0.75
-1.27
-1.60
-1.95
-2.50
-3.35
-4.47
-5.86
-7.52
-9.51
-11.79
-14.08
-15.86
-16.47
-15.46
-12.76
-8.80
-4.34
-0.14
3.29
5.77
7.45
8.57
9.26
9.47
9.11
8.10
6.62
5.02
3.74
3.06
2.97
3.14
3.19
2.83
2.06
1.07
0.09
-0.79
-1.78
-3.21
-5.36
-8.22
-11.37
-14.15
-15.82
-15.84
-13.99
-10.46
-5.73
-0.49
4.61
9.03
12.43
14.72
15.90
16.05
15.27
13.71
11.57
9.17
6.82
4.81
3.26
2.12
1.20
0.33
-0.61
-1.62
-2.61
-3.46
-4.09
-4.51
-4.82
-5.19
-5.77
-6.60
-7.54
-8.29
-8.48
-7.77
-6.03
-3.37
-0.10
3.37
6.65
9.46
11.63
13.08
13.77
13.69
12.88
11.46
9.67
7.80
6.21
5.12
4.63
4.54
4.59
4.45
3.97
3.21
2.34
1.56
0.94
0.36
-0.38
-1.47
-2.99
-4.83
-6.77
-8.51
-9.73
-10.14
-9.54
-7.86
-5.21
-1.92
1.52
4.62
6.99
8.41
8.87
8.48
7.42
5.89
4.11
2.31
0.73
-0.45
-1.19
-1.57
-1.79
-1.95
-2.10
-2.15
-2.01
-1.72
-1.44
-1.46
-1.98
-3.10
-4.76
-6.76
-8.89
-10.87
-12.39
-13.03
-12.38
-10.17
-6.48
-1.74
3.31
7.83
11.20
13.11
13.63
13.07
11.85
10.30
8.60
6.84
5.02
3.21
1.54
0.23
-0.56
-0.75
-0.42
0.18
0.75
1.00
0.77
-0.01
-1.27
-2.90
-4.77
-6.78
-8.78
-10.59
-11.95
-12.51
-11.98
-10.19
-7.19
-3.35
0.79
4.62
7.67
9.74
10.85
11.16
10.79
9.79
8.16
6.00
3.61
1.45
-0.02
-0.52
-0.14
0.73
1.57
1.94
1.71
0.99
0.02
-1.03
-2.15
-3.48
-5.13
-7.10
-9.19
-11.02
-12.16
-12.30
-11.26
-9.06
-5.94
-2.28
1.47
4.93
7.73
9.66
10.58
10.42
9.24
7.25
4.80
2.40
0.51
-0.59
-0.91
-0.74
-0.46
-0.37
-0.57
-0.99
-1.43
-1.79
-2.08
-2.50
-3.31
-4.69
-6.67
-9.04
-11.43
-13.37
-14.44
-14.33
-12.92
-10.29
-6.67
-2.46
1.84
5.70
8.65
10.42
10.92
10.31
8.91
7.10
5.19
3.38
1.79
0.44
-0.66
-1.47
-1.93
-2.01
-1.74
-1.26
-0.81
-0.64
-0.96
-1.86
-3.18
-4.73
-6.24
-7.56
-8.62
-9.44
-9.93
-9.87
-8.93
-6.94
-3.95
-0.34
3.34
6.58
9.07
10.74
11.68
11.89
11.31
9.92
7.88
5.62
3.75
2.74
2.75
3.44
4.22
4.54
4.19
3.36
2.50
2.01
2.01
2.15
1.86
0.68
-1.51
-4.37
-7.25
-9.45
-10.49
-10.33
-9.19
-7.36
-5.03
-2.22
1.12
4.82
8.47
11.34
12.74
12.30
10.21
7.12
3.92
1.40
-0.04
-0.51
-0.37
-0.06
0.15
0.23
0.30
0.47
0.78
1.02
0.94
0.28
-1.11
-3.19
-5.80
-8.67
-11.47
-13.88
-15.59
-16.33
-15.91
-14.28
-11.55
-8.03
-4.11
-0.24
3.19
5.92
7.81
8.82
9.00
8.49
7.51
6.33
5.21
4.30
3.63
3.12
2.66
2.19
1.73
1.35
1.14
1.10
1.18
1.25
1.18
0.82
0.11
-1.00
-2.42
-3.98
-5.38
-6.23
-6.19
-4.98
-2.56
0.88
4.89
8.91
12.33
14.67
15.69
15.38
14.02
11.98
9.63
7.26
5.05
3.09
1.37
-0.09
-1.27
-2.16
-2.83
-3.39
-4.01
-4.85
-5.94
-7.22
-8.45
-9.44
-10.06
-10.34
-10.42
-10.43
-10.43
-10.34
-10.00
-9.29
-8.14
-6.57
-4.69
-2.63
-0.55
1.32
2.79
3.67
3.92
3.62
2.96
2.17
1.40
0.75
0.21
-0.19
-0.47
-0.62
-0.72
-0.85
-1.15
-1.65
-2.29
-2.90
-3.37
-3.70
-4.10
-4.89
-6.32
-8.41
-10.74
-12.65
-13.41
-12.51
-9.88
-5.87
-1.11
3.71
8.03
11.46
13.74
14.78
14.58
13.34
11.47
9.53
8.04
7.35
7.48
8.18
9.07
9.81
10.18
10.13
9.69
8.88
7.73
6.21
4.31
2.08
-0.42
-3.06
-5.66
-8.03
-9.88
-10.85
-10.60
-8.83
-5.48
-0.82
4.60
9.89
14.16
16.68
17.09
15.56
12.64
9.04
5.43
2.19
-0.55
-2.80
-4.58
-5.84
-6.47
-6.41
-5.76
-4.74
-3.64
-2.64
-1.75
-0.93
-0.09
0.67
1.14
1.04
0.19
-1.31
-3.07
-4.53
-5.16
-4.64
-3.00
-0.57
2.12
4.53
6.24
7.01
6.86
5.89
4.35
2.49
0.56
-1.19
-2.54
-3.36
-3.63
-3.42
-2.88
-2.23
-1.66
-1.33
-1.37
-1.83
-2.69
-3.82
-5.08
-6.31
-7.48
-8.61
-9.79
-11.02
-12.13
-12.78
-12.57
-11.15
-8.48
-4.80
-0.63
3.40
6.78
9.19
10.58
11.08
10.89
10.13
8.83
7.06
4.94
2.76
0.87
-0.46
-1.16
-1.34
-1.27
-1.16
-1.09
-1.03
-0.87
-0.61
-0.37
-0.39
-0.95
-2.29
-4.44
-7.21
-10.15
-12.66
-14.11
-14.02
-12.27
-9.07
-4.95
-0.53
3.61
7.03
9.46
10.74
10.85
9.90
8.21
6.21
4.44
3.32
3.03
3.51
4.46
5.54
6.47
7.10
7.43
7.53
7.46
7.27
6.92
6.40
5.65
4.65
3.39
1.95
0.46
-0.80
-1.46
-1.18
0.26
2.80
6.08
9.40
11.87
12.59
10.90
6.69
0.54
-6.28
-12.16
-15.65
-16.00
-13.35
-8.73
-3.59
0.66
3.12
3.46
1.89
-1.07
-4.78
-8.62
-12.02
-14.51
-15.74
-15.64
-14.40
-12.55
-10.78
-9.81
-10.05
-11.47
-13.57
-15.47
-16.32
-15.51
-12.94
-8.96
-4.22
0.57
4.83
8.19
10.48
11.66
11.74
10.83
9.08
6.74
4.14
1.67
-0.33
-1.63
-2.19
-2.18
-1.92
-1.73
-1.83
-2.27
-2.96
-3.72
-4.45
-5.17
-5.95
-6.83
-7.71
-8.32
-8.26
-7.23
-5.13
-2.17
1.23
4.56
7.42
9.63
11.16
12.06
12.36
12.01
10.99
9.37
7.41
5.46
3.85
2.77
2.21
1.98
1.87
1.68
1.35
0.91
0.41
-0.16
-0.89
-1.91
-3.38
-5.36
-7.73
-10.16
-12.21
-13.38
-13.32
-11.89
-9.25
-5.76
-1.86
1.99
5.45
8.23
10.10
10.91
10.58
9.23
7.12
4.70
2.43
0.66
-0.46
-1.05
-1.35
-1.61
-1.98
-2.48
-3.01
-3.47
-3.81
-4.09
-4.43
-4.98
-5.85
-7.14
-8.83
-10.72
-12.45
-13.50
-13.33
-11.60
-8.30
-3.85
1.02
5.49
8.90
10.89
11.45
10.84
9.51
7.86
6.26
4.93
3.96
3.36
3.08
3.02
3.09
3.07
2.79
2.10
1.00
-0.32
-1.56
-2.48
-3.06
-3.61
-4.59
-6.38
-8.94
-11.70
-13.67
-13.92
-11.96
-8.05
-3.05
2.02
6.35
9.63
12.01
13.73
14.91
15.29
14.53
12.50
9.53
6.38
3.94
2.79
2.89
3.65
4.20
3.94
2.77
1.12
-0.41
-1.38
-1.74
-1.91
-2.42
-3.65
-5.61
-7.94
-10.12
-11.63
-12.06
-11.27
-9.33
-6.45
-2.90
0.98
4.85
8.44
11.48
13.76
15.06
15.26
14.32
12.34
9.62
6.59
3.74
1.47
-0.01
-0.74
-0.95
-0.94
-0.99
-1.23
-1.66
-2.18
-2.71
-3.22
-3.86
-4.79
-6.17
-8.03
-10.18
-12.29
-13.88
-14.51
-13.88
-11.94
-8.86
-5.00
-0.79
3.39
7.19
10.28
12.40
13.33
12.99
11.52
9.30
6.84
4.65
3.05
2.11
1.63
1.36
1.07
0.68
0.28
-0.03
-0.18
-0.22
-0.26
-0.44
-0.90
-1.69
-2.86
-4.34
-6.03
-7.75
-9.20
-10.00
-9.81
-8.36
-5.61
-1.78
2.63
7.01
10.78
13.50
14.96
15.20
14.39
12.80
10.69
8.37
6.15
4.34
3.20
2.84
3.18
3.93
4.72
5.23
5.29
4.92
4.26
3.42
2.49
1.43
0.19
-1.31
-3.06
-4.97
-6.84
-8.36
-9.15
-8.88
-7.36
-4.66
-1.13
2.74
6.45
9.67
12.18
13.90
14.76
14.65
13.55
11.59
9.13
6.70
4.78
3.68
3.34
3.47
3.67
3.67
3.42
3.06
2.72
2.38
1.83
0.80
-0.91
-3.21
-5.77
-8.18
-10.13
-11.48
-12.20
-12.24
-11.42
-9.50
-6.37
-2.18
2.47
6.78
9.95
11.48
11.27
9.65
7.18
4.44
1.87
-0.29
-1.96
-3.13
-3.78
-3.91
-3.59
-2.96
-2.37
-2.20
-2.65
-3.73
-5.14
-6.49
-7.51
-8.20
-8.83
-9.72
-10.99
-12.37
-13.27
-13.04
-11.25
-7.96
-3.67
0.84
4.85
7.89
9.84
10.81
10.98
10.53
9.55
8.13
6.41
4.61
2.97
1.70
0.85
0.38
0.11
-0.18
-0.65
-1.41
-2.41
-3.55
-4.69
-5.76
-6.76
-7.78
-8.92
-10.22
-11.53
-12.52
-12.77
-11.84
-9.52
-5.90
-1.44
3.16
7.19
10.10
11.66
11.93
11.21
9.83
8.05
6.03
3.85
1.67
-0.30
-1.80
-2.60
-2.69
-2.26
-1.67
-1.26
-1.26
-1.64
-2.24
-2.83
-3.35
-3.89
-4.68
-5.90
-7.49
-9.16
-10.41
-10.71
-9.76
-7.55
-4.39
-0.79
2.70
5.66
7.88
9.30
9.98
9.97
9.32
8.12
6.52
4.79
3.27
2.27
1.90
2.12
2.64
3.12
3.30
3.07
2.53
1.85
1.17
0.52
-0.21
-1.24
-2.72
-4.66
-6.83
-8.80
-10.04
-10.11
-8.81
-6.21
-2.68
1.23
4.93
7.96
10.05
11.06
11.04
10.11
8.43
6.25
3.87
1.60
-0.28
-1.62
-2.40
-2.75
-2.82
-2.79
-2.71
-2.57
-2.39
-2.20
-2.16
-2.44
-3.20
-4.46
-6.11
-7.90
-9.48
-10.51
-10.71
-9.90
-8.06
-5.35
-2.03
1.47
4.72
7.33
8.98
9.56
9.11
7.81
5.92
3.73
1.49
-0.59
-2.38
-3.83
-4.91
-5.65
-6.05
-6.11
-5.85
-5.35
-4.80
-4.41
-4.43
-5.00
-6.12
-7.62
-9.26
-10.75
-11.84
-12.31
-11.93
-10.59
-8.24
-5.03
-1.32
2.38
5.53
7.70
8.68
8.52
7.48
5.96
4.32
2.89
1.83
1.18
0.88
0.81
0.86
0.96
1.08
1.21
1.32
1.38
1.31
1.10
0.76
0.34
-0.10
-0.54
-0.98
-1.41
-1.69
-1.57
-0.71
1.11
3.89
7.27
10.65
13.36
14.91
15.12
14.16
12.41
10.29
8.12
6.10
4.34
2.96
2.05
1.67
1.81
2.26
2.75
2.96
2.72
2.00
0.95
-0.23
-1.43
-2.69
-4.17
-6.01
-8.22
-10.53
-12.49
-13.53
-13.24
-11.48
-8.47
-4.69
-0.71
2.96
5.99
8.16
9.36
9.52
8.64
6.90
4.69
2.53
0.89
0.03
-0.12
0.12
0.36
0.33
-0.02
-0.59
-1.21
-1.82
-2.55
-3.60
-5.16
-7.22
-9.56
-11.71
-13.17
-13.57
-12.77
-10.89
-8.21
-5.04
-1.63
1.84
5.17
7.99
9.92
10.64
10.11
8.64
6.79
5.11
3.95
3.22
2.62
1.85
0.81
-0.27
-1.00
-1.07
-0.50
0.30
0.74
0.37
-0.92
-2.82
-4.78
-6.26
-6.95
-6.88
-6.27
-5.30
-4.00
-2.25
0.12
3.04
6.24
9.12
11.12
11.82
11.21
9.61
7.48
5.30
3.38
1.82
0.57
-0.46
-1.35
-2.12
-2.77
-3.29
-3.66
-3.94
-4.18
-4.50
-5.01
-5.89
-7.24
-9.09
-11.26
-13.39
-15.00
-15.63
-15.03
-13.22
-10.49
-7.31
-4.08
-1.11
1.43
3.43
4.77
5.30
4.94
3.70
1.79
-0.44
-2.59
-4.32
-5.50
-6.16
-6.52
-6.79
-7.06
-7.29
-7.33
-7.03
-6.41
-5.65
-5.04
-4.88
-5.26
-6.05
-6.93
-7.52
-7.53
-6.82
-5.37
-3.26
-0.61
2.38
5.48
8.34
10.63
12.06
12.54
12.13
11.09
9.76
8.48
7.47
6.81
6.49
6.36
6.29
6.15
5.90
5.54
5.11
4.62
4.02
3.20
2.05
0.58
-1.16
-3.00
-4.80
-6.38
-7.63
-8.38
-8.40
-7.50
-5.56
-2.70
0.71
4.12
6.95
8.76
9.32
8.67
6.99
4.59
1.85
-0.85
-3.12
-4.67
-5.37
-5.34
-4.92
-4.49
-4.39
-4.80
-5.69
-6.89
-8.16
-9.28
-10.12
-10.71
-11.19
-11.79
-12.68
-13.82
-14.84
-15.08
-13.78
-10.40
-4.89
2.21
9.95
17.29
23.51
28.39
32.16
35.28
38.09
40.73
43.10
45.06
46.60
47.86
49.02
50.21
51.43
52.62
53.81
55.17
56.98
59.50
62.74
66.50
70.40
74.11
77.52
80.84
84.50
89.02
94.81
102.18
111.22
121.91
134.11
147.60
162.04
177.00
191.81
205.71
217.84
227.41
233.86
236.96
236.86
234.01
229.07
222.82
216.09
209.70
204.31
200.21
197.10
194.10
189.91
183.23
173.23
159.78
143.42
125.01
105.36
85.02
64.25
43.26
22.39
2.17
-16.86
-34.59
-51.51
-68.82
-88.26
-111.40
-138.88
-169.73
-201.22
-229.38
-250.01
-259.82
-257.41
-243.64
-221.44
-195.17
-169.56
-148.58
-134.47
-127.22
-124.91
-124.53
-123.24
-119.47
-113.19
-105.47
-97.65
-90.48
-83.94
-77.63
-71.28
-65.07
-59.47
-54.88
-51.19
-47.80
-43.88
-38.94
-33.12
-27.19
-22.19
-18.91
-17.53
-17.59
-18.28
-18.91
-19.15
-19.10
-19.00
-18.93
-18.65
-17.50
-14.75
