1548862228.00
64.000000
-0.00
-0.00
-0.00
-0.00
-0.00
-0.00
-0.00
-0.00
-0.00
-0.00
0.00
0.01
0.01
-0.00
-0.03
-0.05
-0.05
0.00
0.13
0.36
0.66
1.01
1.37
1.72
2.06
2.40
2.79
3.24
3.80
4.42
5.06
5.66
6.20
6.68
7.15
7.68
8.31
9.14
10.09
11.04
11.88
12.56
13.14
13.76
14.65
15.96
17.91
20.32
22.90
25.38
27.58
29.57
31.68
34.32
37.81
42.54
48.15
54.10
59.83
64.97
69.58
74.14
79.34
85.71
93.76
103.00
112.62
121.73
129.77
136.75
143.30
150.75
157.77
166.64
177.95
191.79
206.97
220.57
228.25
225.36
208.53
176.87
132.76
80.05
23.07
-34.94
-92.44
-149.16
-205.23
-260.37
-313.74
-363.87
-409.83
-450.91
-486.50
-515.74
-537.23
-549.22
-549.96
-538.37
-514.21
-478.67
-433.88
-382.45
-327.02
-269.84
-212.63
-156.66
-102.95
-52.37
-5.90
35.58
71.43
101.35
125.50
144.38
158.69
169.15
176.37
180.75
182.57
182.07
179.51
175.23
169.65
163.18
156.15
148.81
141.30
133.69
126.02
118.33
110.69
103.16
95.80
88.68
81.83
75.25
68.95
62.95
57.25
51.86
46.78
42.03
37.59
33.45
29.61
26.07
22.81
19.82
17.11
14.67
12.48
10.55
8.85
7.38
6.11
5.04
4.14
3.39
2.78
2.28
1.89
1.58
1.34
1.17
1.04
0.95
0.90
0.87
0.87
0.88
0.91
0.95
1.00
1.07
1.15
1.24
1.34
1.46
1.59
1.75
1.92
2.11
2.32
2.56
2.82
3.11
3.43
3.78
4.17
4.59
5.05
5.54
6.08
6.65
7.27
7.93
8.64
9.40
10.20
11.05
11.95
12.90
13.89
14.94
16.06
17.24
18.49
19.80
21.15
22.49
23.76
24.89
25.75
26.22
26.18
25.50
24.11
21.96
19.07
15.49
11.34
6.79
2.06
-2.63
-7.06
-11.04
-14.39
-17.03
-18.88
-19.96
-20.30
-19.99
-19.17
-17.93
-16.40
-14.67
-12.82
-10.91
-8.96
-6.98
-4.99
-3.03
-1.08
0.86
2.83
4.87
7.00
9.26
11.72
14.27
16.85
19.44
22.04
24.67
27.41
30.30
33.43
36.91
40.55
44.25
48.01
51.83
55.78
59.97
64.50
69.46
75.02
80.81
86.61
92.33
97.94
103.50
109.14
114.95
121.04
127.44
133.51
138.78
142.89
145.58
146.69
145.91
142.63
135.45
126.59
116.30
104.52
91.32
76.94
61.92
46.91
32.45
18.76
5.73
-7.58
-21.97
-37.78
-54.92
-72.78
-90.65
-107.93
-124.35
-140.02
-155.71
-172.22
-190.35
-210.88
-234.35
-260.42
-287.39
-311.90
-329.68
-337.08
-332.34
-316.20
-291.78
-263.09
-233.51
-204.86
-177.51
-151.25
-126.43
-103.96
-84.95
-69.84
-57.98
-47.91
-38.07
-27.63
-16.89
-6.89
1.19
6.81
10.29
12.59
14.82
17.71
21.34
25.26
28.80
31.38
32.84
33.31
33.10
32.51
31.61
30.44
29.02
27.46
26.01
24.85
23.92
22.89
21.23
18.50
14.61
9.95
5.35
1.87
0.36
1.28
4.46
9.30
15.01
20.94
26.74
32.29
37.51
42.08
45.56
47.54
47.88
46.81
44.86
42.67
40.94
40.41
41.57
44.40
48.07
50.96
51.26
47.68
40.18
30.02
19.30
10.08
3.69
0.58
0.61
3.30
8.06
14.14
20.63
26.67
31.78
35.98
39.87
44.14
49.30
55.43
62.24
69.42
76.72
83.95
90.62
95.99
98.98
98.26
92.49
80.77
63.33
41.84
19.19
-1.71
-18.43
-29.77
-36.14
-39.20
-41.09
-43.44
-46.99
-51.80
-58.76
-68.52
-81.34
-96.98
-114.95
-134.94
-156.95
-181.31
-208.42
-239.61
-274.39
-309.61
-340.07
-360.22
-366.01
-356.00
-331.70
-296.97
-258.82
-222.90
-191.82
-164.99
-140.46
-116.60
-93.21
-71.63
-41.60
-0.88
45.87
90.37
126.92
154.39
173.77
185.81
190.13
186.31
172.80
150.23
121.02
88.92
55.87
22.97
-8.62
-36.80
-58.46
-72.24
-77.85
-76.23
-69.23
-58.97
-46.38
-30.35
-10.57
12.95
37.13
56.87
66.88
64.37
50.82
32.03
15.76
8.39
12.66
26.30
44.20
61.46
75.48
86.26
95.35
104.41
113.88
123.43
132.25
140.07
147.68
156.74
168.64
183.61
199.72
213.52
221.51
221.85
215.48
205.81
196.93
191.32
188.55
185.65
179.17
167.55
152.10
136.33
123.81
116.12
112.09
108.65
102.70
92.84
79.73
65.39
51.73
39.49
28.03
16.25
3.70
-8.73
-18.85
-24.02
-22.19
-12.66
3.49
23.65
44.13
60.99
70.82
71.68
63.45
47.92
27.95
6.48
-14.29
-33.18
-49.69
-63.61
-74.54
-82.49
-87.95
-92.40
-98.31
-108.17
-124.05
-146.68
-175.52
-208.61
-243.18
-275.86
-303.00
-321.36
-328.51
-323.22
-305.60
-277.13
-240.36
-198.55
-155.22
-114.28
-80.01
-56.71
-47.76
-53.88
-71.89
-94.78
-113.66
-120.88
-113.04
-92.16
-64.07
-35.76
-12.08
5.74
19.43
31.82
44.99
59.76
76.01
93.85
113.43
134.43
155.68
174.86
189.42
197.40
198.23
192.73
182.52
169.33
154.63
139.66
125.35
112.44
101.18
91.31
82.12
72.90
63.29
53.44
43.86
35.03
27.35
21.08
16.41
13.44
12.05
11.60
11.07
9.52
6.35
1.62
-4.38
-11.60
-20.69
-32.67
-47.98
-65.73
-83.44
-98.03
-107.18
-110.53
-109.66
-106.87
-103.63
-99.61
-93.01
-81.87
-65.74
-46.27
-26.57
-9.77
2.49
10.53
16.05
20.99
26.30
31.77
36.39
39.24
40.20
40.25
40.76
42.99
47.00
51.88
56.10
58.30
58.05
55.89
52.98
50.36
48.28
46.18
43.17
38.68
32.96
27.02
22.08
18.86
17.03
15.54
13.24
9.56
4.96
0.64
-2.23
-3.12
-2.68
-2.26
-3.10
-5.75
-9.73
-13.91
-17.16
-18.88
-19.29
-19.01
-18.52
-17.80
-16.24
-13.03
-7.69
-0.38
7.93
15.83
22.01
25.64
26.68
25.72
23.74
21.78
20.44
19.85
19.73
19.54
18.82
17.44
15.74
14.43
14.30
15.77
18.79
22.72
26.76
30.13
32.10
31.89
28.60
21.55
10.88
-1.91
-14.12
-22.66
-25.41
-22.19
-14.91
-6.69
-0.47
2.04
0.75
-3.33
-8.81
-14.49
-19.60
-23.71
-26.64
-28.53
-29.82
-31.06
-32.62
-34.48
-36.15
-36.97
-36.35
-33.99
-29.93
-24.38
-17.69
-10.32
-2.92
3.63
8.42
10.76
10.51
8.00
4.04
-0.42
-4.50
-7.67
-9.67
-10.50
-10.29
-9.18
-7.22
-4.35
-0.54
4.10
9.18
14.05
18.06
20.63
21.61
21.21
19.87
18.07
16.15
14.19
12.23
10.27
8.48
7.14
6.54
6.73
7.47
8.23
8.50
7.99
6.82
5.48
4.57
4.37
4.74
5.04
4.54
2.68
-0.65
-5.02
-9.80
-14.32
-18.04
-20.68
-21.97
-21.64
-19.48
-15.31
-9.28
-1.97
5.70
12.57
17.69
20.53
21.20
20.34
18.82
17.34
16.17
15.15
13.86
11.99
9.64
7.36
5.87
5.74
7.08
9.45
12.14
14.48
16.06
16.89
17.15
16.97
16.38
15.18
13.23
10.54
7.33
4.05
1.07
-1.39
-3.36
-5.00
-6.40
-7.45
-7.81
-7.01
-4.90
-1.84
1.26
3.18
2.88
-0.05
-5.21
-11.46
-17.49
-22.13
-24.79
-25.41
-24.32
-21.86
-18.24
-13.44
-7.42
-0.43
6.97
13.84
19.26
22.60
23.84
23.51
22.38
21.07
19.76
18.19
16.02
13.13
9.91
7.08
5.32
4.86
5.30
5.85
5.64
4.29
2.05
-0.32
-1.95
-2.36
-1.68
-0.63
-0.05
-0.55
-2.16
-4.36
-6.42
-7.85
-8.64
-9.25
-10.31
-12.21
-14.86
-17.66
-19.95
-21.32
-21.87
-22.15
-22.79
-24.13
-25.97
-27.83
-29.13
-29.55
-29.11
-27.88
-25.74
-22.36
-17.38
-10.90
-3.68
3.11
8.38
11.70
13.47
14.60
16.05
18.13
20.50
22.33
22.84
21.73
19.33
16.48
14.21
13.16
13.53
14.92
16.66
18.11
19.09
19.81
20.72
21.64
22.00
20.98
18.09
13.75
9.30
6.23
5.38
6.22
7.22
6.70
3.89
-0.58
-5.02
-7.76
-8.10
-7.00
-6.29
-7.66
-11.65
-17.33
-22.75
-26.21
-26.92
-25.68
-23.87
-22.57
-21.66
-19.91
-15.79
-8.70
0.54
9.66
16.28
19.08
18.44
16.12
14.22
14.12
16.06
19.07
21.96
23.98
25.12
25.94
27.27
29.72
33.65
38.64
43.50
46.33
44.95
37.74
24.55
7.13
-11.24
-26.91
-37.10
-40.85
-38.97
-33.20
-25.15
-15.76
-5.59
4.31
11.82
13.99
8.23
-6.22
-27.36
-50.92
-71.76
-85.89
-91.72
-90.23
-83.87
-75.11
-65.40
-54.94
-43.31
-30.35
-16.68
-3.70
6.96
14.15
17.63
18.16
17.16
16.09
15.95
16.94
18.56
20.08
20.96
21.26
21.58
22.72
25.13
28.63
32.36
35.15
36.06
34.75
31.68
27.76
23.96
20.83
18.35
16.18
13.89
11.34
8.64
5.97
3.28
0.18
-3.88
-9.16
-15.31
-21.21
-25.40
-26.70
-24.86
-20.75
-16.04
-12.40
-10.69
-10.55
-10.62
-9.30
-5.66
0.11
6.79
12.73
16.66
18.19
17.94
17.04
16.63
17.39
19.35
21.91
23.97
24.10
20.90
13.47
1.95
-12.24
-26.62
-38.38
-45.46
-47.26
-44.71
-39.60
-33.55
-27.26
-20.38
-12.06
-1.79
9.75
20.56
27.60
27.58
17.84
-2.71
-33.09
-70.17
-109.19
-144.72
-172.04
-188.07
-192.08
-185.45
-171.00
-151.95
-131.10
-110.14
-89.83
-70.21
-51.33
-33.66
-17.94
-4.65
6.51
16.73
27.35
39.11
51.47
62.73
71.01
75.33
76.06
74.55
72.08
69.20
65.71
61.16
55.59
49.60
44.03
39.47
35.95
33.56
32.99
35.54
42.38
53.53
67.15
80.05
88.80
91.56
88.80
82.81
76.33
71.00
66.68
61.99
55.36
46.38
36.28
27.27
21.37
19.35
20.30
22.20
22.72
20.38
15.09
7.97
0.90
-4.34
-6.51
-5.11
-0.45
6.64
14.99
23.19
29.86
33.91
34.88
33.13
29.56
25.31
21.26
17.83
15.06
12.90
11.43
10.88
11.23
11.95
11.92
9.77
4.54
-3.70
-13.65
-23.15
-29.96
-32.67
-31.14
-26.58
-20.89
-16.00
-13.15
-12.59
-13.80
-15.95
-18.33
-20.63
-22.95
-25.47
-28.17
-30.73
-32.63
-33.35
-32.70
-30.84
-28.17
-25.11
-21.87
-18.46
-14.89
-11.40
-8.70
-7.86
-9.83
-14.85
-22.00
-29.18
-33.79
-33.65
-27.89
-17.24
-3.66
10.48
23.23
33.63
41.45
46.74
49.45
49.23
45.80
39.30
30.60
21.18
12.60
5.95
1.52
-1.20
-3.12
-4.98
-7.01
-8.78
-9.58
-8.83
-6.44
-3.05
0.32
2.61
3.11
1.77
-0.94
-4.27
-7.47
-10.07
-11.78
-12.47
-12.02
-10.20
-6.96
-2.50
2.60
7.39
10.93
12.59
12.32
10.71
8.70
7.15
6.63
7.14
8.33
9.66
10.68
11.25
11.41
11.31
11.05
10.54
9.63
8.27
6.55
4.79
3.32
2.31
1.63
0.88
-0.42
-2.56
-5.46
-8.62
-11.42
-13.34
-14.20
-14.34
-14.37
-14.93
-16.39
-18.60
-21.01
-22.95
-23.90
-23.77
-22.75
-21.09
-18.79
-15.48
-10.73
-4.42
2.97
10.32
16.27
19.83
20.78
19.74
17.71
15.51
13.40
11.12
8.36
5.26
2.57
1.48
2.85
6.69
11.98
17.03
20.30
21.09
19.80
17.59
15.69
14.75
14.60
14.46
13.52
11.30
7.84
3.56
-1.12
-5.93
-10.82
-15.78
-20.68
-25.25
-29.17
-32.26
-34.58
-36.38
-37.91
-39.21
-39.93
-39.49
-37.24
-32.85
-26.47
-18.80
-10.84
-3.54
2.50
7.15
10.67
13.38
15.46
16.77
17.08
16.23
14.43
12.24
10.40
9.48
9.52
10.10
10.43
9.87
8.16
5.72
3.31
1.76
1.35
1.73
1.94
0.85
-2.24
-7.21
-12.99
-18.16
-21.32
-21.86
-20.06
-16.86
-13.21
-9.76
-6.69
-4.25
-2.82
-2.89
-4.76
-8.00
-11.44
-13.71
-14.01
-12.93
-11.96
-12.66
-15.43
-18.95
-20.69
-18.26
-10.83
0.07
11.43
20.15
24.54
25.01
23.45
21.97
21.71
21.95
21.16
18.16
13.21
8.16
5.55
6.99
12.16
18.46
22.49
21.88
16.50
8.54
1.15
-3.30
-4.35
-3.69
-3.67
-5.80
-9.79
-13.84
-15.70
-14.10
-9.27
-2.98
2.58
5.84
6.44
5.08
2.86
0.61
-1.36
-3.40
-5.93
-8.96
-11.90
-13.76
-13.51
-10.58
-5.05
2.21
9.91
16.70
21.55
23.94
23.95
22.13
19.33
16.34
13.73
11.64
9.91
8.28
6.68
5.33
4.77
5.49
7.54
10.43
13.23
15.05
15.39
14.37
12.59
10.70
9.08
7.63
5.92
3.45
-0.03
-4.34
-8.90
-12.86
-15.40
-15.95
-14.45
-11.30
-7.24
-3.10
0.57
3.51
5.71
7.14
7.60
6.72
4.17
-0.03
-5.36
-10.90
-15.69
-19.04
-20.73
-21.02
-20.27
-18.77
-16.55
-13.52
-9.67
-5.27
-0.94
2.64
4.90
5.70
5.31
4.25
2.98
1.75
0.49
-0.96
-2.67
-4.46
-5.80
-6.07
-4.82
-2.02
1.82
5.82
9.03
10.82
11.12
10.35
9.09
7.82
6.63
5.39
3.90
2.16
0.53
-0.52
-0.70
-0.19
0.43
0.40
-0.74
-2.88
-5.34
-7.21
-7.92
-7.51
-6.68
-6.38
-7.32
-9.58
-12.53
-15.39
-17.53
-18.88
-19.80
-20.74
-21.76
-22.39
-21.80
-19.42
-15.17
-9.65
-3.81
1.58
6.15
9.94
13.10
15.47
16.60
16.02
13.66
10.08
6.36
3.60
2.36
2.33
2.69
2.63
1.83
0.72
0.17
0.84
2.96
5.83
8.37
9.54
8.80
6.38
3.03
-0.33
-2.88
-4.48
-5.27
-5.58
-5.63
-5.42
-4.74
-3.53
-1.92
-0.51
-0.02
-0.89
-3.11
-6.07
-9.00
-11.33
-13.02
-14.72
-17.28
-21.31
-26.66
-32.42
-37.24
-39.92
-39.74
-36.90
-32.07
-26.14
-19.77
-13.30
-6.92
-0.79
4.82
9.39
12.39
13.49
12.64
10.22
6.92
3.69
1.57
1.31
3.17
6.79
11.32
15.72
19.17
21.35
22.51
23.22
24.01
24.99
25.81
25.89
24.73
22.26
18.99
15.67
13.02
11.38
10.64
10.42
10.36
10.35
10.55
11.18
12.25
13.45
14.22
14.07
12.81
10.71
8.47
6.93
6.76
8.31
11.55
16.25
22.02
28.44
35.11
41.52
47.05
51.03
52.87
52.26
49.33
44.68
39.31
34.35
30.68
28.72
28.26
28.63
28.96
28.53
27.05
24.63
21.54
18.03
14.05
9.47
4.23
-1.43
-6.85
-11.26
-14.14
-15.63
-16.55
-18.01
-20.89
-25.27
-30.38
-35.05
-38.36
-40.10
-40.95
-41.84
-43.47
-45.78
-48.02
-49.21
-48.74
-46.70
-43.77
-40.68
-37.83
-35.03
-31.69
-27.35
-22.08
-16.55
-11.94
-9.27
-8.93
-10.47
-12.71
-14.29
-14.16
-12.07
-8.46
-4.16
0.07
3.89
7.44
11.01
14.73
18.32
21.09
22.23
21.25
18.20
13.80
9.01
4.73
1.31
-1.45
-4.13
-7.21
-10.74
-14.17
-16.68
-17.65
-17.03
-15.48
-14.05
-13.59
-14.38
-15.98
-17.50
-18.24
-18.02
-17.35
-17.03
-17.56
-18.74
-19.57
-18.75
-15.36
-9.31
-1.57
6.32
12.76
16.66
17.62
15.80
11.61
5.61
-1.55
-8.94
-15.42
-19.80
-21.29
-19.84
-16.26
-11.96
-8.43
-6.79
-7.42
-10.06
-14.00
-18.49
-22.98
-27.15
-30.85
-33.91
-36.11
-37.18
-36.87
-35.22
-32.52
-29.30
-26.17
-23.61
-21.80
-20.55
-19.38
-17.76
-15.32
-12.00
-8.05
-3.88
0.17
4.00
7.64
11.12
14.34
16.92
18.48
18.80
18.11
17.02
16.35
16.76
18.44
21.05
23.93
26.39
28.07
29.03
29.63
30.22
30.79
30.86
29.59
26.22
20.53
13.13
5.26
-1.57
-6.24
-8.52
-8.93
-8.39
-7.70
-7.24
-7.35
-8.24
-10.25
-13.52
-17.59
-21.22
-22.90
-21.48
-17.23
-11.61
-6.63
-3.75
-2.94
-2.84
-1.61
1.92
7.29
12.95
17.04
18.54
17.80
16.19
15.11
15.30
16.00
15.90
13.91
10.12
5.90
3.24
3.52
6.78
11.06
13.74
12.78
7.80
0.38
-6.85
-11.67
-13.36
-13.33
-13.94
-17.17
-23.28
-30.60
-36.29
-37.94
-34.61
-27.53
-19.20
-12.06
-7.44
-5.09
-3.78
-2.28
-0.03
2.44
4.11
4.15
2.50
-0.18
-2.79
-4.35
-4.25
-2.59
0.11
3.23
6.27
8.97
11.29
13.29
15.01
16.25
16.64
15.75
13.27
9.23
4.09
-1.31
-5.95
-8.97
-9.97
-9.20
-7.43
-5.64
-4.61
-4.61
-5.33
-6.08
-6.16
-5.17
-3.10
-0.25
2.97
6.20
9.22
11.78
13.55
14.14
13.22
10.78
7.30
3.64
0.88
-0.11
1.05
4.11
8.32
12.67
16.28
18.63
19.68
19.71
19.14
18.19
16.88
15.04
12.51
9.39
6.07
3.10
0.97
-0.17
-0.59
-0.83
-1.44
-2.67
-4.37
-6.04
-7.14
-7.27
-6.32
-4.46
-1.91
1.17
4.74
8.74
12.88
16.62
19.19
19.97
18.66
15.56
11.51
7.49
4.27
2.11
0.79
-0.21
-1.27
-2.42
-3.33
-3.56
-2.90
-1.60
-0.27
0.44
0.15
-1.04
-2.70
-4.33
-5.72
-6.95
-8.30
-9.95
-11.81
-13.51
-14.58
-14.77
-14.22
-13.44
-13.12
-13.74
-15.28
-17.17
-18.42
-18.11
-15.76
-11.57
-6.35
-1.15
3.15
6.11
7.79
8.42
8.26
7.42
5.99
4.22
2.62
1.84
2.42
4.36
7.15
9.85
11.56
11.77
10.62
8.77
7.19
6.58
7.24
8.94
11.04
12.82
13.73
13.49
12.22
10.01
7.06
3.54
-0.35
-4.28
-7.77
-10.37
-11.79
-12.19
-11.99
-11.61
-11.26
-10.73
-9.62
-7.66
-4.97
-2.22
-0.19
0.60
0.21
-0.72
-1.37
-1.16
-0.02
1.49
2.65
3.02
2.71
2.35
2.70
4.22
6.90
10.07
12.83
14.31
14.07
12.09
8.79
4.83
0.95
-2.29
-4.56
-5.93
-6.77
-7.63
-9.05
-11.29
-14.22
-17.53
-20.78
-23.63
-25.84
-27.18
-27.37
-26.12
-23.24
-18.93
-13.77
-8.67
-4.57
-2.06
-1.20
-1.51
-2.17
-2.47
-2.02
-0.94
0.34
1.27
1.47
0.89
-0.13
-1.09
-1.54
-1.26
-0.39
0.70
1.59
1.88
1.41
0.09
-2.10
-5.08
-8.72
-12.63
-16.32
-19.28
-21.13
-21.90
-21.91
-21.68
-21.61
-21.79
-21.99
-21.74
-20.53
-18.07
-14.40
-9.85
-5.14
-0.93
2.22
4.16
5.17
5.75
6.27
6.62
6.15
4.16
0.41
-4.36
-8.48
-10.06
-7.94
-2.38
4.81
11.05
13.87
11.76
4.78
-5.45
-15.86
-22.42
-20.99
-8.55
15.54
48.78
85.87
120.03
145.11
157.34
156.03
143.28
122.86
98.87
74.99
53.99
37.65
26.75
21.01
19.27
19.73
20.49
20.04
17.57
13.08
7.20
0.85
-5.00
-9.71
-13.02
-15.08
-16.31
-17.26
-18.39
-19.98
-21.98
-24.05
-25.69
-26.29
-25.52
-23.45
-20.61
-17.88
-16.10
-15.76
-16.79
-18.58
-20.34
-21.50
-21.99
-22.25
-22.88
-24.29
-26.35
-28.47
-29.90
-30.07
-28.89
-26.66
-23.80
-20.54
-16.84
-12.47
-7.44
-2.11
2.77
6.36
8.10
7.92
6.29
4.01
1.90
0.49
-0.05
0.13
0.69
1.36
2.05
2.87
3.98
5.41
6.90
7.92
7.86
6.30
3.30
-0.66
-4.83
-8.59
-11.67
-14.18
-16.50
-19.00
-21.83
-24.80
-27.50
-29.50
-30.53
-30.49
-29.45
-27.44
-24.43
-20.33
-15.17
-9.28
-3.27
2.09
6.13
8.57
9.59
9.73
9.59
9.61
9.89
10.28
10.59
10.75
10.91
11.32
12.15
13.32
14.49
15.18
15.01
13.90
12.13
10.13
8.31
6.82
5.49
4.00
2.13
-0.07
-2.29
-4.38
-6.36
-8.56
-11.41
-15.03
-19.07
-22.78
-25.41
-26.62
-26.59
-25.74
-24.41
-22.51
-19.61
-15.32
-9.72
-3.60
1.87
5.60
7.03
6.41
4.54
2.42
0.91
0.10
-0.26
-0.71
-1.67
-3.10
-4.42
-4.88
-3.84
-1.64
0.79
2.28
2.11
0.61
-0.85
-0.71
1.95
6.47
11.13
13.96
13.93
11.57
8.70
7.29
8.46
11.80
15.97
19.70
22.57
25.10
28.01
31.22
33.42
32.23
25.69
13.53
-2.24
-17.89
-29.49
-34.54
-32.67
-25.68
-16.25
-6.70
1.68
8.50
13.63
16.62
16.69
12.93
5.17
-5.63
-17.42
-27.67
-34.14
-35.57
-31.93
-24.52
-15.42
-7.00
-1.27
0.57
-1.53
-6.52
-12.52
-17.39
-19.41
-17.83
-13.08
-6.57
-0.09
4.82
7.33
7.40
5.48
2.03
-2.80
-9.16
-17.17
-26.49
-36.10
-44.48
-50.15
-52.21
-50.77
-46.87
-42.08
-37.82
-34.88
-33.17
-31.97
-30.29
-27.31
-22.57
-15.99
-7.77
1.72
11.97
22.22
31.56
39.01
43.89
46.21
46.81
47.20
49.06
53.48
60.50
68.99
77.13
83.09
85.72
84.91
81.36
76.11
70.02
63.62
57.25
51.36
46.71
44.17
44.23
46.49
49.51
51.19
49.75
44.68
37.28
30.28
26.69
28.46
35.65
46.51
58.34
68.53
75.11
76.68
72.05
60.28
41.18
16.18
-10.97
-34.74
-49.24
-50.23
-36.73
-11.06
22.46
59.63
98.00
136.85
176.03
214.33
248.52
273.99
286.63
284.67
269.66
245.66
217.19
186.93
154.99
119.82
80.31
37.21
-6.90
-49.23
-88.29
-124.21
-157.40
-186.45
-206.78
-211.45
-193.92
-152.00
-90.45
-20.62
42.74
86.20
101.94
89.40
54.17
4.81
-50.61
-106.90
-162.36
-217.20
-271.37
-322.96
-368.28
-403.38
-426.03
-436.52
-437.25
-431.06
-419.99
-405.08
-386.80
-366.00
-344.12
-322.95
-304.12
-288.75
-277.30
-269.42
-263.67
-257.21
-246.19
-226.73
-196.57
-156.33
-109.12
-58.74
-7.47
44.59
98.43
153.56
206.29
250.50
280.48
294.17
294.44
287.61
280.05
275.35
273.15
270.66
265.29
256.48
245.82
235.68
227.48
220.93
214.46
206.31
195.60
182.59
168.34
154.40
142.26
133.14
127.72
126.18
127.99
131.99
136.35
138.84
137.24
129.97
116.83
99.26
80.44
64.11
53.29
49.11
50.39
54.44
58.34
60.37
60.77
61.44
64.61
71.33
80.61
89.76
95.82
97.23
94.71
90.99
89.29
91.52
97.30
103.89
107.22
103.46
90.37
68.23
39.74
9.31
-18.08
-38.04
-48.09
-48.59
-42.65
-35.36
-32.01
-36.40
-49.55
-69.73
-93.32
-116.44
-136.15
-150.92
-160.20
-163.82
-161.83
-154.78
-144.31
-133.00
-123.63
-118.02
-116.47
-118.23
-122.64
-130.05
-141.70
-158.61
-180.08
-202.98
-222.31
-232.87
-231.19
-216.62
-191.25
-158.85
-123.47
-88.29
-55.28
-25.40
0.83
23.04
41.09
55.51
67.91
80.74
96.39
115.93
138.20
160.15
178.07
189.34
193.57
192.53
188.91
184.95
181.27
176.93
170.03
158.59
141.02
116.02
82.59
40.49
-8.92
-61.85
-112.03
-151.81
-174.33
-175.95
-157.90
-126.21
-89.61
-56.36
-31.37
-15.19
-5.21
1.57
6.10
6.40
-1.04
-18.89
-46.85
-81.32
-116.61
-147.09
-169.04
-181.28
-184.81
-182.02
-176.16
-170.80
-169.02
-172.67
-181.65
-193.90
-206.18
-215.19
-218.66
-215.72
-206.64
-192.47
-174.61
-154.82
-135.18
-118.00
-105.49
-99.19
-99.31
-104.37
-111.35
-116.43
-116.15
-108.55
-93.68
-73.30
-49.95
-25.73
-1.60
22.57
47.31
72.53
96.97
118.20
133.43
140.49
138.81
129.97
117.52
105.93
99.44
100.44
109.03
123.70
142.52
164.11
187.86
213.29
239.25
263.60
283.46
295.96
298.80
290.52
270.58
239.43
198.80
151.95
103.42
58.03
19.59
-9.92
-30.33
-42.35
-46.84
-44.41
-35.92
-22.92
-7.81
7.05
20.10
30.99
40.66
50.25
60.12
69.39
76.07
77.77
72.66
60.18
41.45
19.11
-3.28
-22.19
-35.17
-41.56
-42.49
-40.38
-38.08
-38.06
-42.02
-50.67
-63.47
-78.47
-92.34
-101.14
-101.97
-94.56
-82.11
-70.51
-66.04
-72.90
-91.55
-118.74
-148.90
-175.86
-194.18
-199.64
-189.45
-162.57
-120.41
-67.35
-10.24
43.08
86.07
115.28
130.90
135.78
133.80
128.33
121.80
116.20
113.82
117.36
129.14
149.74
176.99
206.01
230.49
244.82
245.70
232.83
208.13
174.39
134.25
89.92
43.68
-1.45
-41.77
-73.75
-95.25
-106.43
-109.90
-109.92
-110.98
-116.62
-128.61
-146.87
-169.60
-193.73
-215.39
-230.62
-236.45
-232.01
-219.17
-202.26
-186.76
-177.14
-174.88
-177.67
-180.02
-175.35
-158.26
-126.19
-79.97
-23.14
39.15
101.21
157.47
202.97
233.81
247.55
243.57
223.24
189.51
146.49
98.71
50.41
4.80
-36.61
-74.36
-110.88
-149.23
-191.48
-237.25
-283.31
-324.68
-356.43
-375.56
-381.74
-376.77
-363.18
-342.90
-316.60
-284.10
-245.25
-200.54
-151.26
-99.19
-46.39
4.90
52.14
92.63
123.95
144.87
155.82
158.92
157.28
154.05
151.47
150.37
150.29
150.16
149.14
147.23
145.28
144.35
144.79
145.68
145.07
140.81
131.76
118.47
102.90
87.61
74.67
64.97
58.20
53.31
49.07
44.81
40.59
37.23
36.06
38.17
43.64
51.09
58.09
62.23
62.49
59.68
55.63
51.52
46.63
38.71
26.00
9.49
-6.23
-14.48
-9.86
8.64
36.71
66.54
90.45
103.94
106.72
101.43
91.33
78.66
64.42
49.27
34.42
21.68
12.52
7.09
3.99
1.17
-2.92
-8.56
-14.89
-20.92
-26.55
-32.72
-40.76
-51.09
-62.26
-71.03
-73.67
-67.78
-53.62
-33.94
-12.85
5.98
20.39
29.91
35.13
37.13
37.54
38.93
44.88
58.87
82.34
112.87
143.76
165.88
170.93
154.77
119.04
70.23
16.59
-35.34
-82.89
-127.12
-170.70
-215.29
-259.93
-301.33
-335.35
-358.69
-369.83
-368.71
-356.08
-332.70
-299.45
-257.90
-210.83
-162.18
-116.25
-76.61
-45.13
-21.63
-4.01
11.02
26.66
44.82
65.19
85.60
103.21
116.24
124.84
130.52
134.65
137.01
135.67
128.40
114.66
96.50
77.68
61.41
48.58
37.65
26.59
15.30
6.52
4.56
12.39
29.37
51.02
71.24
85.43
92.61
95.41
97.88
102.83
110.29
117.81
122.31
122.10
117.95
112.49
108.64
107.90
109.61
111.19
109.51
102.26
88.96
71.19
51.91
34.39
21.01
12.47
7.75
4.63
0.83
-5.05
-12.85
-21.11
-27.83
-31.41
-31.22
-27.63
-21.63
-14.53
-7.93
-3.84
-4.57
-11.90
-26.00
-44.68
-63.72
-78.41
-85.56
-84.92
-79.04
-71.63
-65.48
-61.03
-56.64
-49.96
-39.77
-26.83
-13.42
-1.88
6.72
13.10
19.11
26.32
34.93
43.54
49.88
52.06
49.53
43.34
35.71
29.09
25.30
25.05
27.90
32.72
38.11
42.96
46.65
49.08
50.49
51.09
50.86
49.49
46.61
41.93
35.34
26.84
16.44
4.35
-8.76
-21.50
-32.05
-38.68
-40.52
-38.01
-32.69
-26.42
-20.59
-15.64
-11.21
-6.73
-1.97
2.75
6.72
9.19
9.65
8.04
4.65
0.17
-4.42
-8.17
-10.36
-10.82
-9.83
-8.02
-6.07
-4.60
-4.09
-4.97
-7.49
-11.66
-16.99
-22.55
-27.21
-30.03
-30.51
-28.73
-25.35
-21.23
-17.30
-14.26
-12.60
-12.48
-13.72
-15.83
-18.01
-19.45
-19.57
-18.45
-17.04
-16.78
-18.84
-23.34
-29.01
-33.73
-35.61
-34.00
-29.68
-24.08
-18.13
-11.57
-3.44
6.73
17.91
27.68
33.61
34.91
33.41
32.93
37.39
48.89
66.69
87.73
108.00
124.12
134.10
137.33
134.05
124.93
110.93
93.48
74.33
55.32
37.96
23.14
11.09
1.65
-5.41
-10.12
-12.37
-12.14
-9.82
-6.37
-3.07
-1.12
-1.18
-3.21
-6.41
-9.63
-11.66
-11.72
-9.67
-6.05
-1.92
1.49
3.18
2.88
1.36
0.38
2.03
7.69
17.02
27.60
35.58
37.09
29.82
13.79
-8.88
-35.08
-62.18
-88.91
-115.37
-142.05
-168.85
-194.42
-216.47
-232.63
-241.37
-242.42
-236.67
-225.46
-210.07
-191.31
-169.68
-145.79
-120.62
-95.51
-71.89
-50.88
-33.04
-18.32
-6.29
3.58
11.76
18.59
24.27
28.83
32.26
34.48
35.43
35.20
34.08
32.49
30.85
29.56
28.85
28.93
29.99
32.30
36.08
41.32
47.63
54.27
60.47
65.73
70.22
74.50
79.24
84.88
91.37
98.33
105.28
111.83
117.86
123.58
129.58
137.00
147.13
160.98
178.35
197.30
214.35
225.44
227.23
218.30
199.35
172.83
142.00
110.03
79.21
50.73
24.60
0.07
-23.81
-47.68
-71.53
-94.79
-116.51
-135.84
-151.98
-164.12
-171.34
-172.84
-168.42
-159.12
-147.26
-135.80
-127.30
-122.84
-121.66
-121.45
-119.43
-113.51
-103.00
-88.80
-73.04
-58.09
-45.84
-37.00
-31.02
-26.42
-21.50
-15.17
-7.66
-0.73
2.62
-0.80
-12.95
-33.38
-58.60
-82.91
-100.05
-105.38
-97.29
-77.56
-50.38
-20.87
6.32
27.79
41.50
46.57
43.12
32.20
15.73
-3.79
-23.76
-41.93
-56.72
-67.23
-73.18
-74.72
-72.57
-68.00
-62.58
-57.69
-53.93
-50.84
-47.18
-41.78
-34.15
-24.82
-14.92
-5.47
3.09
10.89
18.23
25.26
31.89
38.09
44.19
50.85
58.68
67.74
77.41
86.62
94.33
99.94
103.30
104.49
103.58
100.66
96.00
90.27
84.51
79.80
76.83
75.72
76.16
77.73
80.19
83.60
87.98
93.02
97.81
100.97
101.19
97.73
90.85
81.88
72.55
64.43
58.28
53.85
50.29
46.71
42.69
38.44
34.30
30.51
26.85
22.83
18.10
12.85
7.68
3.33
-0.06
-3.07
-6.87
-12.61
-20.76
-30.83
-41.49
-50.98
-57.92
-61.49
-61.55
-58.58
-53.27
-46.45
-38.98
-31.58
-25.17
-20.36
-17.51
-16.42
-16.36
-16.34
-15.55
-13.67
-11.26
-9.24
-8.37
-8.79
-9.83
-10.41
-9.76
-7.94
-6.11
-5.95
-8.84
-15.22
-24.35
-34.73
-44.85
-53.64
-60.87
-66.76
-71.57
-75.28
-77.47
-77.67
-75.74
-72.07
-67.76
-64.11
-62.19
-62.43
-64.44
-67.28
-69.95
-71.67
-72.36
-72.33
-71.91
-71.01
-69.04
-65.13
-58.59
-49.10
-36.92
-22.64
-7.03
9.03
24.49
38.10
48.55
54.90
56.85
54.87
50.10
43.81
37.17
31.07
26.23
23.34
22.99
25.41
30.17
36.21
42.14
46.79
49.58
50.69
50.74
50.32
49.69
48.62
46.69
43.57
39.28
34.28
29.25
24.69
20.67
16.57
11.41
4.12
-5.91
-18.48
-32.61
-46.80
-59.45
-69.29
-75.48
-77.81
-76.47
-71.98
-65.11
-56.76
-47.82
-39.08
-31.02
-23.92
-17.81
-12.63
-8.34
-4.97
-2.53
-0.99
0.04
1.17
3.20
6.81
12.27
19.26
27.10
34.93
42.24
48.90
55.02
60.62
65.25
68.00
67.81
63.93
56.48
46.40
35.18
24.31
14.67
6.33
-1.41
-9.64
-19.34
-31.07
-44.71
-59.40
-73.72
-85.93
-94.38
-98.06
-96.87
-91.75
-84.32
-76.35
-69.08
-63.05
-58.03
-53.46
-48.78
-43.75
-38.51
-33.36
-28.84
-25.47
-23.79
-24.22
-26.83
-31.30
-36.92
-42.75
-48.00
-52.29
-55.83
-59.38
-63.99
-70.61
-79.54
-89.94
-99.82
-106.37
-106.89
-99.69
-84.78
-63.84
-39.54
-14.53
9.20
30.64
49.41
65.59
79.59
92.45
106.16
123.61
147.89
181.13
223.44
272.45
323.82
372.57
414.47
447.13
470.07
484.14
490.51
489.88
482.24
467.27
445.01
416.35
382.92
346.47
308.21
268.56
227.48
185.18
142.58
101.41
63.59
30.57
2.73
-20.46
-39.96
-56.64
-70.97
-83.23
-93.89
-103.74
-113.69
-124.43
-136.08
-148.23
-160.23
-171.39
-181.22
-189.27
-195.24
-198.91
-200.29
-199.64
-197.45
-194.18
-190.10
-185.27
-179.53
-172.74
-164.82
-155.72
-145.41
-133.95
-121.66
-109.25
-97.83
-88.47
-81.80
-77.60
-74.79
-71.93
-67.89
-62.30
-55.64
-48.85
-42.59
-36.98
-31.37
-25.10
-17.76
-9.75
-2.03
4.37
8.95
11.99
14.26
16.27
18.02
18.89
18.22
15.94
12.90
10.38
9.52
10.30
11.68
12.12
10.55
7.08
2.97
-0.21
-1.54
-1.41
-1.12
-2.02
-4.68
-8.45
-11.97
-14.08
-14.50
-14.38
-15.23
-18.09
-22.64
-27.13
-29.17
-27.10
-20.78
-12.14
-4.00
1.26
2.80
1.68
0.04
-0.26
1.34
3.68
4.85
3.44
-0.49
-5.47
-9.37
-10.72
-9.34
-6.56
-4.17
-3.42
-4.34
-5.86
-6.58
-5.67
-3.23
-0.43
1.30
0.97
-1.54
-5.46
-9.53
-12.62
-14.09
-14.07
-13.22
-12.33
-12.05
-12.60
-13.80
-15.24
-16.44
-17.20
-17.58
-17.93
-18.62
-19.97
-22.05
-24.74
-27.71
-30.56
-32.77
-33.81
-33.19
-30.55
-25.82
-19.25
-11.40
-3.00
5.15
12.30
17.80
21.15
22.06
20.57
17.13
12.60
8.04
4.45
2.40
1.92
2.60
3.76
4.94
5.93
6.78
7.64
8.45
8.96
8.81
7.78
5.96
3.69
1.43
-0.55
-2.27
-3.98
-5.97
-8.36
-11.02
-13.60
-15.78
-17.39
-18.57
-19.58
-20.70
-22.09
-23.73
-25.56
-27.57
-29.97
-33.02
-36.87
-41.24
-45.38
-48.08
-48.08
-44.49
-37.16
-26.82
-14.82
-2.78
7.93
16.51
22.72
26.75
28.88
29.29
28.06
25.38
21.70
17.87
14.91
13.63
14.33
16.62
19.60
22.31
24.10
24.95
25.26
25.55
26.00
26.36
26.00
24.40
21.42
17.59
13.72
10.65
8.74
7.73
6.94
5.72
3.69
1.01
-2.00
-4.96
-7.72
-10.39
-13.06
-15.70
-18.11
-20.17
-22.02
-24.18
-27.22
-31.37
-36.14
-40.28
-42.19
-40.52
-34.82
-25.67
-14.53
-3.18
6.88
14.72
20.06
23.12
24.08
23.09
20.32
16.10
11.22
6.74
3.78
3.09
4.50
7.23
10.14
12.34
13.59
14.23
14.87
15.81
16.80
17.18
16.31
14.00
10.72
7.33
4.69
3.23
2.61
2.16
1.16
-0.67
-3.05
-5.44
-7.33
-8.57
-9.56
-10.84
-12.81
-15.49
-18.44
-21.09
-23.02
-24.12
-24.80
-25.72
-27.58
-30.80
-35.31
-40.37
-44.71
-46.69
-45.02
-39.11
-29.47
-17.59
-5.42
5.21
13.18
18.29
20.91
21.67
21.05
19.32
16.72
13.65
10.83
9.15
9.29
11.44
15.15
19.41
23.10
25.45
26.23
25.85
24.99
24.27
23.86
23.46
22.56
20.73
17.94
14.61
11.37
8.77
7.02
5.83
4.75
3.30
1.37
-0.78
-2.66
-3.87
-4.35
-4.45
-4.71
-5.61
-7.33
-9.66
-12.34
-15.26
-18.49
-22.21
-26.23
-29.86
-31.88
-31.00
-26.45
-18.37
-7.84
3.38
13.57
21.47
26.60
29.24
30.06
29.72
28.62
26.75
24.06
20.69
17.17
14.47
13.46
14.61
17.65
21.53
25.11
27.47
28.35
28.12
27.40
26.56
25.56
23.92
21.17
17.17
12.31
7.48
3.58
1.19
0.30
0.19
-0.10
-1.38
-3.95
-7.41
-11.00
-13.94
-15.86
-17.00
-17.92
-19.24
-21.25
-23.90
-26.94
-30.19
-33.63
-37.25
-40.74
-43.31
-43.86
-41.31
-35.21
-26.05
-15.19
-4.48
4.43
10.53
13.74
14.69
14.26
13.18
11.73
9.86
7.42
4.55
1.74
-0.19
-0.55
0.93
3.87
7.38
10.54
12.66
13.60
13.67
13.34
12.95
12.52
11.78
10.37
8.14
5.26
2.29
-0.16
-1.66
-2.29
-2.62
-3.37
-5.12
-7.89
-11.11
-13.96
-15.86
-16.76
-17.26
-18.29
-20.59
-24.48
-29.55
-35.00
-39.82
-43.05
-43.97
-42.09
-37.20
-29.43
-19.28
-7.65
4.22
14.99
23.46
28.88
31.08
30.53
28.11
24.83
21.55
18.74
16.55
14.99
14.08
13.93
14.70
16.37
18.63
20.94
22.69
23.48
23.23
22.13
20.47
18.41
15.95
12.95
9.40
5.47
1.61
-1.64
-3.86
-5.07
-5.66
-6.33
-7.76
-10.26
-13.66
-17.28
-20.41
-22.51
-23.64
-24.40
-25.72
-28.41
-32.76
-38.42
-44.54
-49.94
-53.42
-53.96
-50.81
-43.67
-32.90
-19.48
-5.25
7.71
17.58
23.42
25.45
24.86
23.16
21.47
20.14
18.88
17.28
15.36
13.71
13.26
14.72
18.22
22.89
27.51
30.87
32.38
32.19
31.06
29.78
28.83
27.81
25.97
22.65
17.88
12.50
7.97
5.50
5.50
6.98
8.26
7.82
5.11
0.85
-3.36
-6.16
-7.06
-6.95
-7.31
-9.37
-13.32
-18.26
-22.81
-26.06
-28.08
-30.10
-33.51
-38.91
-45.46
-51.05
-53.16
-50.08
-41.56
-29.15
-15.27
-2.35
8.04
15.38
19.98
22.39
23.08
22.19
19.82
16.29
12.26
8.59
6.14
5.41
6.54
9.19
12.79
16.66
20.12
22.68
24.12
24.58
24.44
24.16
24.00
23.87
23.31
21.82
19.06
15.19
10.83
6.77
3.69
1.75
0.60
-0.48
-2.15
-4.77
-8.09
-11.49
-14.25
-15.90
-16.50
-16.59
-16.98
-18.36
-21.06
-24.97
-29.74
-34.89
-39.92
-44.21
-46.94
-47.08
-43.58
-35.89
-24.28
-10.03
4.86
18.31
28.69
35.33
38.42
38.76
37.24
34.68
31.69
28.79
26.57
25.55
26.11
28.21
31.44
35.00
38.00
39.71
39.80
38.33
35.79
32.83
29.98
27.49
25.16
22.55
19.17
14.83
9.76
4.47
-0.47
-4.75
-8.45
-11.98
-15.79
-20.12
-24.85
-29.55
-33.78
-37.32
-40.38
-43.50
-47.33
-52.28
-58.38
-65.33
-72.56
-79.45
-85.30
-89.26
-90.27
-87.27
-79.53
-67.19
-51.40
-34.14
-17.63
-3.65
6.83
13.73
17.53
18.91
18.55
17.08
15.22
13.85
13.93
16.27
21.29
28.75
37.78
47.00
54.94
60.45
63.01
62.91
61.02
58.29
55.43
52.72
50.02
47.21
44.36
41.80
39.95
38.82
38.02
36.87
34.78
31.63
27.89
24.29
21.38
19.04
16.46
12.56
6.45
-1.98
-12.11
-22.77
-32.65
-40.74
-46.26
-48.60
-47.28
-42.05
-33.19
-21.70
-9.24
2.21
11.01
16.35
18.44
18.22
16.92
15.58
14.86
14.90
15.70
17.28
19.83
23.58
28.58
34.55
40.87
46.66
51.14
53.81
54.56
53.63
51.40
48.23
44.39
39.93
34.86
29.20
23.07
16.73
10.54
4.97
0.41
-2.90
-5.04
-6.41
-7.64
-9.39
-12.10
-15.77
-19.94
-23.95
-27.24
-29.66
-31.52
-33.44
-36.08
-39.82
-44.55
-49.78
-54.75
-58.61
-60.57
-59.99
-56.42
-49.86
-40.67
-29.66
-17.92
-6.58
3.36
11.24
16.71
19.81
20.93
20.64
19.65
18.58
17.81
17.50
17.62
18.11
19.03
20.45
22.40
24.67
26.77
28.20
28.55
27.80
26.25
24.32
22.27
20.06
17.31
13.69
9.18
4.22
-0.39
-3.88
-5.90
-6.72
-7.10
-7.83
-9.37
-11.63
-14.06
-16.03
-17.26
-17.94
-18.73
-20.26
-22.91
-26.56
-30.52
-33.93
-35.92
-35.89
-33.65
-29.34
-23.38
-16.31
-8.70
-1.08
6.01
12.05
16.46
18.85
19.00
17.14
13.86
9.99
6.36
3.58
1.83
1.06
1.13
1.94
3.54
5.97
9.13
12.64
15.88
18.24
19.27
18.91
17.48
15.49
13.39
11.38
9.33
6.98
4.13
0.90
-2.26
-4.76
-6.27
-6.83
-7.05
-7.75
-9.72
-13.27
-18.11
-23.53
-28.65
-32.63
-34.92
-35.15
-33.11
-28.71
-21.99
-13.37
-3.63
6.09
14.51
20.59
23.77
24.12
22.25
19.06
15.39
11.87
8.86
6.55
5.06
4.52
5.03
6.54
8.75
11.17
13.15
14.20
14.07
12.91
11.16
9.31
7.64
6.13
4.45
2.23
-0.73
-4.28
-7.97
-11.26
-13.85
-15.79
-17.44
-19.24
-21.45
-24.11
-27.02
-30.06
-33.21
-36.59
-40.20
-43.62
-46.00
-46.20
-43.23
-36.69
-27.05
-15.56
-3.86
6.60
14.91
20.94
25.10
27.87
29.52
29.94
28.85
26.23
22.56
18.86
16.25
15.53
16.78
19.39
22.39
24.93
26.56
27.27
27.06
25.86
23.51
19.88
15.22
10.21
5.66
2.11
-0.53
-2.98
-6.17
-10.69
-16.46
-22.70
-28.35
-32.45
-34.76
-35.66
-36.10
-37.21
-39.88
-44.50
-50.71
-57.41
-63.28
-66.90
-67.26
-63.95
-57.12
-47.28
-35.25
-21.93
-8.76
2.81
11.48
16.70
18.99
19.78
20.72
22.85
25.94
28.91
30.61
30.72
30.13
30.53
33.20
38.33
44.36
49.12
50.93
49.55
46.32
43.28
41.86
42.11
42.42
40.77
35.98
28.50
20.30
13.78
10.40
10.00
10.69
10.13
6.76
0.63
-6.75
-13.32
-17.63
-19.48
-20.07
-21.15
-24.09
-29.40
-36.50
-44.14
-50.88
-55.38
-56.75
-54.51
-48.66
-39.69
-28.58
-16.50
-4.69
5.95
14.83
21.55
25.94
27.88
27.47
25.11
21.59
17.90
15.00
13.51
13.53
14.69
16.33
17.82
18.81
19.31
19.59
19.96
20.52
21.01
20.95
19.80
17.29
13.55
9.17
4.82
1.10
-1.77
-3.97
-5.93
-8.08
-10.67
-13.67
-16.82
-19.88
-22.67
-25.23
-27.69
-30.22
-32.87
-35.64
-38.58
-41.81
-45.52
-49.73
-54.04
-57.51
-58.80
-56.60
-50.21
-39.86
-26.78
-12.79
0.30
11.21
19.40
24.93
28.11
29.16
28.16
25.17
20.52
15.00
9.83
6.23
5.03
6.35
9.50
13.40
16.93
19.45
20.96
21.90
22.81
24.00
25.27
26.11
25.99
24.66
22.33
19.57
17.04
15.16
13.96
13.11
12.10
10.52
8.26
5.54
2.71
0.20
-1.82
-3.35
-4.59
-5.82
-7.28
-9.24
-12.01
-15.87
-20.94
-26.87
-32.76
-37.22
-38.75
-36.30
-29.73
-19.99
-8.79
1.92
10.57
16.39
19.53
20.60
20.36
19.29
17.60
15.35
12.84
10.70
9.80
10.72
13.50
17.53
21.80
25.49
28.31
30.55
32.70
34.88
36.65
37.15
35.61
31.93
26.76
21.28
16.60
13.14
10.63
8.36
5.70
2.52
-0.79
-3.70
-5.87
-7.63
-9.63
-12.47
-16.31
-20.70
-24.86
-28.23
-30.79
-33.25
-36.43
-40.67
-45.33
-48.86
-49.44
-45.81
-37.85
-26.82
-14.80
-3.84
4.66
10.27
13.34
14.57
14.62
13.79
12.21
10.04
7.62
5.55
4.49
4.89
6.91
10.19
14.09
17.93
21.17
23.47
24.78
25.15
24.76
23.75
22.29
20.47
18.34
15.92
13.25
10.50
7.96
5.93
4.53
3.62
2.78
1.51
-0.49
-3.14
-5.99
-8.55
-10.63
-12.44
-14.64
-17.90
-22.56
-28.19
-33.67
-37.50
-38.30
-35.35
-28.86
-19.83
-9.68
0.18
8.81
15.72
20.78
23.94
25.10
24.17
21.31
17.06
12.39
8.44
6.13
5.79
7.07
9.27
11.64
13.76
15.71
17.72
19.96
22.18
23.79
24.17
22.90
20.10
16.41
12.62
9.40
7.00
5.17
3.42
1.21
-1.67
-5.05
-8.48
-11.52
-13.96
-16.01
-18.14
-20.93
-24.70
-29.42
-34.70
-39.99
-44.63
-47.99
-49.38
-48.17
-43.89
-36.44
-26.28
-14.46
-2.44
8.27
16.53
21.76
23.99
23.74
21.76
18.78
15.49
12.39
9.96
8.61
8.65
10.22
13.13
16.88
20.74
23.95
25.95
26.57
25.94
24.45
22.49
20.28
17.87
15.13
11.99
8.48
4.82
1.41
-1.41
-3.48
-4.98
-6.37
-8.18
-10.72
-13.92
-17.28
-20.22
-22.38
-23.93
-25.58
-28.31
-32.86
-39.34
-46.97
-54.25
-59.40
-60.87
-57.91
-50.67
-40.15
-27.85
-15.29
-3.71
6.04
13.49
18.38
20.64
20.41
18.19
14.82
11.33
8.68
7.45
7.72
9.17
11.30
13.67
16.08
18.43
20.63
22.44
23.50
23.48
22.25
20.00
17.22
14.49
12.20
10.45
8.96
7.36
5.38
3.14
1.03
-0.46
-1.09
-1.09
-1.08
-1.81
-3.72
-6.76
-10.37
-13.88
-16.85
-19.28
-21.64
-24.53
-28.46
-33.57
-39.69
-46.45
-53.32
-59.69
-64.71
-67.35
-66.56
-61.60
-52.50
-40.11
-26.08
-12.30
-0.41
8.64
14.66
18.03
19.28
18.88
17.16
14.55
11.74
9.67
9.33
11.39
15.87
22.00
28.50
33.92
37.18
37.90
36.46
33.90
31.26
29.33
28.25
27.50
26.34
24.29
21.46
18.52
16.04
14.28
12.95
11.49
9.64
7.70
6.38
6.32
7.31
8.49
8.61
6.93
3.60
-0.28
-3.49
-5.45
-6.71
-8.54
-12.07
-17.49
-23.84
-29.50
-33.19
-34.77
-35.71
-38.07
-43.33
-51.34
-60.00
-66.05
-66.73
-60.86
-49.83
-36.55
-24.10
-14.31
-7.21
-1.48
4.29
10.60
16.53
20.47
21.26
19.00
15.18
12.00
11.23
13.63
18.48
24.33
29.61
33.33
35.26
35.72
35.31
34.61
33.91
33.30
32.68
31.93
30.95
29.82
28.74
28.05
27.96
28.49
29.33
29.99
30.01
29.15
27.59
25.74
24.11
22.93
22.16
21.48
20.57
19.29
17.76
16.27
15.13
14.42
13.96
13.38
12.21
10.02
6.60
2.16
-2.67
-6.85
-9.20
-8.80
-5.21
1.52
11.08
23.16
37.68
54.57
73.50
93.69
113.95
132.99
149.72
163.35
173.27
178.73
178.89
173.06
161.22
144.30
124.03
102.56
81.75
62.80
46.18
31.86
19.50
8.68
-1.11
-10.35
-19.50
-28.79
-38.20
-47.50
-56.41
-64.67
-72.04
-78.29
-83.05
-86.03
-87.13
-86.61
-85.02
-82.99
-80.86
-78.54
-75.65
-71.83
-67.14
-62.10
-57.54
-54.15
-52.06
-50.76
-49.26
-46.44
-41.38
-33.70
-23.48
-11.30
1.87
14.75
25.82
33.59
36.99
35.97
31.78
26.92
24.39
26.83
35.51
49.98
68.24
87.42
104.62
117.59
125.14
127.44
125.75
122.34
119.73
120.04
124.38
132.58
143.32
154.66
164.51
171.11
173.37
170.94
164.40
155.07
144.72
135.04
127.00
120.70
115.40
110.08
103.92
96.69
88.69
80.52
72.55
64.78
56.71
47.48
36.27
22.40
5.54
-14.40
-37.48
-63.45
-91.48
-119.78
-145.58
-165.77
-178.05
-181.91
-179.26
-173.72
-169.16
-168.28
-171.73
-178.26
-185.76
-192.42
-197.50
-201.08
-203.32
-203.80
-201.32
-194.50
-182.75
-166.83
-148.92
-131.48
-116.22
-103.37
-91.78
-79.87
-66.66
-52.29
-37.96
-25.15
-14.85
-7.21
-1.69
2.54
6.17
9.61
12.89
15.79
18.07
19.62
20.64
21.69
23.58
27.06
32.40
39.17
46.46
53.21
58.72
62.88
66.12
69.09
72.31
75.93
79.78
83.52
86.88
89.72
91.97
93.55
94.17
93.35
90.61
85.63
78.63
70.26
61.42
52.80
44.40
35.36
24.33
10.08
-7.69
-28.02
-49.08
-68.89
-86.27
-101.12
-114.25
-126.71
-139.19
-151.98
-165.14
-178.80
-193.13
-207.97
-222.48
-235.09
-243.84
-247.21
-244.65
-236.63
-224.43
-209.51
-193.13
-176.23
-159.47
-143.34
-128.22
-114.26
-101.57
-90.30
-80.82
-73.71
-69.65
-69.25
-72.84
-80.25
-90.81
-103.33
-116.31
-128.17
-137.52
-143.36
-145.29
-143.30
-137.75
-129.21
-118.33
-105.86
-92.59
-79.31
-66.70
-55.12
-44.60
-34.96
-25.93
-17.44
-9.54
-2.37
4.01
9.77
15.14
20.27
25.15
29.47
32.95
35.54
37.61
39.85
43.06
47.69
53.66
60.33
66.90
72.76
77.80
82.45
87.44
93.38
100.45
108.28
116.15
123.33
129.39
134.32
138.51
142.42
146.50
150.99
155.99
161.51
167.58
174.20
181.21
188.19
194.54
199.55
202.76
204.09
203.94
202.92
201.35
198.87
194.28
185.82
171.88
151.67
125.72
95.89
64.69
34.45
6.48
-19.27
-43.83
-68.44
-93.67
-118.86
-142.37
-162.20
-176.90
-186.13
-190.70
-192.03
-191.49
-189.79
-187.05
-183.09
-177.87
-171.69
-165.12
-158.70
-152.78
-147.41
-142.54
-138.06
-133.61
-128.13
-119.67
-105.88
-85.06
-57.52
-26.46
2.47
22.89
30.01
22.58
3.04
-23.70
-52.36
-79.04
-101.67
-119.62
-132.61
-140.34
-142.50
-139.05
-130.24
-116.20
-96.24
-68.71
-31.71
15.56
71.62
132.62
193.46
249.43
297.63
337.16
368.36
391.51
406.16
411.53
408.00
398.28
387.33
380.48
380.67
386.47
392.11
389.95
373.86
341.78
296.06
241.78
184.43
128.24
75.74
28.36
-13.26
-49.23
-80.42
-108.12
-133.15
-155.10
-172.80
-185.18
-192.54
-196.24
-197.59
-196.48
-191.27
-180.47
-165.03
-149.23
-139.14
-139.12
-149.11
-164.84
-180.86
-194.69
-209.02
-230.12
-263.94
-311.81
-369.04
-426.79
-475.93
-510.38
-528.69
-532.97
-527.09
-514.68
-498.11
-478.48
-456.33
-432.36
-407.99
-385.30
-366.42
-352.19
-341.52
-331.30
-317.77
-298.31
-272.87
-244.00
-215.70
-191.32
-172.13
-157.31
-144.93
-133.31
-121.97
-111.53
-103.12
-97.55
-94.78
-93.98
-93.93
-93.55
-92.29
-90.18
-87.69
-85.30
-83.17
-80.94
-77.90
-73.24
-66.29
-56.79
-44.87
-30.90
-15.36
1.31
18.70
36.49
54.28
71.69
88.30
103.78
117.95
130.74
142.13
152.17
160.88
168.25
174.37
179.45
183.83
187.92
192.08
196.42
200.81
204.97
208.62
211.71
214.56
217.80
222.17
228.27
236.33
246.14
257.27
269.22
281.71
294.73
308.47
323.19
339.20
356.96
377.04
399.75
424.55
449.56
471.55
486.83
492.52
487.87
474.65
456.53
437.61
420.93
407.67
397.36
388.80
381.03
373.75
367.04
360.75
354.13
345.99
335.50
322.76
308.90
295.40
282.94
270.63
256.06
236.32
209.35
174.88
134.32
89.88
43.55
-3.35
-50.02
-95.47
-137.96
-174.85
-202.84
-218.45
-218.78
-202.44
-170.59
-127.31
-79.22
-34.05
1.47
23.35
31.08
26.97
14.85
-1.45
-18.83
-35.09
-48.68
-58.70
-65.11
-68.86
-71.74
-75.63
-81.49
-88.40
-93.40
-92.52
-82.46
-62.52
-35.65
-7.58
15.41
29.41
34.74
35.79
38.98
49.96
71.39
102.33
139.02
176.45
209.70
234.74
248.77
250.36
239.55
217.77
187.46
151.44
112.30
71.72
30.31
-12.49
-58.07
-107.76
-161.62
-217.55
-271.19
-317.28
-351.54
-372.34
-380.99
-380.71
-374.81
-365.39
-353.05
-337.37
-317.36
-291.86
-259.62
-219.80
-172.96
-121.99
-72.13
-29.69
0.42
16.71
21.58
20.08
17.66
18.14
22.79
30.47
38.41
43.09
41.39
31.83
15.85
-1.79
-14.14
-14.70
-0.52
26.11
58.13
86.72
105.11
111.42
109.01
104.25
103.46
110.21
124.67
144.45
166.22
186.82
203.47
213.42
213.95
203.09
180.64
148.84
111.91
74.59
40.49
11.41
-12.16
-29.94
-41.14
-44.93
-41.79
-34.49
-27.82
-26.77
-34.29
-50.04
-71.25
-94.76
-119.15
-145.16
-174.28
-206.68
-239.93
-269.85
-292.88
-308.46
-319.68
-331.53
-348.04
-369.94
-394.50
-417.20
-434.16
-443.48
-445.13
-439.49
-426.11
-403.67
-370.93
-327.97
-276.76
-220.29
-161.26
-100.88
-38.95
24.82
89.38
151.68
207.24
251.75
282.70
300.37
307.65
308.84
308.14
308.46
310.91
315.10
319.76
323.42
324.87
323.43
318.87
311.36
301.05
287.89
271.47
251.36
227.70
201.38
173.62
145.24
116.11
85.50
53.29
21.21
-7.05
-27.09
-36.10
-34.42
-25.47
-13.77
-2.51
7.74
18.30
30.15
41.95
49.88
49.60
39.13
20.89
1.40
-11.18
-10.80
3.69
27.73
52.91
70.43
74.43
63.67
40.97
11.03
-22.07
-56.26
-91.14
-126.53
-160.90
-190.78
-211.72
-220.26
-215.60
-200.31
-179.34
-158.21
-141.19
-130.28
-125.40
-125.26
-128.26
-132.93
-137.76
-141.03
-140.93
-136.03
-125.90
-111.21
-93.28
-73.34
-52.36
-31.35
-12.10
2.66
10.06
8.65
-0.49
-13.78
-26.58
-35.30
-38.76
-38.07
-35.05
-30.51
-23.37
-11.33
7.49
33.05
63.05
94.11
123.27
149.08
171.41
190.53
205.98
216.35
219.82
215.25
202.95
184.60
162.59
139.07
115.35
91.87
68.56
45.42
22.84
1.61
-17.29
-33.16
-46.04
-56.79
-66.64
-76.31
-85.17
-91.22
-91.87
-85.54
-72.83
-56.58
-40.80
-28.78
-21.73
-18.66
-17.63
-17.05
-16.28
-15.10
-12.51
-6.54
4.83
21.79
41.45
58.25
66.57
63.55
50.65
33.15
17.30
7.21
3.10
1.70
-1.60
-9.89
-23.12
-37.81
-48.12
-47.85
-32.14
0.62
47.69
101.88
152.58
187.97
197.80
176.42
124.69
50.36
-33.60
-112.33
-172.99
-208.03
-216.73
-204.46
-180.08
-152.75
-129.23
-112.79
-103.68
-100.42
-101.21
-104.39
-108.35
-111.31
-111.60
-108.20
-101.57
-93.56
-86.79
-83.45
-83.96
-86.71
-88.60
-86.57
-78.99
-66.30
-50.82
-35.40
-22.15
-11.65
-3.01
5.39
14.79
25.47
36.55
46.63
54.53
59.93
63.55
66.79
71.02
77.02
84.46
92.20
98.89
103.59
106.29
107.94
109.94
113.47
118.73
124.81
129.97
132.45
131.26
126.69
120.09
113.05
106.40
99.66
91.28
79.60
63.84
44.75
24.30
4.78
-12.18
-26.10
-37.40
-46.56
-53.49
-57.30
-56.76
-50.96
-39.96
-24.94
-7.92
8.89
23.60
35.21
43.56
49.18
52.92
55.71
58.62
62.93
70.01
80.79
94.90
110.07
122.08
125.80
116.90
93.59
57.45
12.79
-35.05
-81.55
-124.18
-162.20
-195.49
-223.26
-243.59
-254.29
-254.30
-244.93
-229.76
-213.40
-199.54
-189.48
-182.07
-174.94
-166.10
-155.16
-143.26
-131.97
-122.02
-112.71
-102.42
-89.84
-75.08
-59.66
-45.70
-34.62
-26.15
-18.44
-9.07
3.73
20.09
38.55
56.72
72.21
83.27
89.13
89.98
86.85
81.43
75.86
72.25
72.24
76.36
83.80
92.58
100.14
104.09
102.96
96.39
85.05
70.20
53.29
35.70
18.97
4.84
-4.90
-8.91
-6.94
-0.11
9.69
20.63
31.77
43.07
54.68
65.81
74.60
78.77
76.92
69.66
59.40
49.27
41.55
36.60
33.00
28.65
21.85
12.02
-0.28
-13.87
-27.29
-39.13
-48.08
-53.06
-53.46
-49.38
-41.81
-32.35
-22.84
-15.06
-10.26
-9.02
-11.18
-15.93
-22.08
-28.44
-34.27
-39.60
-44.93
-50.72
-56.85
-62.32
-65.54
-65.12
-60.62
-53.17
-44.92
-38.14
-34.21
-33.05
-33.32
-33.41
-32.16
-29.63
-26.58
-23.76
-21.29
-18.52
-14.61
-9.25
-3.05
2.50
6.06
7.31
7.28
7.89
11.09
17.71
27.20
37.64
46.78
52.97
55.68
55.60
54.05
52.40
51.66
52.05
53.31
54.94
56.35
57.04
56.54
54.49
50.86
45.84
40.01
34.07
28.56
23.75
19.51
15.58
11.85
8.20
4.54
0.64
-3.92
-9.53
-16.26
-23.70
-31.04
-37.44
-42.27
-45.32
-46.72
-46.75
-45.65
-43.56
-40.47
-36.35
-31.35
-25.76
-20.18
-15.31
-11.81
-10.09
-10.15
-11.59
-13.76
-15.98
-17.75
-18.70
-18.65
-17.54
-15.39
-12.39
-8.92
-5.49
-2.65
-0.80
-0.08
-0.25
-0.76
-0.99
-0.51
0.71
2.21
3.34
3.56
2.73
1.27
-0.21
-1.12
-1.25
-0.97
-0.80
-1.21
-2.28
-3.58
-4.38
-4.11
-2.67
-0.53
1.54
2.82
3.09
2.67
2.11
1.75
1.43
0.48
-1.76
-5.59
-10.47
-15.29
-18.87
-20.56
-20.49
-19.56
-18.73
-18.67
-19.28
-19.79
-19.23
-16.90
-12.80
-7.74
-2.95
0.47
2.06
2.25
2.12
2.80
4.95
8.26
11.77
14.30
15.21
14.65
13.43
12.44
12.14
12.30
12.32
11.68
10.35
8.78
7.61
7.10
6.96
6.45
4.84
1.94
-1.68
-4.83
-6.28
-5.30
-2.11
2.23
6.22
8.63
9.02
7.93
6.46
5.65
5.92
6.83
7.43
6.88
4.91
2.05
-0.73
-2.55
-3.08
-2.61
-1.87
-1.55
-1.98
-2.88
-3.65
-3.60
-2.38
-0.18
2.24
3.91
3.95
2.06
-1.39
-5.51
-9.16
-11.35
-11.55
-9.73
-6.18
-1.37
4.19
10.10
16.05
21.89
27.74
33.85
40.51
47.72
55.01
61.38
65.69
66.99
65.04
60.31
53.91
47.03
40.58
34.93
29.99
25.48
21.28
17.65
15.29
15.28
18.62
25.61
35.19
44.53
49.59
46.44
33.17
11.35
-14.08
-36.41
-49.84
-51.92
-44.26
-31.54
-19.17
-11.35
-10.11
-15.70
-27.41
-44.39
-65.54
-89.16
-112.73
-133.26
-148.13
-156.00
-157.25
-153.70
-147.84
-142.02
-137.69
-135.23
-133.85
-131.72
-126.41
-115.52
-97.76
-73.98
-47.53
-23.62
-7.62
-2.86
-9.07
-22.24
-36.14
-44.96
-45.74
-39.68
-31.58
-27.77
-33.82
-52.66
-83.91
-124.61
-170.50
-217.39
-261.98
-301.82
-335.02
-359.74
-374.19
-377.14
-368.35
-348.90
-320.56
-284.88
-242.14
-191.29
-131.10
-62.29
11.11
81.74
141.73
186.43
217.25
241.95
271.59
315.92
379.35
459.41
548.25
636.10
714.09
775.53
815.53
829.89
815.06
769.06
693.27
593.26
478.23
359.06
245.79
145.51
61.29
-7.45
-63.58
-110.65
-151.19
-185.75
-212.37
-227.11
-225.12
-203.13
-161.60
-106.02
-45.99
7.79
47.64
71.68
83.73
90.29
95.93
100.40
98.50
83.07
49.35
-2.19
-65.60
-132.00
-192.83
-242.15
-277.07
-296.85
-301.66
-292.26
-270.37
-239.27
-203.72
-169.08
-139.76
-118.04
-103.63
-94.26
-86.71
-77.92
-65.76
-49.46
-29.72
-8.52
11.19
26.41
35.01
36.64
32.82
26.34
20.06
15.78
13.65
12.43
10.35
6.13
-0.47
-8.55
-16.59
-23.15
-27.49
-29.77
-30.84
-31.68
-32.89
-34.30
-35.12
-34.37
-31.38
-26.11
-19.16
-11.49
-3.93
3.03
9.26
14.82
19.69
23.63
26.34
27.55
27.17
25.25
22.02
17.78
12.95
8.13
3.93
0.81
-1.21
-2.53
-3.81
-5.58
-8.00
-10.75
-13.27
-15.15
-16.25
-16.64
-16.43
-15.50
-13.62
-10.70
-6.93
-2.96
0.50
2.95
4.40
5.35
6.55
8.73
12.42
18.02
25.80
35.89
48.10
61.71
75.41
87.51
96.53
101.59
102.80
100.95
97.23
92.65
87.93
83.51
79.74
76.73
74.30
71.67
67.53
60.60
50.19
36.83
22.16
8.33
-2.79
-10.25
-14.18
-15.44
-15.02
-13.74
-12.11
-10.61
-9.57
-9.14
-9.01
-8.27
-5.58
0.40
10.49
24.66
41.96
60.89
79.84
97.53
113.30
127.02
138.96
148.96
156.17
158.97
155.50
144.71
127.11
104.97
81.51
59.48
40.16
22.91
5.95
-12.49
-33.01
-54.71
-75.60
-93.72
-107.79
-117.60
-123.56
-126.06
-125.00
-119.98
-110.94
-98.88
-86.03
-75.12
-68.09
-65.01
-63.80
-61.31
-54.80
-43.70
-29.92
-17.14
-9.23
-8.58
-15.36
-27.68
-42.43
-56.49
-67.46
-74.23
-77.15
-77.78
-78.35
-81.16
-87.92
-99.33
-114.69
-131.84
-147.27
-156.58
-155.42
-140.68
-111.85
-71.74
-26.20
17.23
51.37
71.25
75.10
64.24
42.43
14.81
-12.77
-34.33
-44.83
-41.59
-25.52
-1.44
23.56
43.02
53.94
58.10
60.60
66.59
78.05
92.30
103.17
103.88
90.05
61.18
20.47
-26.92
-75.78
-121.93
-162.50
-195.57
-219.81
-234.50
-239.91
-237.44
-229.56
-219.30
-209.37
-201.59
-196.43
-193.14
-190.33
-186.82
-182.47
-178.54
-177.14
-180.34
-188.97
-201.86
-216.05
-227.58
-232.59
-228.28
-213.42
-188.49
-155.35
-116.86
-76.36
-36.85
-0.27
33.30
65.65
99.74
138.15
181.49
227.30
270.21
303.34
320.47
318.15
296.70
260.04
214.27
165.95
120.78
82.80
54.36
36.25
27.78
27.01
31.06
37.09
43.25
49.24
56.03
64.78
75.77
87.98
99.59
109.10
116.19
121.85
127.72
135.18
144.79
156.21
168.58
181.00
192.75
203.15
211.43
216.83
218.78
217.33
213.13
207.10
199.86
191.37
181.02
168.06
152.08
133.28
112.32
90.01
67.02
43.98
21.67
1.25
-16.07
-29.46
-39.07
-46.14
-52.54
-59.85
-68.48
-77.47
-84.93
-88.99
-88.73
-84.60
-78.09
-71.01
-64.71
-59.65
-55.52
-51.71
-47.72
-43.47
-39.13
-34.89
-30.79
-26.79
-23.03
-20.00
-18.46
-19.07
-21.96
-26.42
-31.09
-34.32
-34.95
-32.68
-28.11
-22.46
-17.05
-12.96
-10.79
-10.59
-12.10
-14.92
-18.85
-23.81
-29.87
-36.99
-45.00
-53.49
-62.03
-70.41
-78.95
-88.70
-100.94
-116.47
-135.04
-155.26
-174.90
-191.65
-203.84
-211.00
-213.83
-213.00
-208.50
-199.75
-186.51
-169.69
-151.25
-133.46
-117.50
-103.22
-88.14
-68.58
-42.50
-12.01
16.36
34.04
34.18
14.74
-21.02
-64.43
-104.32
-131.82
-143.72
-142.19
-131.84
-116.81
-99.92
-84.79
-74.87
-71.98
-75.28
-80.64
-80.84
-67.57
-35.53
21.03
92.63
158.12
199.12
211.93
206.48
195.70
186.65
178.48
165.95
143.85
112.55
80.00
57.21
52.07
65.79
92.47
121.71
142.64
150.18
142.33
123.68
101.25
80.21
61.69
43.58
23.12
-0.88
-27.58
-54.45
-77.32
-93.62
-103.72
-110.26
-116.53
-124.31
-133.10
-140.37
-146.33
-149.04
-147.41
-142.07
-135.05
-128.78
-125.11
-124.63
-126.86
-130.72
-134.14
-135.52
-134.19
-130.39
-124.98
-118.84
-112.53
-105.95
-98.51
-88.72
-75.25
-57.45
-35.63
-11.09
14.42
39.27
62.60
84.56
106.44
129.95
156.77
188.35
225.67
268.64
315.29
361.17
399.80
424.40
430.29
416.96
388.53
352.11
314.71
280.45
249.51
219.24
186.58
150.09
110.57
70.08
30.46
-7.66
-44.56
-80.30
-113.84
-142.98
-165.12
-178.62
-183.65
-182.21
-177.28
-171.68
-167.14
-163.87
-160.84
-156.26
-148.46
-136.50
-120.57
-102.02
-82.85
-65.08
-50.17
-38.78
-31.28
-28.29
-30.79
-39.82
-55.86
-78.29
-105.35
-134.28
-161.62
-183.42
-195.35
-192.99
-172.67
-132.65
-74.31
-2.69
74.14
146.80
206.88
248.89
271.26
276.21
268.57
254.18
238.23
224.12
213.02
204.21
195.98
186.54
174.60
159.77
142.49
123.92
105.98
91.22
82.53
82.26
90.70
105.06
119.57
127.23
122.52
103.86
74.22
39.53
5.93
-22.77
-45.74
-63.98
-78.40
-88.62
-93.24
-91.16
-82.91
-70.83
-58.26
-48.04
-41.60
-38.81
-38.50
-39.15
-39.36
-38.10
-34.85
-29.61
-22.77
-14.89
-6.30
3.07
13.51
25.09
37.12
47.97
55.47
57.61
53.37
43.05
28.06
10.45
-7.87
-25.45
-41.49
-55.62
-67.68
-77.61
-85.39
-91.14
-95.39
-98.90
-102.61
-107.16
-112.63
-118.45
-123.50
-126.61
-127.02
-124.63
-120.02
-114.19
-108.17
-102.74
-98.28
-94.85
-92.34
-90.55
-89.13
-87.56
-85.05
-80.74
-73.98
-64.53
-52.92
-40.17
-27.52
-15.97
-5.90
2.80
10.45
17.31
23.24
27.89
31.04
32.79
33.74
34.68
36.25
38.72
41.84
45.06
47.79
49.71
50.80
51.40
51.95
52.83
54.11
55.51
56.45
56.32
54.81
51.96
48.20
44.10
40.12
36.35
32.67
28.72
24.23
19.12
13.52
7.75
2.19
-2.84
-7.28
-11.29
-15.31
-19.83
-25.16
-31.30
-37.87
-44.13
-49.28
-52.55
-53.28
-51.10
-45.86
-37.75
-27.32
-15.45
-3.21
8.31
18.33
26.40
32.44
36.74
39.80
42.16
44.30
46.47
48.67
50.71
52.38
53.62
54.62
55.67
56.98
58.48
59.85
60.69
60.79
60.33
59.69
59.19
58.81
58.10
56.51
53.73
49.87
45.57
41.57
38.37
36.07
34.21
32.28
29.80
26.63
22.98
19.22
15.73
12.72
10.15
7.79
5.27
2.28
-1.37
-5.73
-10.83
-16.69
-23.33
-30.44
-37.34
-42.86
-45.60
-44.49
-39.21
-30.34
-19.29
-7.68
3.15
12.42
19.97
25.94
30.59
34.11
36.58
38.14
38.88
38.95
38.57
37.96
37.37
37.06
37.09
37.41
37.80
38.06
38.16
38.28
38.66
39.41
40.35
41.03
41.00
40.02
38.34
36.46
34.91
33.95
33.37
32.68
31.35
29.16
26.27
23.10
20.15
17.59
15.26
12.73
9.58
5.61
1.01
-3.82
-8.43
-12.55
-16.16
-19.42
-22.57
-25.78
-29.08
-32.54
-36.25
-40.39
-45.03
-49.91
-54.35
-57.26
-57.53
-54.42
-47.89
-38.65
-27.92
-17.00
-6.90
1.82
9.07
14.89
19.43
22.81
25.13
26.55
27.33
27.78
28.25
28.99
30.09
31.47
32.93
34.22
35.18
35.75
36.04
36.14
36.06
35.69
34.80
33.19
30.85
28.01
25.07
22.43
20.31
18.64
17.12
15.39
13.22
10.65
7.95
5.41
3.20
1.22
-0.91
-3.56
-6.87
-10.61
-14.32
-17.47
-19.76
-21.32
-22.65
-24.36
-26.96
-30.63
-35.15
-39.97
-44.25
-47.02
-47.28
-44.32
-37.92
-28.48
-17.07
-5.06
6.19
15.65
22.90
28.00
31.38
33.62
35.27
36.66
37.99
39.22
40.18
40.72
40.79
40.63
40.44
40.52
40.87
41.27
41.36
40.96
40.05
38.84
37.32
35.34
32.57
28.86
24.52
20.40
17.40
16.02
15.75
15.51
14.22
11.53
8.08
5.18
3.86
4.21
5.11
5.02
2.79
-1.52
-6.73
-11.22
-13.88
-14.83
-15.43
-17.47
-22.09
-29.17
-37.34
-44.64
-49.49
-51.18
-50.13
-47.20
-43.09
-37.98
-31.58
-23.63
-14.38
-4.59
4.45
11.55
16.07
18.08
18.23
17.39
16.29
15.50
15.17
15.33
15.86
16.58
17.29
17.77
17.99
18.13
18.60
19.77
21.74
24.12
26.15
27.04
26.39
24.45
22.13
20.63
21.06
24.13
30.09
38.77
49.65
62.02
74.99
87.62
99.06
108.62
115.87
120.53
122.32
120.94
116.00
107.15
94.23
77.49
57.74
36.40
15.40
-3.24
-17.81
-27.42
-32.16
-33.09
-31.85
-30.23
-29.67
-30.88
-33.72
-37.24
-40.05
-40.94
-39.52
-36.51
-33.63
-32.84
-35.75
-43.27
-55.84
-73.84
-97.55
-126.63
-159.32
-192.11
-220.38
-239.97
-248.77
-247.36
-238.39
-225.02
-209.44
-192.29
-173.26
-152.16
-129.71
-107.55
-87.48
-70.67
-57.07
-45.70
-35.21
-24.57
-13.43
-2.18
8.41
17.63
25.19
31.33
36.68
41.93
47.41
52.90
57.79
61.38
63.28
63.52
62.52
60.78
58.64
56.25
53.62
50.93
48.59
47.26
47.50
49.54
53.02
57.06
60.51
62.33
61.84
58.92
53.75
46.69
38.05
28.18
17.54
6.83
-2.88
-10.36
-14.57
-14.73
-10.53
-2.18
9.66
23.85
38.96
53.55
66.45
77.22
86.10
93.70
100.54
106.54
110.97
112.84
111.15
105.56
96.43
84.67
71.30
57.14
42.68
28.20
13.91
0.15
-12.70
-24.14
-33.80
-41.51
-47.36
-51.64
-55.14
-58.60
-62.56
-67.01
-71.14
-73.71
-73.47
-69.84
-63.44
-55.81
-48.67
-43.12
-39.02
-35.25
-30.47
-23.95
-16.22
-8.71
-3.10
-0.34
-0.34
-2.01
-3.91
-4.87
-4.56
-3.38
-2.11
-1.43
-1.61
-2.36
-3.11
-3.23
-2.40
-0.75
1.24
2.98
4.05
4.40
4.32
4.31
4.69
5.36
5.84
5.48
3.80
0.75
-3.21
-7.33
-10.93
-13.71
-15.82
-17.68
-19.70
-22.03
-24.45
-26.51
-27.86
-28.47
-28.67
-28.93
-29.58
-30.53
-31.16
-30.53
-27.81
-22.74
-15.75
-7.87
-0.34
5.85
10.22
12.85
14.14
14.54
14.33
13.59
12.35
10.74
9.11
8.02
7.94
9.03
11.03
13.29
15.10
16.02
16.07
15.76
15.71
16.27
17.35
18.38
18.73
17.98
16.20
13.90
11.68
9.92
8.63
7.48
6.10
4.26
2.09
-0.01
-1.62
-2.59
-3.09
-3.62
-4.66
-6.46
-8.83
-11.25
-13.16
-14.30
-14.86
-15.47
-16.82
-19.33
-22.90
-26.83
-30.19
-32.11
-32.06
-30.01
-26.20
-21.01
-14.82
-7.94
-0.73
6.32
12.59
17.43
20.42
21.45
20.91
19.54
18.23
17.70
18.26
19.65
21.21
22.11
21.75
20.07
17.43
14.49
11.80
9.58
7.78
6.27
5.09
4.45
4.60
5.55
6.95
8.19
8.72
8.32
7.20
5.87
4.82
4.23
3.94
3.53
2.57
0.88
-1.38
-3.69
-5.43
-6.11
-5.62
-4.33
-3.04
-2.68
-4.02
-7.36
-12.40
-18.38
-24.26
-29.01
-31.83
-32.29
-30.25
-25.89
-19.63
-12.22
-4.60
2.18
7.26
10.22
11.15
10.65
9.44
8.05
6.63
5.06
3.21
1.23
-0.40
-1.04
-0.30
1.74
4.44
6.95
8.58
9.14
8.94
8.51
8.27
8.23
8.03
7.24
5.60
3.23
0.55
-1.90
-3.77
-5.04
-5.95
-6.91
-8.18
-9.85
-11.76
-13.62
-15.20
-16.43
-17.45
-18.52
-19.89
-21.66
-23.81
-26.24
-28.81
-31.42
-33.88
-35.80
-36.61
-35.62
-32.36
-26.78
-19.43
-11.26
-3.38
3.26
8.14
11.21
12.79
13.39
13.46
13.25
12.80
11.97
10.74
9.30
8.24
8.14
9.50
12.24
15.70
18.97
21.30
22.45
22.74
22.46
21.74
20.32
17.88
14.44
10.67
7.55
5.89
5.60
5.87
5.51
3.84
1.14
-1.47
-2.79
-2.32
-0.87
0.02
-1.04
-4.37
-8.96
-12.99
-14.96
-14.55
-13.17
-12.96
-15.66
-21.54
-29.10
-35.81
-39.38
-38.79
-34.89
-29.52
-24.43
-20.33
-16.66
-12.25
-6.35
0.75
7.53
12.11
13.30
11.19
7.11
2.88
-0.06
-1.08
-0.64
0.44
1.46
2.24
3.02
4.23
6.03
8.33
10.59
12.22
12.78
12.23
10.87
9.21
7.73
6.72
6.11
5.62
4.92
3.78
2.16
0.25
-1.72
-3.48
-4.88
-5.92
-6.72
-7.48
-8.41
-9.67
-11.29
-13.10
-14.88
-16.43
-17.75
-19.10
-20.91
-23.51
-26.91
-30.56
-33.49
-34.58
-33.06
-28.80
-22.42
-15.01
-7.72
-1.34
3.83
7.88
11.02
13.29
14.50
14.37
12.81
10.16
7.17
4.70
3.39
3.39
4.38
5.80
7.21
8.49
9.76
11.23
12.92
14.55
15.66
15.84
14.97
13.26
11.11
8.96
7.03
5.34
3.77
2.18
0.52
-1.13
-2.68
-4.14
-5.61
-7.28
-9.23
-11.36
-13.40
-15.03
-16.11
-16.79
-17.50
-18.77
-21.04
-24.35
-28.24
-31.85
-34.11
-34.18
-31.71
-26.97
-20.66
-13.69
-6.80
-0.38
5.40
10.44
14.49
17.18
18.11
17.15
14.62
11.27
8.02
5.71
4.73
5.04
6.26
7.87
9.49
11.04
12.56
14.16
15.75
16.99
17.43
16.81
15.15
12.82
10.28
7.84
5.59
3.36
1.07
-1.21
-3.23
-4.74
-5.81
-6.80
-8.17
-10.17
-12.62
-14.93
-16.44
-16.84
-16.51
-16.33
-17.31
-20.06
-24.34
-29.16
-33.11
-34.89
-34.00
-30.66
-25.63
-19.79
-13.66
-7.36
-0.86
5.72
11.72
16.16
18.16
17.41
14.45
10.51
6.98
4.86
4.31
4.83
5.71
6.52
7.34
8.62
10.72
13.55
16.44
18.45
18.88
17.66
15.33
12.76
10.67
9.37
8.63
7.99
7.00
5.42
3.31
0.93
-1.40
-3.37
-4.88
-6.03
-7.06
-8.26
-9.84
-11.77
-13.86
-15.77
-17.30
-18.49
-19.64
-21.18
-23.51
-26.71
-30.41
-33.84
-36.02
-36.07
-33.51
-28.46
-21.54
-13.71
-5.95
1.06
6.93
11.54
14.82
16.70
17.07
16.02
13.89
11.36
9.21
8.08
8.15
9.14
10.49
11.68
12.49
13.16
14.05
15.42
17.14
18.77
19.75
19.67
18.47
16.44
14.10
11.90
10.11
8.74
7.60
6.40
4.92
3.19
1.40
-0.17
-1.36
-2.29
-3.28
-4.65
-6.49
-8.47
-10.10
-11.07
-11.54
-12.23
-13.95
-17.18
-21.57
-25.94
-28.71
-28.64
-25.34
-19.52
-12.54
-5.82
-0.16
4.39
8.33
12.10
15.67
18.46
19.72
19.03
16.62
13.37
10.38
8.45
7.84
8.21
8.98
9.70
10.19
10.63
11.28
12.26
13.40
14.17
14.04
12.63
10.03
6.80
3.75
1.54
0.34
-0.29
-1.13
-2.86
-5.64
-9.03
-12.22
-14.55
-15.86
-16.52
-17.17
-18.38
-20.32
-22.83
-25.60
-28.43
-31.20
-33.74
-35.64
-36.18
-34.55
-30.20
-23.22
-14.43
-5.16
3.18
9.51
13.40
15.08
15.21
14.51
13.48
12.33
11.04
9.62
8.22
7.18
6.94
7.71
9.41
11.56
13.55
14.87
15.36
15.18
14.69
14.21
13.75
13.13
12.03
10.26
7.92
5.35
3.03
1.31
0.25
-0.42
-1.14
-2.33
-4.18
-6.59
-9.14
-11.31
-12.69
-13.21
-13.17
-13.16
-13.81
-15.49
-18.21
-21.59
-24.98
-27.71
-29.17
-28.98
-26.96
-23.13
-17.67
-11.00
-3.73
3.36
9.47
14.04
16.83
18.00
17.96
17.16
15.94
14.47
12.89
11.46
10.55
10.60
11.85
14.12
16.84
19.22
20.61
20.78
20.00
18.89
18.09
17.88
18.04
17.95
16.90
14.51
10.95
7.05
3.71
1.66
0.96
1.00
0.94
0.17
-1.39
-3.28
-5.13
-6.87
-8.84
-11.48
-14.79
-18.15
-20.66
-21.72
-21.79
-22.10
-23.96
-27.79
-32.59
-36.19
-36.46
-32.33
-24.61
-15.34
-6.79
-0.35
3.94
7.05
10.03
13.35
16.24
17.57
16.44
13.00
8.52
4.86
3.53
5.00
8.17
11.23
12.54
11.65
9.51
7.93
8.42
11.25
14.98
17.36
16.59
12.42
6.35
0.77
-2.32
-2.34
-0.45
1.37
1.46
-0.63
-4.05
-7.34
-9.33
-9.68
-9.05
-8.49
-8.83
-10.34
-12.71
-15.47
-18.30
-21.13
-24.12
-27.24
-30.09
-31.92
-31.87
-29.36
-24.30
-17.17
-8.90
-0.60
6.74
12.41
16.08
17.76
17.80
16.77
15.33
13.97
13.01
12.51
12.35
12.41
12.62
13.04
13.76
14.83
16.13
17.40
18.29
18.51
17.98
16.80
15.20
13.39
11.50
9.53
7.48
5.39
3.40
1.66
0.22
-1.05
-2.38
-4.02
-6.04
-8.28
-10.42
-12.12
-13.20
-13.80
-14.37
-15.49
-17.69
-21.14
-25.47
-29.83
-33.10
-34.23
-32.63
-28.30
-21.87
-14.30
-6.62
0.40
6.29
10.88
14.14
16.04
16.58
15.81
13.96
11.52
9.20
7.68
7.41
8.40
10.26
12.36
14.12
15.31
16.04
16.63
17.37
18.28
19.00
19.01
17.85
15.50
12.36
9.11
6.38
4.52
3.39
2.62
1.76
0.58
-0.97
-2.76
-4.69
-6.73
-8.89
-11.16
-13.40
-15.41
-17.09
-18.56
-20.16
-22.32
-25.25
-28.75
-32.11
-34.27
-34.25
-31.50
-26.12
-18.83
-10.72
-2.82
4.08
9.66
13.79
16.47
17.66
17.34
15.64
12.97
10.05
7.74
6.72
7.23
9.03
11.47
13.83
15.62
16.72
17.32
17.57
17.44
16.70
15.05
12.52
9.50
6.68
4.74
3.80
3.47
2.96
1.58
-0.87
-3.95
-6.89
-8.98
-10.12
-10.70
-11.40
-12.74
-14.75
-17.14
-19.52
-21.66
-23.77
-26.04
-28.41
-30.27
-30.55
-28.22
-22.87
-14.96
-5.90
2.58
9.10
13.03
14.63
14.64
13.84
12.83
11.81
10.85
10.03
9.51
9.53
10.18
11.41
13.05
14.76
16.24
17.31
17.87
17.94
17.60
16.97
16.22
15.41
14.49
13.32
11.66
9.44
6.75
3.88
1.24
-0.82
-2.16
-2.94
-3.51
-4.29
-5.53
-7.25
-9.26
-11.33
-13.38
-15.60
-18.31
-21.66
-25.44
-28.83
-30.69
-29.97
-26.22
-19.79
-11.79
-3.61
3.57
9.14
13.11
15.84
17.63
18.59
18.56
17.37
15.09
12.19
9.43
7.64
7.34
8.54
10.74
13.19
15.15
16.25
16.61
16.57
16.53
16.58
16.50
15.92
14.54
12.39
9.87
7.48
5.59
4.15
2.75
0.92
-1.57
-4.49
-7.24
-9.17
-9.98
-9.84
-9.43
-9.49
-10.61
-12.93
-16.17
-19.80
-23.17
-25.67
-26.75
-25.99
-23.24
-18.61
-12.56
-5.87
0.58
5.98
9.80
11.89
12.40
11.76
10.46
8.93
7.47
6.18
5.03
4.02
3.19
2.69
2.77
3.58
5.08
7.03
8.95
10.35
10.86
10.32
8.90
6.94
4.85
2.93
1.28
-0.15
-1.49
-2.79
-3.96
-4.88
-5.48
-5.92
-6.55
-7.76
-9.78
-12.50
-15.55
-18.47
-20.96
-23.05
-24.92
-26.69
-28.09
-28.51
-27.13
-23.39
-17.31
-9.63
-1.60
5.42
10.43
13.07
13.68
13.01
11.84
10.72
9.73
8.72
7.53
6.20
5.07
4.60
5.14
6.65
8.71
10.65
11.89
12.12
11.49
10.40
9.26
8.23
7.16
5.72
3.68
1.11
-1.61
-4.01
-5.75
-6.86
-7.72
-8.75
-10.18
-11.93
-13.68
-15.16
-16.40
-17.72
-19.54
-22.09
-25.11
-27.81
-29.13
-28.19
-24.62
-18.81
-11.72
-4.49
1.97
7.23
11.32
14.38
16.52
17.66
17.61
16.39
14.35
12.17
10.61
10.17
10.89
12.37
13.96
15.08
15.48
15.38
15.16
15.27
15.81
16.48
16.79
16.37
15.20
13.56
11.65
9.48
6.81
3.44
-0.42
-4.08
-6.67
-7.59
-6.93
-5.53
-4.50
-4.63
-6.13
-8.55
-11.29
-13.81
-16.08
-18.24
-20.46
-22.65
-24.34
-24.83
-23.46
-19.84
-14.48
-8.37
-2.75
1.46
4.11
5.80
7.33
9.24
11.09
11.95
10.91
7.77
3.45
-0.43
-2.36
-1.73
0.75
3.62
5.49
5.85
5.29
5.02
5.96
8.18
10.49
11.31
9.58
5.44
0.34
-3.77
-5.51
-4.78
-2.94
-1.86
-2.87
-6.03
-10.19
-13.67
-15.30
-14.91
-13.48
-12.41
-12.75
-14.71
-17.65
-20.47
-22.11
-21.84
-19.56
-15.59
-10.41
-4.56
1.47
7.26
12.35
16.39
19.06
20.23
19.96
18.51
16.28
13.74
11.33
9.43
8.35
8.24
9.02
10.44
12.02
13.32
14.03
14.12
13.75
13.13
12.33
11.28
9.81
7.83
5.41
2.80
0.29
-1.96
-3.96
-5.88
-7.90
-10.06
-12.25
-14.19
-15.63
-16.46
-16.87
-17.27
-18.22
-20.17
-23.17
-26.78
-30.07
-31.95
-31.51
-28.34
-22.74
-15.53
-7.75
-0.35
6.07
11.26
15.21
17.98
19.54
19.82
18.79
16.71
14.09
11.62
9.96
9.47
10.11
11.44
12.97
14.34
15.47
16.47
17.43
18.23
18.53
18.01
16.55
14.44
12.17
10.24
8.83
7.74
6.53
4.76
2.25
-0.73
-3.66
-5.92
-7.12
-7.20
-6.54
-5.75
-5.58
-6.59
-9.08
-13.05
-18.14
-23.78
-29.15
-33.32
-35.41
-34.73
-31.15
-25.06
-17.46
-9.59
-2.60
2.82
6.49
8.67
9.75
10.01
9.53
8.27
6.29
3.89
1.69
0.40
0.52
2.11
4.71
7.56
9.87
11.15
11.37
10.89
10.18
9.57
9.14
8.64
7.71
6.09
3.76
0.97
-1.98
-4.78
-7.31
-9.56
-11.53
-13.15
-14.26
-14.71
-14.69
-14.72
-15.52
-17.68
-21.24
-25.51
-29.23
-31.11
-30.34
-26.89
-21.44
-14.99
-8.42
-2.23
3.44
8.51
12.62
15.26
15.89
14.39
11.24
7.46
4.21
2.37
2.10
2.98
4.30
5.49
6.37
7.15
8.10
9.41
10.91
12.24
13.01
12.96
12.05
10.38
8.19
5.80
3.49
1.46
-0.27
-1.83
-3.48
-5.43
-7.65
-9.87
-11.74
-13.03
-13.81
-14.50
-15.64
-17.66
-20.68
-24.36
-28.02
-30.80
-31.91
-30.88
-27.61
-22.36
-15.66
-8.12
-0.40
6.86
13.02
17.49
19.83
19.94
18.21
15.43
12.58
10.51
9.63
9.92
11.00
12.41
13.83
15.16
16.41
17.62
18.67
19.31
19.26
18.34
16.63
14.48
12.37
10.70
9.60
8.83
7.95
6.49
4.30
1.62
-1.04
-3.13
-4.45
-5.20
-5.89
-7.05
-8.92
-11.32
-13.89
-16.34
-18.64
-21.00
-23.52
-26.02
-27.79
-27.84
-25.36
-20.12
-12.71
-4.36
3.54
9.96
14.46
17.25
18.78
19.45
19.45
18.72
17.25
15.21
13.07
11.45
10.88
11.57
13.28
15.42
17.29
18.38
18.54
18.04
17.31
16.72
16.30
15.75
14.64
12.67
9.95
6.98
4.39
2.63
1.71
1.23
0.62
-0.56
-2.44
-4.70
-6.92
-8.70
-9.94
-10.88
-11.94
-13.55
-15.94
-18.99
-22.31
-25.35
-27.52
-28.33
-27.44
-24.72
-20.26
-14.31
-7.35
-0.04
6.86
12.60
16.64
18.68
18.85
17.55
15.40
12.95
10.63
8.65
7.13
6.17
5.90
6.52
8.08
10.42
13.06
15.35
16.69
16.72
15.52
13.51
11.26
9.17
7.36
5.67
3.85
1.77
-0.46
-2.52
-4.11
-5.15
-5.81
-6.49
-7.55
-9.14
-11.13
-13.18
-14.97
-16.42
-17.79
-19.52
-22.03
-25.37
-29.06
-32.14
-33.46
-32.13
-27.88
-21.11
-12.80
-4.15
3.83
10.42
15.31
18.42
19.80
19.61
18.09
15.68
13.02
10.80
9.58
9.59
10.67
12.36
14.10
15.46
16.26
16.63
16.79
16.92
17.05
17.01
16.54
15.48
13.84
11.80
9.65
7.62
5.84
4.35
3.16
2.25
1.53
0.71
-0.61
-2.80
-5.95
-9.68
-13.24
-15.89
-17.14
-17.15
-16.58
-16.41
-17.42
-19.97
-23.71
-27.72
-30.59
-31.03
-28.17
-21.97
-13.40
-3.97
4.71
11.56
16.27
18.80
19.33
17.97
14.87
10.59
6.25
3.16
2.32
3.65
6.19
8.59
9.83
9.90
9.63
10.08
11.73
14.05
15.84
15.95
14.03
10.79
7.65
5.85
5.88
6.86
7.32
6.00
2.62
-1.84
-5.70
-7.57
-7.10
-5.40
-4.25
-5.06
-8.05
-12.15
-15.70
-17.45
-17.28
-16.34
-16.25
-18.11
-21.91
-26.46
-30.00
-31.01
-28.76
-23.57
-16.45
-8.62
-1.11
5.40
10.55
14.21
16.48
17.46
17.38
16.52
15.15
13.50
11.81
10.38
9.55
9.61
10.62
12.30
14.16
15.63
16.34
16.25
15.66
14.95
14.34
13.76
12.90
11.45
9.32
6.74
4.16
2.08
0.70
-0.11
-0.80
-1.86
-3.60
-5.94
-8.49
-10.69
-12.19
-12.96
-13.35
-13.95
-15.28
-17.60
-20.76
-24.21
-27.21
-28.97
-28.91
-26.78
-22.68
-17.03
-10.40
-3.46
3.17
8.92
13.37
16.22
17.42
17.10
15.66
13.59
11.38
9.43
7.91
6.87
6.26
6.06
6.38
7.35
9.03
11.25
13.57
15.33
15.98
15.21
13.17
10.37
7.48
4.99
3.11
1.66
0.29
-1.33
-3.31
-5.57
-7.83
-9.86
-11.54
-12.98
-14.40
-16.08
-18.14
-20.58
-23.29
-26.13
-29.01
-31.79
-34.18
-35.68
-35.60
-33.33
-28.70
-22.07
-14.39
-6.87
-0.62
3.66
5.86
6.27
5.39
3.65
1.40
-1.16
-3.78
-6.05
-7.31
-6.99
-4.74
-0.78
4.24
9.45
14.35
19.05
24.29
30.87
39.18
48.84
58.83
67.98
75.60
81.70
86.86
91.63
96.01
99.33
100.42
98.27
92.54
83.67
72.69
60.68
48.35
36.00
23.62
11.23
-1.01
-12.85
-24.06
-34.87
-45.79
-57.55
-70.68
-85.18
-100.37
-114.97
-127.38
-136.31
-140.98
-141.33
-137.88
-131.43
-122.76
-112.50
-101.10
-89.11
-77.11
-65.60
-54.78
-44.44
-34.06
-23.20
-11.70
0.07
11.42
21.67
30.41
37.65
43.79
49.48
55.45
62.20
69.91
78.41
87.28
96.14
104.91
113.89
123.73
134.93
147.53
160.95
174.09
185.63
194.27
198.87
198.49
192.43
180.52
163.36
142.35
119.44
96.43
74.51
53.99
34.52
15.51
-3.44
-22.43
-41.28
-59.81
-77.83
-95.00
-110.75
-124.21
-134.37
-140.32
-141.44
-137.44
-128.47
-115.03
-97.99
-78.56
-58.15
-38.20
-19.97
-4.50
7.43
15.32
19.09
19.09
16.13
11.25
5.49
-0.40
-5.98
-11.05
-15.48
-19.12
-21.94
-24.19
-26.46
-29.57
-34.25
-40.69
-48.50
-56.76
-64.36
-70.34
-74.04
-75.19
-73.77
-69.97
-64.15
-56.92
-49.10
-41.67
-35.61
-31.66
-30.17
-30.97
-33.51
-37.00
-40.67
-43.89
-46.27
-47.61
-47.78
-46.72
-44.44
-41.15
-37.25
-33.34
-29.98
-27.57
-26.19
-25.60
-25.40
-25.19
-24.80
-24.29
-23.82
-23.50
-23.37
-23.29
-23.13
-22.85
-22.58
-22.52
-22.79
-23.38
-24.03
-24.42
-24.31
-23.78
-23.25
-23.32
-24.52
-26.90
-29.91
-32.38
-32.94
-30.48
-24.65
-16.06
-6.11
3.49
11.26
16.36
18.65
18.45
16.24
12.45
7.45
1.68
-4.34
-9.89
-14.38
-17.49
-19.39
-20.57
-21.65
-23.00
-24.47
-25.45
-25.18
-23.14
-19.40
-14.66
-9.93
-6.13
-3.66
-2.27
-1.39
-0.41
0.91
2.41
3.79
4.79
5.54
6.39
7.78
9.88
12.56
15.35
17.70
19.14
19.44
18.59
16.70
14.02
10.88
7.74
5.19
3.87
4.40
7.15
12.10
18.74
26.15
33.21
38.92
42.65
44.29
44.18
42.85
40.79
38.37
35.78
33.21
30.92
29.25
28.52
28.82
29.97
31.49
32.75
33.22
32.62
30.96
28.56
25.78
22.97
20.30
17.77
15.34
12.94
10.58
8.32
6.17
4.13
2.10
-0.02
-2.26
-4.46
-6.29
-7.42
-7.74
-7.58
-7.68
-8.90
-11.69
-15.72
-19.63
-21.73
-20.50
-15.49
-7.49
1.83
10.68
17.85
22.98
26.07
27.29
26.71
24.45
21.04
17.59
15.35
15.23
16.97
19.51
21.46
22.00
21.41
20.88
21.70
24.35
27.87
30.52
30.60
27.56
22.31
16.78
12.77
11.11
10.85
10.28
7.83
3.18
-2.44
-6.91
-8.60
-7.22
-4.48
-2.88
-4.40
-9.43
-16.47
-23.04
-27.12
-28.05
-26.92
-25.49
-24.94
-25.08
-24.40
-21.10
-14.28
-4.51
6.13
15.21
20.97
22.97
21.99
19.47
16.73
14.61
13.27
12.60
12.40
12.62
13.28
14.39
15.84
17.50
19.09
20.35
21.05
20.98
20.08
18.41
16.22
13.84
11.60
9.65
7.91
6.16
4.15
1.82
-0.64
-2.82
-4.32
-5.00
-5.02
-4.90
-5.25
-6.56
-8.95
-12.19
-15.78
-19.22
-22.09
-24.17
-25.31
-25.24
-23.60
-19.97
-14.22
-6.67
1.79
9.91
16.50
20.76
22.56
22.35
20.93
19.04
17.21
15.69
14.56
13.87
13.69
14.14
15.21
16.80
18.61
20.23
21.21
21.12
19.69
16.84
12.79
7.86
2.50
-2.94
-8.22
-13.21
-17.76
-21.69
-24.73
-26.62
-27.28
-26.88
-25.79
-24.50
-23.47
-23.02
-23.34
-24.51
-26.50
-29.10
-31.83
-33.94
-34.54
-32.87
-28.66
-22.21
-14.43
-6.51
0.42
5.68
9.07
10.87
11.52
11.38
10.66
9.43
7.81
6.12
4.86
4.59
5.63
7.84
10.66
13.29
15.00
15.48
14.83
13.56
12.17
10.99
10.00
8.91
7.45
5.48
3.13
0.73
-1.47
-3.34
-4.91
-6.29
-7.55
-8.61
-9.43
-10.04
-10.76
-12.09
-14.51
-18.12
-22.45
-26.46
-28.83
-28.38
-24.62
-17.82
-9.02
0.36
8.96
15.85
20.62
23.39
24.38
23.91
22.31
19.95
17.42
15.37
14.41
14.86
16.40
18.34
19.88
20.54
20.35
19.84
19.66
20.18
21.18
21.97
21.76
20.10
17.11
13.40
9.78
6.83
4.59
2.71
0.69
-1.72
-4.42
-7.03
-9.13
-10.51
-11.33
-12.01
-13.01
-14.63
-17.00
-20.02
-23.39
-26.64
-29.13
-30.15
-29.06
-25.56
-19.79
-12.34
-4.12
4.02
11.33
17.30
21.61
24.05
24.57
23.37
20.97
18.14
15.66
14.02
13.28
13.13
13.11
12.91
12.55
12.27
12.34
12.77
13.23
13.10
11.86
9.29
5.74
1.96
-1.19
-3.26
-4.34
-5.15
-6.60
-9.29
-13.21
-17.67
-21.68
-24.37
-25.39
-24.91
-23.56
-22.12
-21.33
-21.81
-23.92
-27.61
-32.04
-35.44
-35.35
-29.45
-16.66
2.06
23.57
43.52
57.85
64.23
62.69
55.16
44.43
33.00
22.35
12.98
4.83
-2.49
-9.24
-15.78
-22.44
-29.38
-36.52
-43.50
-49.86
-55.33
-59.84
-63.32
-65.41
-65.29
-61.94
-54.68
-43.53
-29.32
-13.18
4.07
22.36
42.24
64.24
88.25
113.04
136.47
156.12
169.99
176.98
177.05
170.85
159.41
143.88
125.34
104.99
84.22
64.55
47.47
34.04
24.52
18.27
13.88
9.68
4.30
-2.88
-11.62
-21.18
-30.65
-39.38
-47.09
-53.74
-59.29
-63.55
-66.18
-66.90
-65.73
-63.04
-59.57
-56.09
-53.14
-50.86
-49.02
-47.26
-45.38
-43.48
-41.88
-40.92
-40.71
-40.97
-41.11
-40.59
-39.18
-37.13
-35.09
-33.73
-33.39
-33.85
-34.45
-34.45
-33.41
-31.51
-29.46
-28.18
-28.37
-30.24
-33.37
-36.93
-39.98
-41.70
-41.56
-39.30
-34.89
-28.58
-20.80
-12.24
-3.75
3.80
9.71
13.58
15.38
15.44
14.35
12.81
11.42
10.60
10.50
10.99
11.84
12.86
13.97
15.22
16.71
18.39
20.04
21.26
21.66
21.00
19.41
17.24
14.98
12.96
11.26
9.73
8.17
6.47
4.76
3.22
1.91
0.73
-0.67
-2.53
-4.87
-7.31
-9.31
-10.42
-10.65
-10.50
-10.75
-12.17
-15.08
-19.19
-23.68
-27.48
-29.66
-29.69
-27.56
-23.62
-18.36
-12.09
-5.13
2.31
9.79
16.57
21.85
25.02
25.95
24.98
22.50
18.94
14.60
9.91
5.66
3.01
2.96
5.73
10.31
14.82
17.38
17.11
14.61
11.56
9.72
10.04
12.04
14.36
15.56
14.84
12.46
9.39
6.67
4.99
3.91
2.64
0.35
-3.17
-7.32
-10.89
-12.86
-12.85
-11.81
-11.23
-12.42
-15.68
-20.12
-24.12
-26.47
-27.06
-27.16
-28.32
-31.24
-35.01
-37.32
-35.63
-28.65
-17.10
-3.82
7.71
14.96
17.35
16.34
14.32
13.29
14.06
15.93
17.62
18.18
17.60
16.67
16.41
17.36
19.42
21.73
23.42
23.96
23.44
22.33
21.14
20.20
19.59
19.04
18.23
16.86
14.80
12.12
9.12
6.20
3.80
2.17
1.30
0.86
0.35
-0.73
-2.61
-5.26
-8.30
-11.25
-13.64
-15.30
-16.33
-17.17
-18.33
-20.26
-23.11
-26.69
-30.47
-33.72
-35.70
-35.81
-33.63
-29.08
-22.35
-14.03
-4.99
3.68
10.95
16.03
18.66
19.08
17.99
16.23
14.52
13.25
12.49
12.12
12.01
12.18
12.78
13.93
15.59
17.50
19.26
20.47
20.89
20.56
19.69
18.57
17.40
16.24
14.99
13.43
11.38
8.80
5.89
3.08
0.79
-0.71
-1.52
-1.98
-2.58
-3.70
-5.42
-7.60
-9.95
-12.20
-14.21
-15.96
-17.50
-18.91
-20.32
-21.93
-23.96
-26.55
-29.59
-32.66
-35.05
-35.88
-34.34
-30.03
-23.11
-14.36
-5.07
3.38
9.90
14.02
15.97
16.40
16.02
15.28
14.27
12.90
11.18
9.41
8.16
7.92
8.90
10.86
13.27
15.57
17.46
18.87
19.90
20.47
20.37
19.31
17.16
14.17
10.89
7.99
6.00
5.09
5.03
5.28
5.16
4.10
1.80
-1.56
-5.34
-8.73
-11.07
-12.11
-12.22
-12.13
-12.57
-13.96
-16.21
-19.11
-22.45
-26.12
-30.04
-33.76
-36.42
-36.91
-34.36
-28.72
-20.82
-12.06
-3.82
3.01
8.28
12.26
15.22
17.11
17.61
16.45
13.77
10.33
7.23
5.51
5.73
7.57
10.11
12.29
13.43
13.52
13.09
12.82
13.22
14.17
15.15
15.49
14.78
13.02
10.59
8.03
5.83
4.19
3.04
2.16
1.23
0.02
-1.53
-3.34
-5.09
-6.60
-7.74
-8.62
-9.50
-10.67
-12.36
-14.61
-17.33
-20.35
-23.57
-26.89
-30.15
-32.95
-34.68
-34.60
-32.10
-26.97
-19.61
-10.99
-2.39
5.00
10.35
13.46
14.70
14.73
14.19
13.48
12.68
11.76
10.69
9.69
9.23
9.79
11.60
14.43
17.65
20.46
22.27
22.88
22.59
21.87
21.12
20.43
19.53
18.09
15.88
13.01
9.99
7.40
5.68
4.86
4.53
4.11
3.08
1.28
-1.01
-3.27
-5.02
-6.12
-6.76
-7.38
-8.37
-9.90
-11.81
-13.86
-15.86
-17.89
-20.26
-23.19
-26.68
-30.20
-32.83
-33.50
-31.44
-26.52
-19.37
-11.14
-3.14
3.52
8.31
11.19
12.45
12.46
11.47
9.69
7.31
4.67
2.27
0.68
0.26
1.05
2.73
4.73
6.51
7.77
8.62
9.33
10.18
11.13
11.79
11.61
10.21
7.65
4.54
1.68
-0.27
-1.14
-1.31
-1.42
-2.07
-3.45
-5.30
-7.06
-8.24
-8.67
-8.62
-8.63
-9.23
-10.79
-13.24
-16.29
-19.52
-22.54
-25.05
-26.73
-27.18
-25.90
-22.46
-16.79
-9.37
-1.15
6.69
13.11
17.56
19.99
20.72
20.20
18.85
16.95
14.73
12.39
10.18
8.40
7.40
7.42
8.50
10.38
12.55
14.36
15.29
15.16
14.17
12.74
11.25
9.79
8.24
6.39
4.24
2.02
0.18
-0.96
-1.45
-1.67
-2.18
-3.37
-5.27
-7.48
-9.47
-10.87
-11.71
-12.46
-13.75
-16.11
-19.58
-23.66
-27.41
-29.79
-29.93
-27.46
-22.56
-15.87
-8.29
-0.72
6.10
11.72
15.92
18.61
19.82
19.67
18.44
16.63
14.81
13.47
12.82
12.68
12.64
12.35
11.72
11.01
10.72
11.18
12.36
13.83
14.91
15.05
14.11
12.40
10.42
8.70
7.45
6.61
5.93
5.21
4.36
3.45
2.53
1.58
0.45
-1.01
-2.79
-4.62
-6.12
-7.03
-7.48
-8.11
-9.74
-12.99
-17.83
-23.34
-27.98
-30.02
-28.37
-22.84
-14.34
-4.51
4.94
12.71
18.19
21.38
22.31
21.12
17.98
13.37
8.32
4.25
2.45
3.49
6.60
10.21
12.70
13.24
12.35
11.38
11.61
13.34
15.44
16.17
14.22
9.58
3.76
-1.03
-3.14
-2.37
-0.34
0.61
-1.30
-6.13
-12.19
-17.00
-18.72
-17.06
-13.52
-10.36
-9.39
-11.09
-14.67
-18.68
-21.90
-23.66
-24.04
-23.27
-21.41
-18.26
-13.64
-7.67
-0.94
5.83
11.75
16.19
18.84
19.69
18.95
17.02
14.41
11.76
9.71
8.73
8.97
10.19
11.85
13.37
14.41
14.98
15.36
15.82
16.38
16.73
16.37
14.91
12.30
8.95
5.50
2.52
0.20
-1.66
-3.52
-5.78
-8.52
-11.42
-13.93
-15.60
-16.32
-16.36
-16.27
-16.64
-17.86
-20.07
-23.10
-26.57
-29.96
-32.58
-33.74
-32.79
-29.34
-23.44
-15.64
-6.93
1.51
8.58
13.57
16.21
16.75
15.77
13.99
12.08
10.52
9.61
9.44
9.97
11.06
12.56
14.21
15.75
16.92
17.49
17.36
16.57
15.29
13.84
12.50
11.47
10.70
9.94
8.84
7.15
4.90
2.46
0.29
-1.27
-2.21
-2.94
-4.01
-5.80
-8.32
-11.15
-13.69
-15.46
-16.42
-16.92
-17.53
-18.75
-20.81
-23.56
-26.68
-29.69
-32.16
-33.63
-33.62
-31.64
-27.34
-20.69
-12.16
-2.73
6.34
13.83
18.99
21.68
22.32
21.70
20.58
19.48
18.57
17.82
17.14
16.58
16.31
16.60
17.54
19.05
20.74
22.07
22.57
22.04
20.60
18.71
16.80
15.14
13.71
12.25
10.55
8.60
6.65
5.10
4.14
3.63
3.15
2.23
0.65
-1.45
-3.68
-5.63
-7.27
-8.82
-10.60
-12.75
-15.01
-16.93
-18.20
-18.91
-19.79
-21.73
-25.25
-30.08
-35.02
-38.37
-38.66
-35.15
-28.29
-19.43
-10.19
-1.89
4.82
9.93
13.75
16.64
18.70
19.80
19.78
18.64
16.65
14.35
12.43
11.57
12.07
13.77
16.11
18.29
19.63
19.85
19.11
18.02
17.13
16.67
16.46
15.99
14.73
12.46
9.41
6.18
3.49
1.80
1.17
1.17
1.17
0.53
-1.03
-3.42
-6.21
-8.88
-11.08
-12.70
-13.90
-15.01
-16.30
-17.94
-19.96
-22.42
-25.35
-28.73
-32.34
-35.55
-37.45
-36.98
-33.42
-26.78
-17.89
-8.18
0.73
7.66
12.12
14.34
14.98
14.67
13.83
12.60
11.00
9.13
7.29
6.02
5.80
6.89
9.12
11.90
14.50
16.23
16.82
16.44
15.56
14.67
14.04
13.59
13.00
11.99
10.45
8.61
6.84
5.44
4.50
3.87
3.28
2.53
1.60
0.70
0.02
-0.36
-0.63
-1.21
-2.51
-4.70
-7.60
-10.70
-13.39
-15.30
-16.44
-17.30
-18.57
-20.81
-24.18
-28.20
-31.94
-34.29
-34.33
-31.69
-26.53
-19.56
-11.71
-3.89
3.18
8.98
13.19
15.63
16.24
15.24
13.10
10.59
8.49
7.42
7.58
8.78
10.52
12.30
13.81
15.03
16.09
17.15
18.19
18.98
19.22
18.69
17.46
15.83
14.18
12.72
11.42
9.98
8.12
5.76
3.14
0.76
-0.88
-1.60
-1.57
-1.33
-1.43
-2.26
-3.89
-6.03
-8.31
-10.41
-12.23
-13.87
-15.59
-17.63
-20.16
-23.08
-26.12
-28.87
-30.83
-31.59
-30.82
-28.39
-24.29
-18.64
-11.75
-4.16
3.38
10.03
15.00
17.84
18.56
17.61
15.69
13.48
11.43
9.72
8.37
7.41
7.02
7.48
8.96
11.34
14.14
16.64
18.18
18.47
17.65
16.22
14.70
13.34
12.08
10.59
8.61
6.17
3.66
1.61
0.40
-0.00
-0.05
-0.39
-1.55
-3.65
-6.32
-8.97
-11.08
-12.43
-13.31
-14.31
-16.01
-18.76
-22.44
-26.62
-30.64
-33.85
-35.66
-35.62
-33.40
-28.86
-22.17
-13.90
-5.04
3.24
9.87
14.16
15.99
15.80
14.39
12.67
11.33
10.69
10.66
10.84
10.82
10.48
10.16
10.32
11.38
13.27
15.37
16.81
17.02
15.99
14.27
12.31
10.31
7.99
5.00
1.44
-1.96
-4.16
-4.43
-3.14
-1.53
-1.09
-2.70
-6.05
-9.80
-12.46
-13.22
-12.61
-11.91
-12.45
-14.68
-17.97
-21.08
-23.04
-23.80
-24.55
-26.63
-30.58
-35.39
-38.74
-38.00
-31.78
-20.72
-7.58
4.12
11.78
14.74
14.34
12.90
12.33
13.30
15.08
16.36
16.30
14.96
13.27
12.36
12.88
14.77
17.23
19.34
20.49
20.60
20.04
19.31
18.76
18.50
18.22
17.52
16.06
13.80
10.97
8.09
5.65
4.02
3.21
2.97
2.87
2.46
1.46
-0.22
-2.41
-4.81
-7.06
-8.88
-10.17
-11.10
-12.08
-13.61
-16.13
-19.66
-23.73
-27.50
-29.96
-30.35
-28.33
-24.11
-18.19
-11.23
-3.85
3.38
9.86
14.97
18.17
19.16
18.10
15.58
12.46
9.56
7.40
6.13
5.62
5.64
6.07
6.92
8.22
9.93
11.81
13.45
14.45
14.49
13.47
11.57
9.12
6.53
4.13
2.09
0.39
-1.15
-2.67
-4.21
-5.63
-6.75
-7.48
-7.98
-8.54
-9.47
-10.88
-12.61
-14.36
-15.94
-17.49
-19.40
-22.00
-25.24
-28.46
-30.53
-30.27
-27.00
-20.85
-12.82
-4.32
3.32
9.23
13.28
15.76
17.07
17.48
16.95
15.42
13.01
10.23
7.93
6.96
7.70
9.89
12.67
15.00
16.17
16.13
15.39
14.72
14.59
14.90
15.07
14.37
12.36
9.23
5.74
2.75
0.88
0.10
-0.18
-0.79
-2.31
-4.81
-7.75
-10.45
-12.42
-13.66
-14.63
-15.86
-17.70
-20.09
-22.77
-25.55
-28.44
-31.43
-34.28
-36.18
-35.96
-32.67
-26.10
-17.25
-7.94
-0.07
5.19
7.78
8.55
8.59
8.64
8.61
8.01
6.42
4.03
1.67
0.49
1.29
4.10
7.97
11.49
13.42
13.34
11.81
10.00
9.07
9.50
10.86
12.14
12.32
11.04
8.69
6.21
4.56
4.29
5.29
6.99
8.73
10.03
10.72
10.91
10.76
10.50
10.12
9.53
8.49
6.74
4.08
0.46
-4.01
-9.03
-14.31
-19.56
-24.54
-29.01
-32.59
-34.76
-34.90
-32.47
-27.35
-19.91
-11.15
-2.38
5.08
10.33
13.14
13.92
13.44
12.44
11.38
10.39
9.43
8.53
7.90
7.93
8.89
10.78
13.19
15.52
17.15
17.77
17.43
16.51
15.49
14.74
14.36
14.14
13.70
12.68
10.96
8.77
6.54
4.73
3.56
2.92
2.48
1.87
0.91
-0.27
-1.39
-2.25
-2.88
-3.53
-4.56
-6.16
-8.22
-10.38
-12.29
-13.89
-15.51
-17.71
-20.90
-24.97
-29.11
-32.01
-32.37
-29.49
-23.51
-15.47
-6.76
1.30
7.86
12.71
15.99
17.89
18.56
17.95
16.14
13.41
10.37
7.85
6.60
6.95
8.72
11.22
13.58
15.09
15.48
14.97
14.09
13.30
12.77
12.26
11.33
9.57
6.97
3.95
1.20
-0.66
-1.41
-1.38
-1.25
-1.76
-3.28
-5.62
-8.17
-10.26
-11.52
-12.01
-12.17
-12.51
-13.38
-14.76
-16.46
-18.33
-20.43
-22.93
-25.88
-28.93
-31.20
-31.50
-28.84
-22.98
-14.59
-5.16
3.64
10.52
14.95
17.20
17.99
18.01
17.66
17.00
15.95
14.48
12.84
11.46
10.78
11.05
12.17
13.77
15.35
16.53
17.20
17.51
17.71
17.90
17.97
17.58
16.46
14.53
12.05
9.54
7.48
6.16
5.54
5.34
5.19
4.75
3.88
2.62
1.16
-0.31
-1.67
-2.95
-4.32
-6.01
-8.07
-10.37
-12.62
-14.57
-16.22
-17.91
-20.16
-23.32
-27.22
-31.07
-33.65
-33.76
-30.74
-24.77
-16.78
-8.15
-0.15
6.38
11.18
14.35
16.16
16.82
16.46
15.23
13.44
11.56
10.10
9.40
9.55
10.38
11.62
13.01
14.42
15.80
17.09
18.12
18.64
18.45
17.50
15.95
14.16
12.53
11.34
10.59
10.02
9.29
8.16
6.66
5.19
4.18
3.97
4.48
5.22
5.54
4.97
3.43
1.26
-1.31
-4.13
-7.32
-10.98
-14.85
-18.21
-20.20
-20.36
-19.27
-18.27
-18.94
-22.17
-27.54
-33.40
-37.70
-38.92
-36.90
-32.55
-27.16
-21.63
-16.03
-9.87
-2.82
4.84
11.70
16.16
17.13
14.77
10.59
6.72
4.87
5.62
7.83
9.76
9.98
8.30
5.99
4.96
6.60
10.87
15.94
19.35
19.29
15.65
10.09
5.13
2.67
3.18
5.40
7.33
7.46
5.53
2.53
-0.08
-1.26
-0.85
0.30
1.06
0.61
-1.14
-3.73
-6.38
-8.52
-9.86
-10.62
-11.25
-12.27
-14.08
-16.87
-20.47
-24.38
-27.79
-29.76
-29.53
-26.74
-21.60
-14.84
-7.45
-0.36
5.89
11.09
15.28
18.43
20.34
20.71
19.42
16.74
13.42
10.46
8.75
8.72
10.17
12.40
14.57
16.05
16.63
16.51
16.09
15.69
15.38
14.96
14.14
12.74
10.81
8.70
6.76
5.30
4.30
3.53
2.62
1.33
-0.34
-2.10
-3.59
-4.61
-5.25
-5.84
-6.78
-8.26
-10.13
-12.00
-13.50
-14.57
-15.51
-16.87
-19.15
-22.49
-26.49
-30.36
-33.15
-34.03
-32.57
-28.79
-23.13
-16.28
-8.92
-1.70
4.90
10.43
14.49
16.76
17.11
15.81
13.51
11.09
9.32
8.63
8.93
9.83
10.87
11.81
12.70
13.71
14.92
16.13
16.91
16.85
15.80
14.00
12.03
10.45
9.57
9.26
9.08
8.56
7.48
5.94
4.43
3.36
2.98
3.14
3.39
3.25
2.42
0.90
-1.01
-3.07
-5.09
-7.10
-9.17
-11.33
-13.42
-15.22
-16.65
-17.99
-19.79
-22.58
-26.50
-30.96
-34.77
-36.55
-35.29
-30.83
-23.86
-15.66
-7.61
-0.71
4.62
8.40
10.96
12.49
13.07
12.70
11.48
9.75
8.12
7.20
7.44
8.73
10.53
12.10
12.88
12.81
12.33
12.09
12.59
13.72
14.86
15.19
14.18
11.93
9.10
6.57
4.96
4.23
3.81
3.02
1.49
-0.56
-2.54
-3.86
-4.24
-4.02
-3.83
-4.23
-5.44
-7.23
-9.14
-10.76
-11.90
-12.80
-13.90
-15.64
-18.26
-21.60
-24.99
-27.46
-27.91
-25.59
-20.42
-13.08
-4.84
2.93
9.16
13.45
16.02
17.36
17.93
17.89
17.16
15.66
13.55
11.32
9.71
9.29
10.22
12.16
14.40
16.20
17.13
17.19
16.78
16.31
15.96
15.61
14.86
13.40
11.14
8.36
5.55
3.17
1.47
0.34
-0.55
-1.61
-3.12
-5.06
-7.15
-9.01
-10.36
-11.14
-11.62
-12.19
-13.27
-15.03
-17.37
-20.04
-22.78
-25.39
-27.67
-29.29
-29.70
-28.30
-24.58
-18.56
-10.83
-2.52
5.09
10.99
14.69
16.34
16.51
15.94
15.19
14.53
13.94
13.34
12.70
12.28
12.47
13.65
15.91
18.95
22.08
24.58
25.95
26.11
25.49
24.69
24.18
24.08
24.11
23.85
23.00
21.57
19.97
18.68
18.07
18.21
18.81
19.44
19.82
19.86
19.75
19.75
20.03
20.49
20.79
20.61
19.80
18.58
17.45
16.87
16.82
16.61
15.00
10.63
2.78
-8.17
-20.60
-32.20
-40.77
-44.98
-44.74
-41.01
-35.21
-28.54
-21.57
-14.31
-6.57
1.65
10.01
18.15
26.13
34.62
44.55
56.26
68.90
80.41
88.24
90.70
87.83
81.54
74.70
69.70
67.43
67.10
66.90
65.13
61.00
54.77
47.35
39.59
31.80
23.74
14.87
4.73
-6.64
-18.74
-30.70
-41.81
-51.86
-61.34
-71.25
-82.63
-95.98
-110.82
-125.75
-138.92
-148.67
-154.13
-155.32
-152.97
-147.98
-141.01
-132.29
-121.91
-110.04
-97.18
-84.08
-71.47
-59.73
-48.80
-38.26
-27.67
-16.92
-6.37
3.17
10.77
15.73
17.91
17.79
16.35
14.66
13.66
13.77
15.00
17.02
19.46
21.97
24.28
26.18
27.50
28.20
28.46
28.72
29.52
31.29
34.08
37.48
40.74
43.07
44.02
43.56
42.10
40.14
38.01
35.65
32.65
28.53
23.01
16.25
8.85
1.51
-5.17
-11.04
-16.40
-21.70
-27.29
-33.24
-39.27
-44.97
-49.96
-53.92
-56.49
-57.12
-55.12
-49.83
-40.95
-28.92
-14.94
-0.71
12.04
22.07
28.95
33.05
35.29
36.50
37.31
37.93
38.26
38.26
38.11
38.15
38.72
39.50
39.87
39.10
36.92
33.93
31.43
30.70
32.20
34.94
37.21
37.43
35.16
31.49
28.37
27.37
28.63
30.61
31.08
28.44
22.70
15.45
8.89
4.49
2.36
1.09
-1.12
-5.38
-11.53
-18.35
-24.42
-28.94
-32.03
-34.76
-38.22
-42.89
-48.36
-53.41
-56.63
-56.99
-54.10
-48.58
-41.61
-34.60
-28.69
-24.52
-22.20
-21.42
-21.73
-22.77
-24.40
-26.62
-29.43
-32.66
-35.85
-38.29
-39.22
-38.13
-35.01
-30.38
-25.13
-20.18
-16.11
-12.98
-10.39
-7.83
-5.01
-2.10
0.33
1.67
1.63
0.41
-1.30
-2.66
-3.04
-2.31
-0.82
0.79
1.94
2.34
2.11
1.61
1.25
1.20
1.35
1.36
0.90
-0.17
-1.77
-3.64
-5.62
-7.81
-10.49
-13.99
-18.27
-22.77
-26.43
-28.10
-26.95
-22.95
-16.82
-9.75
-2.96
2.77
7.25
10.64
13.18
14.87
15.46
14.71
12.69
9.91
7.29
5.70
5.65
7.00
9.15
11.31
12.86
13.64
13.85
13.87
13.95
14.12
14.16
13.79
12.79
11.17
9.15
7.06
5.25
3.87
2.94
2.28
1.72
1.16
0.68
0.40
0.41
0.58
0.62
0.13
-1.09
-2.92
-4.86
-6.35
-7.02
-7.03
-7.00
-7.79
-9.98
-13.62
-18.08
-22.33
-25.37
-26.44
-25.21
-21.76
-16.39
-9.66
-2.21
5.12
11.50
16.21
18.83
19.35
18.12
15.77
13.06
10.58
8.78
7.84
7.68
8.10
8.87
9.84
10.99
12.21
13.34
14.12
14.31
13.84
12.87
11.76
10.82
10.09
9.35
8.29
6.79
5.06
3.61
2.88
3.04
3.61
3.85
3.07
1.10
-1.57
-4.05
-5.53
-5.78
-5.42
-5.54
-7.11
-10.49
-15.25
-20.35
-24.67
-27.40
-28.30
-27.51
-25.29
-21.74
-16.91
-10.85
-3.91
3.38
10.20
15.83
19.68
21.47
21.28
19.51
16.82
14.10
12.04
11.11
11.31
12.36
13.85
15.42
16.87
18.20
19.35
20.24
20.64
20.44
19.64
18.42
17.10
15.90
14.93
14.09
13.17
12.00
10.51
8.75
6.88
5.11
3.62
2.48
1.58
0.62
-0.76
-2.82
-5.56
-8.64
-11.49
-13.59
-14.75
-15.28
-15.83
-17.14
-19.61
-23.06
-26.72
-29.56
-30.70
-29.69
-26.55
-21.69
-15.66
-8.98
-2.17
4.23
9.64
13.54
15.61
15.86
14.66
12.65
10.53
8.83
7.89
7.71
8.19
9.11
10.31
11.75
13.40
15.27
17.23
18.99
20.23
20.64
20.16
19.05
17.75
16.69
16.05
15.64
15.09
14.02
12.35
10.37
8.55
7.27
6.59
6.13
5.34
3.83
1.60
-0.98
-3.38
-5.27
-6.68
-7.97
-9.62
-11.94
-14.93
-18.34
-21.85
-25.12
-27.91
-29.94
-30.84
-30.12
-27.43
-22.61
-15.99
-8.32
-0.64
6.00
10.86
13.61
14.41
13.81
12.45
10.92
9.59
8.57
7.83
7.33
7.15
7.49
8.52
10.20
12.22
14.07
15.22
15.40
14.67
13.39
11.96
10.66
9.54
8.43
7.14
5.55
3.67
1.71
-0.06
-1.41
-2.31
-2.90
-3.48
-4.33
-5.54
-6.96
-8.28
-9.26
-9.92
-10.62
-11.89
-14.12
-17.32
-20.93
-24.04
-25.71
-25.33
-22.80
-18.49
-13.08
-7.20
-1.37
4.09
8.97
12.98
15.81
17.10
16.74
14.92
12.25
9.53
7.48
6.53
6.65
7.53
8.76
9.96
10.99
11.84
12.54
13.11
13.48
13.54
13.18
12.36
11.11
9.50
7.68
5.86
4.21
2.88
1.86
1.05
0.32
-0.39
-1.12
-1.86
-2.66
-3.61
-4.80
-6.29
-7.97
-9.73
-11.49
-13.39
-15.67
-18.58
-22.08
-25.71
-28.70
-30.17
-29.50
-26.57
-21.73
-15.64
-9.03
-2.37
4.00
9.83
14.77
18.28
19.84
19.19
16.67
13.30
10.34
8.88
9.30
11.15
13.40
15.11
15.86
15.99
16.03
16.45
17.18
17.75
17.63
16.75
15.45
14.28
13.28
12.09
10.05
6.87
3.02
-0.33
-2.01
-1.56
0.18
1.62
1.26
-1.42
-5.52
-9.23
-11.00
-10.31
-8.39
-7.22
-8.49
-12.57
-18.29
-23.60
-26.76
-27.21
-26.03
-24.86
-24.78
-25.51
-25.43
-22.54
-15.77
-5.77
5.06
13.78
18.32
18.38
15.39
11.62
8.91
8.10
8.66
9.54
9.96
9.86
9.77
10.35
11.89
14.23
16.66
18.50
19.29
18.99
17.84
16.22
14.48
12.90
11.52
10.25
8.92
7.40
5.68
3.90
2.29
1.04
0.14
-0.60
-1.51
-2.88
-4.79
-7.09
-9.48
-11.64
-13.36
-14.66
-15.81
-17.20
-19.18
-21.83
-24.80
-27.30
-28.31
-26.96
-22.99
-16.84
-9.65
-2.74
2.84
6.67
8.98
10.32
11.13
11.54
11.37
10.43
8.82
7.03
5.77
5.60
6.68
8.65
10.86
12.68
13.79
14.32
14.63
15.07
15.72
16.27
16.25
15.27
13.32
10.79
8.33
6.48
5.44
4.99
4.65
4.02
2.97
1.67
0.44
-0.50
-1.24
-2.07
-3.31
-5.13
-7.44
-9.85
-11.94
-13.40
-14.26
-14.85
-15.77
-17.56
-20.49
-24.33
-28.35
-31.56
-32.94
-31.85
-28.19
-22.45
-15.40
-7.87
-0.58
5.97
11.39
15.33
17.56
18.02
16.95
14.96
12.80
11.10
10.23
10.14
10.60
11.30
12.13
13.12
14.38
15.89
17.42
18.60
19.07
18.64
17.42
15.83
14.31
13.24
12.66
12.32
11.82
10.88
9.49
7.96
6.57
5.47
4.52
3.36
1.75
-0.29
-2.45
-4.27
-5.56
-6.46
-7.36
-8.64
-10.39
-12.33
-14.01
-15.15
-15.98
-17.10
-19.17
-22.45
-26.48
-30.19
-32.28
-31.75
-28.47
-23.04
-16.54
-9.99
-3.99
1.32
6.01
10.09
13.19
14.78
14.55
12.64
9.80
7.11
5.56
5.66
7.20
9.43
11.51
12.88
13.47
13.65
13.87
14.45
15.31
16.12
16.54
16.33
15.52
14.24
12.69
11.02
9.28
7.44
5.49
3.50
1.54
-0.26
-1.80
-2.96
-3.74
-4.22
-4.57
-5.06
-5.92
-7.25
-8.95
-10.75
-12.37
-13.66
-14.77
-16.10
-18.14
-21.17
-24.98
-28.80
-31.49
-32.00
-29.72
-24.88
-18.32
-11.26
-4.74
0.71
5.05
8.49
11.18
13.02
13.72
13.09
11.34
9.11
7.24
6.43
6.88
8.23
9.84
11.09
11.74
11.97
12.17
12.65
13.40
14.08
14.27
13.65
12.29
10.60
9.05
7.98
7.34
6.79
5.95
4.61
2.91
1.30
0.22
-0.16
-0.07
-0.10
-0.80
-2.43
-4.79
-7.28
-9.30
-10.51
-11.06
-11.50
-12.44
-14.32
-17.16
-20.62
-24.16
-27.22
-29.32
-30.13
-29.36
-26.82
-22.41
-16.26
-8.84
-0.97
6.36
12.20
15.93
17.46
17.15
15.76
14.03
12.56
11.61
11.13
10.97
11.06
11.43
12.23
13.58
15.38
17.35
18.98
19.87
19.80
18.89
17.57
16.29
15.40
14.94
14.69
14.29
13.43
12.05
10.36
8.74
7.54
6.89
6.64
6.46
5.98
5.02
3.67
2.11
0.53
-1.05
-2.78
-4.90
-7.46
-10.31
-13.09
-15.46
-17.30
-18.88
-20.63
-22.87
-25.47
-27.73
-28.59
-27.08
-22.83
-16.31
-8.69
-1.46
4.21
7.82
9.65
10.36
10.59
10.58
10.16
9.00
7.06
4.73
2.81
2.04
2.75
4.63
6.94
8.89
10.07
10.60
10.97
11.63
12.68
13.76
14.24
13.58
11.61
8.68
5.52
2.87
1.18
0.40
0.03
-0.50
-1.61
-3.28
-5.13
-6.72
-7.83
-8.59
-9.40
-10.62
-12.45
-14.71
-17.09
-19.31
-21.28
-23.00
-24.46
-25.44
-25.49
-24.06
-20.82
-15.83
-9.66
-3.26
2.42
6.67
9.27
10.46
10.72
10.52
10.09
9.44
8.45
7.19
5.98
5.42
6.05
8.02
10.85
13.58
15.17
15.02
13.29
10.92
8.95
8.19
8.62
9.54
9.99
9.40
7.87
6.06
4.48
3.26
1.98
0.00
-2.88
-6.19
-8.93
-10.21
-10.01
-9.17
-8.94
-10.23
-12.99
-16.19
-18.62
-19.62
-19.75
-20.28
-22.33
-25.96
-29.80
-31.65
-29.73
-23.53
-14.68
-5.72
0.90
4.16
4.83
4.80
5.79
8.38
11.32
12.70
11.10
6.72
1.43
-2.16
-2.14
1.66
7.35
12.21
14.12
12.65
9.14
5.83
4.50
5.73
8.51
11.17
12.32
11.52
9.34
6.88
5.09
4.45
4.68
5.13
5.15
4.35
2.73
0.60
-1.60
-3.40
-4.63
-5.37
-5.99
-6.95
-8.63
-11.12
-14.21
-17.49
-20.56
-23.16
-25.22
-26.69
-27.36
-26.84
-24.62
-20.38
-14.26
-7.00
0.30
6.56
11.02
13.53
14.38
14.10
13.21
12.06
10.80
9.52
8.33
7.39
6.88
6.97
7.65
8.76
10.03
11.13
11.79
11.93
11.58
10.90
10.08
9.21
8.25
7.08
5.53
3.59
1.42
-0.59
-2.07
-2.85
-3.10
-3.24
-3.80
-5.09
-7.00
-9.09
-10.77
-11.72
-12.00
-12.07
-12.59
-14.07
-16.67
-20.10
-23.72
-26.68
-28.20
-27.70
-25.01
-20.39
-14.44
-7.93
-1.53
4.25
9.12
12.85
15.27
16.18
15.55
13.64
11.00
8.37
6.42
5.48
5.57
6.39
7.62
9.08
10.67
12.35
13.95
15.16
15.61
15.07
13.58
11.50
9.29
7.38
5.95
4.88
3.93
2.84
1.52
0.14
-1.06
-1.85
-2.24
-2.50
-2.98
-3.97
-5.53
-7.50
-9.70
-12.04
-14.64
-17.65
-21.03
-24.34
-26.80
-27.54
-26.00
-22.18
-16.65
-10.34
-4.16
1.28
5.74
9.31
12.03
13.90
14.76
14.48
13.18
11.33
9.63
8.80
9.06
10.14
11.42
12.27
12.44
12.18
12.05
12.56
13.63
14.73
15.12
14.29
12.26
9.59
7.05
5.24
4.22
3.56
2.66
1.05
-1.31
-3.98
-6.37
-7.96
-8.75
-9.13
-9.73
-11.01
-13.03
-15.46
-17.78
-19.59
-20.88
-21.96
-23.17
-24.54
-25.66
-25.78
-24.13
-20.28
-14.50
-7.62
-0.76
5.05
9.24
11.74
12.93
13.41
13.61
13.72
13.61
13.02
11.82
10.20
8.65
7.87
8.31
9.95
12.25
14.34
15.46
15.32
14.18
12.71
11.57
11.03
10.88
10.61
9.72
8.04
5.80
3.46
1.45
-0.02
-1.09
-2.07
-3.25
-4.78
-6.54
-8.23
-9.58
-10.51
-11.20
-12.12
-13.73
-16.29
-19.65
-23.11
-25.69
-26.39
-24.62
-20.39
-14.37
-7.59
-1.08
4.49
8.86
12.11
14.44
15.90
16.42
15.91
14.46
12.53
10.77
9.76
9.80
10.71
12.05
13.36
14.37
15.13
15.88
16.75
17.61
18.01
17.44
15.56
12.52
8.96
5.74
3.58
2.68
2.64
2.73
2.16
0.56
-1.85
-4.45
-6.59
-7.90
-8.50
-8.83
-9.43
-10.59
-12.28
-14.25
-16.27
-18.22
-20.21
-22.27
-24.18
-25.28
-24.63
-21.44
-15.51
-7.54
1.00
8.39
13.36
15.56
15.60
14.61
13.57
12.88
12.32
11.48
10.14
8.56
7.38
7.19
8.16
9.93
11.75
12.88
12.93
12.01
10.67
9.52
8.96
8.93
8.97
8.51
7.18
5.04
2.62
0.57
-0.65
-1.05
-1.07
-1.35
-2.31
-3.97
-5.96
-7.80
-9.16
-10.03
-10.70
-11.51
-12.69
-14.20
-15.75
-17.12
-18.24
-19.39
-20.97
-23.24
-25.98
-28.44
-29.49
-28.17
-24.06
-17.54
-9.66
-1.66
5.40
10.94
14.87
17.36
18.56
18.56
17.41
15.31
12.72
10.34
8.90
8.81
10.08
12.26
14.67
16.72
18.07
18.68
18.76
18.51
18.02
17.23
16.09
14.60
12.91
11.25
9.86
8.82
8.05
7.36
6.57
5.58
4.46
3.38
2.49
1.81
1.16
0.24
-1.21
-3.25
-5.62
-7.90
-9.63
-10.67
-11.30
-12.15
-13.95
-17.15
-21.59
-26.31
-30.10
-31.66
-30.32
-26.27
-20.35
-13.62
-7.03
-1.08
3.84
7.41
9.30
9.29
7.65
5.24
3.20
2.47
3.08
4.33
5.18
5.06
4.32
4.03
5.30
8.44
12.46
15.73
16.81
15.35
12.28
9.31
7.82
8.29
9.61
10.17
8.69
5.07
0.52
-3.10
-4.35
-3.01
-0.54
0.98
-0.10
-3.97
-9.17
-13.33
-14.60
-12.64
-9.18
-6.87
-7.84
-12.53
-19.42
-25.92
-29.82
-30.32
-28.40
-25.83
-23.96
-22.81
-21.20
-17.56
-11.11
-2.33
6.94
14.56
19.02
19.99
18.34
15.47
12.69
10.83
9.92
9.65
9.62
9.64
9.78
10.24
11.14
12.47
13.86
14.87
15.10
14.44
13.08
11.48
10.09
9.19
8.78
8.58
8.19
7.33
5.85
3.89
1.75
-0.14
-1.49
-2.22
-2.56
-2.95
-3.81
-5.37
-7.47
-9.70
-11.61
-12.95
-13.86
-14.75
-16.14
-18.35
-21.32
-24.57
-27.37
-28.92
-28.67
-26.41
-22.30
-16.78
-10.41
-3.79
2.47
7.84
11.86
14.27
15.02
14.38
12.81
10.91
9.22
8.15
7.88
8.38
9.49
10.95
12.43
13.70
14.58
15.03
15.09
14.82
14.27
13.45
12.36
11.02
9.50
7.85
6.09
4.22
2.24
0.22
-1.65
-3.12
-4.00
-4.24
-4.06
-3.82
-3.98
-4.80
-6.34
-8.36
-10.49
-12.40
-13.97
-15.36
-16.90
-18.91
-21.50
-24.42
-27.14
-28.96
-29.28
-27.74
-24.33
-19.41
-13.57
-7.40
-1.49
3.79
8.16
11.42
13.39
14.02
13.41
11.94
10.10
8.44
7.35
6.97
7.25
8.04
9.20
10.68
12.39
14.15
15.66
16.61
16.77
16.18
15.08
13.80
12.57
11.38
10.11
8.58
6.77
4.87
3.14
1.91
1.16
0.70
0.14
-0.85
-2.40
-4.30
-6.14
-7.53
-8.46
-9.29
-10.63
-13.00
-16.50
-20.60
-24.33
-26.57
-26.69
-24.65
-20.98
-16.41
-11.50
-6.49
-1.43
3.55
7.95
11.03
12.20
11.32
8.97
6.19
4.04
3.14
3.34
4.02
4.52
4.55
4.38
4.59
5.65
7.64
10.06
12.13
13.19
12.92
11.49
9.33
6.94
4.76
2.96
1.57
0.52
-0.35
-1.20
-2.15
-3.23
-4.32
-5.33
-6.18
-6.96
-7.84
-9.02
-10.64
-12.73
-15.21
-18.01
-21.09
-24.32
-27.45
-29.91
-30.97
-29.85
-26.07
-19.73
-11.62
-3.08
4.40
9.67
12.26
12.53
11.40
9.90
8.75
8.14
7.84
7.55
7.13
6.80
6.95
7.85
9.43
11.25
12.72
13.40
13.22
12.44
11.57
10.95
10.66
10.45
9.88
8.61
6.55
4.00
1.51
-0.39
-1.43
-1.78
-1.98
-2.64
-4.13
-6.37
-8.81
-10.82
-11.96
-12.33
-12.54
-13.33
-15.26
-18.34
-22.00
-25.32
-27.42
-27.68
-25.91
-22.26
-17.09
-10.90
-4.23
2.31
8.09
12.57
15.38
16.41
15.88
14.22
12.06
10.06
8.75
8.43
9.03
10.28
11.70
12.93
13.82
14.45
14.96
15.42
15.67
15.50
14.74
13.46
11.97
10.59
9.47
8.53
7.46
6.00
4.12
2.08
0.30
-0.88
-1.40
-1.51
-1.65
-2.25
-3.48
-5.24
-7.19
-8.97
-10.35
-11.39
-12.41
-13.82
-15.96
-18.84
-22.08
-25.02
-26.88
-27.06
-25.30
-21.68
-16.58
-10.51
-4.00
2.40
8.12
12.68
15.71
17.11
17.00
15.85
14.25
12.79
11.88
11.63
11.95
12.56
13.22
13.79
14.27
14.79
15.43
16.15
16.71
16.81
16.18
14.80
12.88
10.79
8.86
7.26
5.94
4.72
3.35
1.76
0.02
-1.59
-2.85
-3.68
-4.26
-4.95
-6.07
-7.78
-9.92
-12.24
-14.55
-16.89
-19.43
-22.30
-25.21
-27.41
-27.90
-25.89
-21.25
-14.65
-7.32
-0.50
4.93
8.78
11.35
13.12
14.38
15.08
14.95
13.80
11.81
9.54
7.82
7.28
8.09
9.86
11.80
13.22
13.82
13.81
13.66
13.74
14.00
14.00
13.22
11.35
8.64
5.68
3.15
1.43
0.39
-0.45
-1.60
-3.27
-5.25
-7.02
-8.24
-8.87
-9.30
-10.12
-11.73
-14.11
-16.87
-19.61
-22.16
-24.71
-27.54
-30.52
-33.01
-33.86
-32.01
-26.91
-19.09
-9.75
-0.50
7.23
12.65
15.68
16.75
16.47
15.12
12.80
9.60
5.84
2.40
0.46
0.94
4.07
8.73
13.13
15.54
15.24
12.91
10.30
9.11
9.96
11.83
12.87
11.44
7.28
1.75
-2.92
-4.91
-3.83
-1.14
0.84
0.25
-3.24
-8.31
-12.79
-14.97
-14.43
-12.27
-10.27
-9.82
-11.29
-14.03
-17.00
-19.45
-21.19
-22.61
-24.07
-25.47
-26.17
-25.24
-22.00
-16.40
-9.02
-1.03
6.31
12.06
15.71
17.29
17.19
15.93
14.09
12.19
10.62
9.66
9.45
9.95
11.00
12.40
13.97
15.57
17.08
18.36
19.23
19.49
18.98
17.69
15.78
13.59
11.48
9.70
8.31
7.14
5.94
4.47
2.73
0.92
-0.64
-1.71
-2.31
-2.72
-3.36
-4.55
-6.29
-8.29
-10.12
-11.49
-12.42
-13.28
-14.58
-16.74
-19.82
-23.50
-27.10
-29.85
-31.01
-30.13
-27.10
-22.17
-15.82
-8.72
-1.52
5.15
10.76
14.89
17.26
17.79
16.71
14.54
12.05
10.01
8.92
8.89
9.68
10.92
12.34
13.85
15.45
17.06
18.44
19.20
19.07
18.04
16.47
14.89
13.67
12.89
12.23
11.24
9.64
7.45
5.09
3.10
1.88
1.44
1.40
1.14
0.17
-1.70
-4.21
-6.83
-9.03
-10.56
-11.59
-12.59
-14.11
-16.51
-19.75
-23.47
-27.13
-30.12
-31.88
-31.97
-30.04
-26.00
-19.99
-12.55
-4.51
3.11
9.38
13.60
15.57
15.56
14.24
12.43
10.82
9.84
9.50
9.58
9.85
10.21
10.81
11.76
13.08
14.51
15.65
16.14
15.91
15.12
14.14
13.16
12.18
10.96
9.32
7.30
5.25
3.65
2.82
2.64
2.65
2.23
1.00
-0.97
-3.14
-4.92
-5.90
-6.34
-6.85
-8.10
-10.37
-13.29
-16.04
-17.89
-18.54
-18.55
-18.92
-20.62
-23.96
-28.40
-32.66
-35.28
-35.09
-31.71
-25.56
-17.62
-9.13
-1.24
5.28
10.09
13.29
15.15
15.98
15.99
15.26
13.92
12.18
10.47
9.33
9.16
10.03
11.63
13.40
14.77
15.45
15.49
15.24
15.10
15.21
15.38
15.17
14.19
12.33
9.86
7.34
5.33
4.12
3.61
3.41
3.08
2.32
1.14
-0.21
-1.46
-2.39
-3.00
-3.43
-3.89
-4.55
-5.48
-6.60
-7.79
-9.00
-10.33
-12.01
-14.28
-17.17
-20.36
-23.11
-24.50
-23.80
-20.74
-15.70
-9.50
-3.16
2.62
7.56
11.74
15.27
18.05
19.70
19.79
18.17
15.26
12.01
9.53
8.65
9.58
11.78
14.34
16.34
17.24
17.12
16.39
15.56
14.87
14.18
13.16
11.48
9.14
6.50
4.11
2.42
1.47
0.90
0.18
-1.10
-2.97
-5.04
-6.78
-7.87
-8.34
-8.62
-9.22
-10.46
-12.34
-14.53
-16.70
-18.78
-20.95
-23.52
-26.53
-29.55
-31.68
-31.86
-29.34
-24.07
-16.76
-8.70
-1.25
4.58
8.41
10.47
11.34
11.58
11.48
11.01
10.05
8.62
7.04
5.92
5.86
7.10
9.35
11.90
13.92
14.90
14.86
14.26
13.73
13.62
13.84
13.91
13.24
11.49
8.81
5.76
3.05
1.23
0.44
0.40
0.63
0.64
0.14
-0.81
-2.02
-3.23
-4.30
-5.24
-6.20
-7.33
-8.73
-10.33
-12.03
-13.80
-15.70
-17.86
-20.30
-22.76
-24.54
-24.68
-22.40
-17.46
-10.46
-2.69
4.32
9.35
11.90
12.26
11.21
9.57
7.90
6.33
4.78
3.14
1.54
0.38
0.15
1.15
3.31
6.10
8.80
10.77
11.74
11.95
11.87
11.97
12.34
12.69
12.53
11.48
9.61
7.36
5.35
4.02
3.35
2.95
2.23
0.82
-1.32
-3.84
-6.27
-8.24
-9.66
-10.74
-11.80
-13.17
-15.02
-17.38
-20.18
-23.33
-26.69
-30.09
-33.17
-35.40
-36.06
-34.54
-30.55
-24.32
-16.64
-8.61
-1.23
4.85
9.59
13.32
16.40
18.91
20.55
20.88
19.66
17.20
14.43
12.34
11.68
12.50
14.16
15.81
16.85
17.20
17.22
17.04
16.53
15.18
12.51
8.61
4.26
0.58
-1.52
-2.12
-2.10
-2.67
-4.60
-7.60
-10.50
-12.05
-11.61
-9.89
-8.34
-8.38
-10.48
-13.82
-16.81
-18.17
-17.63
-16.59
-16.87
-19.64
-24.44
-29.11
-30.82
-27.65
-19.62
-8.97
1.08
7.87
10.56
10.23
8.99
8.64
9.84
11.80
13.19
13.08
11.48
9.36
7.97
8.12
9.94
12.69
15.33
17.05
17.50
16.87
15.68
14.44
13.55
12.96
12.39
11.41
9.74
7.34
4.53
1.81
-0.35
-1.73
-2.44
-2.87
-3.52
-4.74
-6.60
-8.83
-11.00
-12.74
-13.98
-14.97
-16.28
-18.43
-21.62
-25.52
-29.27
-31.71
-31.81
-29.10
-23.79
-16.71
-9.01
-1.77
4.33
9.03
12.38
14.50
15.45
15.19
13.75
11.42
8.82
6.71
5.80
6.34
8.14
10.58
12.97
14.84
16.08
16.89
17.51
18.06
18.39
18.21
17.29
15.58
13.29
10.83
8.58
6.82
5.58
4.70
3.90
2.97
1.84
0.55
-0.75
-1.96
-3.14
-4.43
-6.00
-7.90
-10.04
-12.26
-14.40
-16.48
-18.67
-21.22
-24.24
-27.51
-30.38
-31.96
-31.37
-28.13
-22.39
-14.97
-7.02
0.27
6.19
10.47
13.24
14.75
15.21
14.79
13.71
12.45
11.65
11.89
13.39
15.92
18.88
21.53
23.41
24.39
24.73
24.82
24.95
25.12
25.05
24.30
22.48
19.55
15.87
12.05
8.77
6.36
4.70
3.29
1.61
-0.65
-3.32
-6.04
-8.39
-10.19
-11.56
-12.69
-13.67
-14.43
-14.88
-15.17
-15.73
-17.11
-19.54
-22.63
-25.32
-26.26
-24.43
-19.77
-13.12
-5.90
0.56
5.56
9.11
11.61
13.45
14.52
14.50
13.11
10.57
7.64
5.40
4.68
5.74
8.01
10.48
12.23
12.88
12.69
12.38
12.61
13.62
14.90
15.56
14.79
12.36
8.79
5.11
2.32
1.05
1.13
1.94
2.64
2.66
1.83
0.34
-1.47
-3.23
-4.77
-6.09
-7.26
-8.41
-9.66
-11.14
-12.96
-15.08
-17.50
-20.16
-22.97
-25.77
-28.24
-29.84
-29.90
-27.77
-23.13
-16.27
-8.12
-0.05
6.65
11.13
13.32
13.80
13.45
13.00
12.71
12.47
12.02
11.22
10.28
9.68
9.90
11.17
13.25
15.53
17.31
18.08
17.78
16.75
15.46
14.31
13.31
12.20
10.66
8.55
6.08
3.77
2.10
1.27
1.10
1.05
0.65
-0.37
-1.84
-3.32
-4.37
-4.83
-4.93
-5.18
-6.04
-7.68
-9.84
-11.97
-13.57
-14.46
-14.88
-15.36
-16.48
-18.61
-21.68
-25.21
-28.46
-30.60
-30.95
-29.14
-25.16
-19.39
-12.43
-5.01
2.21
8.63
13.79
17.29
18.90
18.64
16.88
14.35
11.90
10.23
9.67
10.06
10.96
11.92
12.68
13.31
14.02
14.95
16.04
16.96
17.36
16.97
15.81
14.17
12.39
10.74
9.26
7.75
5.96
3.82
1.47
-0.68
-2.24
-3.08
-3.46
-3.94
-5.05
-7.01
-9.58
-12.15
-14.11
-15.18
-15.49
-15.58
-16.08
-17.48
-19.87
-22.97
-26.18
-28.82
-30.19
-29.81
-27.48
-23.33
-17.73
-11.19
-4.25
2.52
8.56
13.34
16.39
17.52
16.89
15.02
12.65
10.45
8.81
7.78
7.25
7.08
7.31
8.11
9.64
11.77
14.10
16.02
17.01
16.82
15.60
13.80
11.93
10.28
8.92
7.67
6.36
4.93
3.51
2.29
1.38
0.63
-0.22
-1.48
-3.25
-5.38
-7.51
-9.26
-10.41
-11.04
-11.56
-12.51
-14.35
-17.20
-20.69
-24.00
-26.20
-26.45
-24.41
-20.27
-14.67
-8.38
-2.11
3.63
8.52
12.29
14.71
15.62
15.07
13.39
11.15
8.94
7.19
6.14
5.72
5.83
6.38
7.37
8.89
10.91
13.25
15.49
17.08
17.50
16.53
14.38
11.65
9.18
7.56
6.92
6.80
6.46
5.25
3.02
0.30
-2.21
-3.85
-4.53
-4.75
-5.23
-6.37
-8.03
-9.65
-10.94
-12.08
-13.77
-16.79
-21.25
-26.24
-30.21
-31.59
-29.88
-25.64
-20.20
-14.79
-9.87
-4.99
0.46
6.63
12.49
16.55
17.54
15.38
11.30
7.31
5.06
5.17
6.66
7.99
7.96
6.52
4.81
4.44
6.40
10.48
14.90
17.57
17.04
13.38
8.14
3.60
1.46
2.11
4.13
5.39
4.20
0.31
-4.93
-9.38
-11.34
-10.32
-7.47
-4.65
-3.46
-4.45
-6.97
-9.82
-12.00
-13.20
-13.98
-15.16
-17.20
-19.88
-22.27
-23.19
-21.72
-17.56
-11.35
-4.22
2.51
7.92
11.65
13.87
15.02
15.51
15.46
14.78
13.28
10.93
8.01
5.06
2.77
1.75
2.25
4.07
6.52
8.77
10.07
10.11
9.06
7.47
5.92
4.73
3.89
3.11
2.10
0.72
-0.91
-2.48
-3.74
-4.57
-5.08
-5.53
-6.14
-7.05
-8.21
-9.39
-10.40
-11.19
-11.98
-13.21
-15.29
-18.28
-21.63
-24.26
-24.96
-22.86
-17.94
-10.99
-3.38
3.57
8.98
12.68
14.96
16.24
16.71
16.31
14.92
12.60
9.78
7.14
5.35
4.84
5.59
7.21
9.12
10.80
11.90
12.39
12.42
12.19
11.77
11.10
10.00
8.38
6.30
4.06
2.07
0.57
-0.45
-1.35
-2.56
-4.34
-6.58
-8.81
-10.48
-11.29
-11.38
-11.31
-11.79
-13.34
-16.07
-19.55
-23.01
-25.55
-26.48
-25.45
-22.56
-18.15
-12.76
-6.86
-0.91
4.68
9.53
13.23
15.48
16.23
15.67
14.26
12.45
10.63
8.99
7.58
6.48
5.87
5.98
6.94
8.63
10.61
12.28
13.12
12.90
11.79
10.20
8.62
7.39
6.57
5.95
5.23
4.16
2.69
0.93
-0.79
-2.29
-3.44
-4.28
-4.98
-5.69
-6.44
-7.21
-7.90
-8.71
-9.95
-12.01
-15.07
-18.81
-22.39
-24.76
-24.95
-22.68
-18.30
-12.62
-6.61
-0.92
4.19
8.68
12.49
15.30
16.65
16.20
14.07
10.90
7.69
5.34
4.43
4.83
5.97
7.20
8.07
8.54
8.86
9.31
10.07
10.92
11.50
11.41
10.45
8.68
6.41
4.05
2.04
0.56
-0.39
-1.08
-1.86
-2.98
-4.48
-6.13
-7.54
-8.41
-8.68
-8.69
-8.94
-9.98
-12.03
-14.98
-18.32
-21.38
-23.51
-24.22
-23.27
-20.66
-16.62
-11.51
-5.72
0.29
6.09
11.19
15.07
17.28
17.58
16.09
13.40
10.32
7.64
5.82
4.89
4.57
4.53
4.63
5.06
6.12
7.95
10.30
12.56
14.02
14.19
13.05
11.07
8.93
7.15
5.88
4.87
3.66
1.91
-0.40
-2.88
-5.03
-6.49
-7.23
-7.61
-8.16
-9.33
-11.29
-13.82
-16.48
-18.85
-20.72
-22.12
-23.12
-23.61
-23.21
-21.27
-17.31
-11.29
-3.89
3.66
10.01
14.17
15.87
15.58
14.11
12.22
10.34
8.49
6.57
4.66
3.13
2.58
3.41
5.62
8.68
11.69
13.82
14.62
14.19
13.01
11.69
10.57
9.71
8.80
7.56
5.83
3.71
1.53
-0.38
-1.81
-2.78
-3.49
-4.18
-5.06
-6.20
-7.43
-8.55
-9.38
-9.97
-10.64
-11.85
-13.94
-16.89
-20.07
-22.51
-23.14
-21.35
-17.19
-11.40
-5.05
0.88
5.83
9.63
12.36
14.06
14.60
13.84
11.78
8.82
5.70
3.28
2.16
2.47
3.86
5.68
7.37
8.66
9.63
10.50
11.38
12.16
12.52
12.15
10.91
8.98
6.79
4.82
3.42
2.60
2.09
1.45
0.32
-1.37
-3.34
-5.12
-6.31
-6.79
-6.85
-7.02
-7.83
-9.53
-11.98
-14.80
-17.50
-19.67
-21.02
-21.32
-20.35
-17.92
-13.97
-8.67
-2.53
3.74
9.28
13.37
15.61
16.01
14.93
12.93
10.56
8.20
6.06
4.23
2.84
2.14
2.33
3.53
5.46
7.61
9.33
10.15
9.96
9.05
7.94
7.06
6.55
6.18
5.50
4.13
1.97
-0.60
-3.03
-4.78
-5.67
-5.95
-6.13
-6.64
-7.60
-8.67
-9.48
-9.86
-10.13
-10.95
-12.86
-15.84
-19.10
-21.27
-21.29
-18.75
-14.15
-8.66
-3.41
1.05
4.77
8.08
10.85
12.52
12.30
9.84
5.72
1.41
-1.42
-1.73
0.08
2.63
4.32
4.33
3.14
2.19
2.88
5.66
9.43
12.22
12.31
9.23
4.13
-0.80
-3.60
-3.43
-1.43
0.36
0.14
-2.53
-6.45
-9.50
-10.03
-7.87
-4.78
-3.28
-5.27
-10.86
-18.21
-24.52
-27.41
-26.00
-21.34
-15.38
-9.94
-5.70
-2.20
1.59
6.30
11.76
16.83
20.17
20.95
19.26
15.99
12.38
9.41
7.57
6.74
6.58
6.74
7.08
7.59
8.28
9.11
10.03
10.93
11.68
12.14
12.14
11.51
10.20
8.39
6.52
5.10
4.49
4.69
5.33
5.80
5.63
4.66
3.18
1.76
0.94
0.90
1.35
1.63
1.05
-0.78
-3.73
-7.14
-10.09
-11.75
-11.65
-9.80
-6.64
-2.80
1.17
4.88
8.14
10.84
12.84
13.95
13.96
12.85
10.89
8.65
6.88
6.23
7.07
9.35
12.67
16.51
20.44
24.21
27.70
30.82
33.37
35.10
35.79
35.48
34.49
33.37
32.64
32.49
32.74
32.90
32.50
31.37
29.85
28.60
28.28
29.15
30.90
32.70
33.59
32.99
30.99
28.32
25.98
24.83
25.20
26.94
29.56
32.51
35.33
37.68
39.21
39.48
38.02
34.50
28.89
21.54
13.09
4.25
-4.37
-12.35
-19.47
-25.55
-30.46
-34.07
-36.37
-37.52
-37.96
-38.29
-39.07
-40.67
-43.07
-45.89
-48.56
-50.61
-51.93
-52.86
-54.09
-56.28
-59.71
-64.07
-68.50
-72.06
-74.10
-74.67
-74.41
-74.22
-74.80
-76.33
-78.38
-80.29
-81.40
-81.19
-79.36
-75.63
-69.76
-61.68
-51.65
-40.56
-29.61
-20.03
-12.61
-7.44
-4.03
-1.65
0.30
1.92
3.01
3.41
3.23
3.04
3.54
5.31
8.37
12.06
15.42
17.55
18.15
17.59
16.68
16.16
16.32
16.68
16.43
14.90
12.07
8.62
5.61
3.86
3.58
4.15
4.57
4.04
2.35
-0.07
-2.50
-4.38
-5.44
-5.99
-6.60
-7.87
-10.23
-13.81
-18.39
-23.36
-27.76
-30.54
-30.88
-28.47
-23.67
-17.37
-10.64
-4.41
0.86
4.99
7.97
9.68
9.91
8.50
5.63
1.92
-1.61
-3.94
-4.49
-3.32
-1.10
1.23
2.89
3.60
3.63
3.56
3.90
4.83
6.08
7.22
7.86
7.99
7.92
8.08
8.71
9.73
10.78
11.51
11.82
11.89
12.05
12.47
13.02
13.32
12.91
11.64
9.70
7.52
5.60
4.19
3.21
2.29
0.89
-1.37
-4.59
-8.45
-12.21
-14.89
-15.61
-13.83
-9.64
-3.54
3.54
10.70
17.26
22.79
27.06
29.90
31.14
30.66
28.49
24.96
20.73
16.66
13.54
11.87
11.65
12.48
13.71
14.79
15.46
15.80
16.01
16.26
16.45
16.35
15.62
14.09
11.92
9.50
7.33
5.80
4.96
4.53
4.03
3.00
1.30
-0.84
-2.96
-4.61
-5.66
-6.28
-6.88
-7.78
-9.02
-10.43
-11.77
-12.98
-14.25
-15.76
-17.45
-18.80
-18.96
-17.14
-13.05
-7.17
-0.58
5.46
10.06
12.95
14.49
15.21
15.50
15.41
14.72
13.31
11.36
9.43
8.22
8.19
9.36
11.20
13.00
14.10
14.26
13.70
12.93
12.49
12.60
13.11
13.50
13.17
11.77
9.37
6.51
3.88
2.03
1.09
0.67
0.18
-0.88
-2.55
-4.44
-5.91
-6.51
-6.23
-5.61
-5.38
-6.12
-7.87
-10.21
-12.51
-14.31
-15.48
-16.14
-16.43
-16.21
-15.05
-12.45
-8.20
-2.66
3.34
8.74
12.70
14.83
15.35
14.80
13.82
12.78
11.76
10.64
9.30
7.82
6.47
5.65
5.60
6.28
7.39
8.49
9.24
9.52
9.45
9.21
8.91
8.49
7.77
6.55
4.79
2.64
0.44
-1.41
-2.66
-3.32
-3.65
-4.03
-4.72
-5.74
-6.87
-7.89
-8.76
-9.75
-11.30
-13.65
-16.63
-19.51
-21.37
-21.51
-19.80
-16.66
-12.77
-8.66
-4.51
-0.18
4.47
9.25
13.62
16.77
18.06
17.18
14.39
10.46
6.51
3.55
2.32
2.94
4.90
7.39
9.61
11.16
12.07
12.27
11.68
10.02
7.15
3.50
0.05
-2.11
-2.35
-1.29
-0.32
-0.91
-3.63
-7.74
-11.50
-13.33
-12.73
-10.78
-9.35
-10.07
-13.30
-17.90
-21.90
-23.63
-22.52
-19.60
-16.47
-14.33
-13.18
-11.80
-8.60
-2.78
5.04
12.77
17.95
19.08
16.35
11.45
6.72
3.87
3.45
4.63
6.13
6.95
6.94
6.60
6.66
7.51
9.11
10.86
12.12
12.42
11.64
9.97
7.75
5.38
3.24
1.53
0.27
-0.73
-1.83
-3.30
-5.16
-7.12
-8.64
-9.24
-8.82
-7.78
-6.90
-6.99
-8.44
-11.10
-14.23
-16.83
-18.06
-17.44
-14.99
-11.08
-6.25
-1.04
4.09
8.76
12.61
15.35
16.74
16.74
15.54
13.57
11.41
9.61
8.54
8.33
8.84
9.75
10.76
11.65
12.43
13.18
13.99
14.79
15.35
15.33
14.47
12.73
10.30
7.52
4.66
1.82
-1.08
-4.13
-7.28
-10.27
-12.70
-14.24
-14.82
-14.73
-14.50
-14.71
-15.74
-17.62
-19.96
-22.09
-23.27
-22.94
-20.90
-17.35
-12.83
-7.97
-3.34
0.74
4.09
6.67
8.36
8.97
8.38
6.65
4.25
1.88
0.22
-0.29
0.35
1.81
3.59
5.31
6.79
7.98
8.82
9.26
9.17
8.48
7.17
5.37
3.32
1.22
-0.77
-2.57
-4.25
-5.87
-7.50
-9.03
-10.29
-11.12
-11.52
-11.79
-12.50
-14.19
-17.06
-20.70
-24.12
-26.13
-25.77
-22.75
-17.53
-11.07
-4.40
1.68
6.82
10.86
13.72
15.22
15.16
13.59
10.93
7.98
5.66
4.52
4.64
5.63
6.94
8.19
9.35
10.58
12.04
13.49
14.50
14.58
13.55
11.71
9.71
8.15
7.35
6.96
6.34
4.88
2.33
-0.93
-4.15
-6.55
-7.75
-8.09
-8.40
-9.59
-12.20
-16.00
-20.08
-23.25
-24.53
-23.67
-21.11
-17.59
-13.74
-9.74
-5.49
-0.80
4.22
9.04
12.92
15.26
15.86
15.02
13.33
11.47
10.00
9.16
8.95
9.24
9.85
10.66
11.57
12.55
13.58
14.51
15.10
15.07
14.16
12.36
9.89
7.19
4.75
2.92
1.79
1.10
0.42
-0.69
-2.37
-4.43
-6.31
-7.46
-7.63
-7.03
-6.35
-6.33
-7.50
-9.86
-12.92
-15.94
-18.21
-19.32
-19.12
-17.67
-15.05
-11.33
-6.64
-1.31
4.12
8.97
12.55
14.43
14.51
13.10
10.80
8.27
6.09
4.55
3.73
3.53
3.82
4.56
5.80
7.56
9.74
12.06
14.07
15.35
15.65
15.02
13.84
12.57
11.59
11.03
10.73
10.37
9.63
8.39
6.77
5.02
3.36
1.90
0.51
-1.01
-2.86
-5.11
-7.59
-10.08
-12.44
-14.75
-17.28
-20.26
-23.61
-26.77
-28.70
-28.35
-25.16
-19.40
-12.22
-5.19
0.37
3.81
5.37
5.80
5.82
5.73
5.30
4.15
2.10
-0.44
-2.57
-3.31
-2.14
0.69
4.22
7.32
9.17
9.64
9.27
8.80
8.75
9.11
9.38
8.97
7.55
5.32
2.87
0.85
-0.39
-0.98
-1.44
-2.33
-3.94
-6.11
-8.32
-10.05
-11.05
-11.56
-12.18
-13.57
-16.12
-19.64
-23.37
-26.28
-27.36
-26.02
-22.24
-16.54
-9.79
-2.92
3.36
8.57
12.54
15.25
16.73
17.06
16.33
14.81
12.88
11.05
9.72
9.13
9.24
9.81
10.59
11.38
12.20
13.06
13.92
14.57
14.68
13.93
12.26
9.92
7.41
5.28
3.84
3.03
2.47
1.65
0.21
-1.85
-4.17
-6.26
-7.71
-8.46
-8.79
-9.16
-9.98
-11.48
-13.62
-16.27
-19.24
-22.33
-25.25
-27.50
-28.37
-27.13
-23.36
-17.25
-9.66
-1.87
4.87
9.74
12.59
13.80
13.94
13.45
12.50
11.15
9.51
7.90
6.83
6.76
7.88
9.94
12.36
14.39
15.44
15.30
14.16
12.61
11.34
10.81
11.02
11.50
11.52
10.48
8.23
5.31
2.50
0.59
-0.15
-0.11
0.01
-0.37
-1.37
-2.68
-4.09
-5.65
-7.81
-11.05
-15.31
-19.73
-22.94
-23.67
-21.68
-17.73
-13.18
-9.17
-5.91
-2.73
1.29
6.45
11.84
15.84
17.04
15.12
11.23
7.40
5.47
6.20
8.59
10.91
11.65
10.55
8.73
7.96
9.42
12.97
16.73
18.46
16.73
11.83
5.72
0.94
-0.82
0.47
2.96
4.23
2.63
-1.78
-7.41
-12.08
-14.26
-13.71
-11.60
-9.65
-9.23
-10.80
-13.81
-17.11
-19.59
-20.36
-19.25
-16.42
-12.32
-7.47
-2.36
2.59
7.03
10.81
13.69
15.51
16.09
15.33
13.31
10.43
7.33
4.79
3.46
3.57
4.84
6.56
7.93
8.44
8.06
7.22
6.53
6.37
6.70
7.09
6.94
5.83
3.69
0.94
-1.73
-3.68
-4.62
-4.73
-4.55
-4.75
-5.80
-7.79
-10.46
-13.32
-15.90
-17.82
-18.82
-18.70
-17.31
-14.56
-10.51
-5.47
0.02
5.22
9.39
12.03
12.91
12.28
10.68
8.71
6.89
5.41
4.21
3.11
2.04
1.19
0.83
1.15
2.12
3.38
4.44
4.89
4.54
3.60
2.40
1.25
0.28
-0.70
-2.02
-3.96
-6.50
-9.29
-11.77
-13.47
-14.29
-14.60
-15.03
-16.10
-17.90
-19.90
-21.21
-21.00
-18.86
-14.97
-9.97
-4.64
0.39
4.84
8.59
11.59
13.69
14.69
14.42
12.94
10.63
8.14
6.16
5.17
5.27
6.22
7.55
8.81
9.76
10.45
11.03
11.62
12.10
12.14
11.34
9.52
6.82
3.76
0.80
-1.74
-3.87
-5.85
-7.87
-9.91
-11.75
-13.16
-14.14
-14.99
-16.07
-17.42
-18.59
-18.70
-16.87
-12.67
-6.52
0.50
7.02
11.94
14.73
15.51
14.79
13.20
11.03
8.41
5.43
2.31
-0.50
-2.40
-2.93
-1.94
0.13
2.47
4.23
4.83
4.23
2.87
1.34
0.10
-0.91
-2.12
-4.04
-6.84
-10.14
-13.10
-14.88
-15.11
-14.25
-13.37
-13.62
-15.57
-18.90
-22.50
-24.99
-25.25
-22.97
-18.60
-13.03
-7.25
-1.98
2.43
5.96
8.78
11.00
12.64
13.56
13.57
12.58
10.75
8.56
6.77
6.02
6.65
8.49
10.91
13.14
14.55
14.96
14.66
14.15
13.87
13.86
13.78
13.08
11.32
8.50
5.12
1.93
-0.40
-1.69
-2.26
-2.72
-3.63
-5.20
-7.17
-9.14
-10.79
-12.12
-13.35
-14.61
-15.74
-16.25
-15.45
-12.84
-8.44
-2.80
3.09
8.20
11.76
13.48
13.60
12.61
11.12
9.55
8.15
7.05
6.30
6.05
6.50
7.78
9.81
12.28
14.61
16.25
16.80
16.24
14.95
13.49
12.31
11.54
10.85
9.73
7.78
4.98
1.84
-0.89
-2.59
-3.19
-3.23
-3.54
-4.83
-7.25
-10.33
-13.32
-15.57
-16.81
-17.20
-16.97
-16.17
-14.57
-11.80
-7.63
-2.30
3.47
8.69
12.44
14.18
13.92
12.20
9.72
7.16
4.92
3.10
1.66
0.58
-0.01
0.12
1.11
2.89
5.02
6.90
8.05
8.24
7.58
6.37
4.86
3.12
1.11
-1.21
-3.77
-6.32
-8.55
-10.24
-11.31
-11.93
-12.47
-13.36
-14.93
-17.28
-20.17
-22.95
-24.81
-25.00
-23.13
-19.39
-14.41
-9.09
-4.13
0.10
3.61
6.48
8.72
10.05
10.14
8.82
6.35
3.52
1.25
0.27
0.71
2.14
3.76
4.91
5.37
5.40
5.49
5.95
6.71
7.30
7.20
6.13
4.24
2.08
0.16
-1.21
-2.07
-2.76
-3.60
-4.72
-5.99
-7.17
-8.05
-8.69
-9.36
-10.48
-12.31
-14.79
-17.41
-19.26
-19.40
-17.17
-12.59
-6.35
0.35
6.23
10.43
12.70
13.32
12.88
11.89
10.64
9.17
7.52
5.82
4.36
3.44
3.28
3.82
4.84
6.03
7.11
7.98
8.64
9.12
9.42
9.35
8.69
7.24
5.01
2.28
-0.42
-2.64
-4.21
-5.29
-6.35
-7.83
-9.85
-12.01
-13.73
-14.54
-14.50
-14.30
-14.82
-16.61
-19.43
-22.22
-23.82
-23.38
-20.85
-16.86
-12.24
-7.45
-2.54
2.65
7.78
12.01
14.24
13.77
10.88
6.93
3.68
2.40
3.12
4.84
6.21
6.41
5.68
5.13
5.91
8.52
12.02
14.83
15.50
13.58
9.97
6.33
4.07
3.66
4.00
3.43
0.73
-4.00
-9.24
-12.78
-13.12
-10.24
-6.11
-3.39
-4.18
-8.79
-15.60
-21.84
-25.04
-24.08
-19.79
-14.10
-8.87
-4.90
-1.66
2.01
6.92
12.98
18.90
23.12
24.56
23.20
20.04
16.53
13.88
12.74
12.90
13.82
14.83
15.51
15.72
15.57
15.22
14.92
14.64
14.19
13.31
11.74
9.47
6.73
3.89
1.34
-0.69
-2.18
-3.33
-4.41
-5.61
-6.99
-8.48
-9.92
-11.23
-12.43
-13.75
-15.43
-17.61
-20.09
-22.31
-23.42
-22.68
-19.67
-14.59
-8.20
-1.54
4.38
8.92
11.91
13.53
14.08
13.75
12.62
10.74
8.33
5.85
3.89
2.97
3.30
4.67
6.58
8.44
9.84
10.66
11.07
11.31
11.54
11.70
11.50
10.60
8.70
5.82
2.34
-1.14
-3.97
-5.76
-6.59
-6.96
-7.52
-8.78
-10.87
-13.52
-16.26
-18.65
-20.38
-21.30
-21.27
-20.07
-17.48
-13.44
-8.23
-2.51
2.82
6.88
9.12
9.44
8.28
6.33
4.33
2.78
1.82
1.32
1.04
0.86
0.84
1.17
1.98
3.17
4.40
5.23
5.34
4.71
3.60
2.33
1.17
0.12
-0.99
-2.34
-3.96
-5.70
-7.28
-8.55
-9.56
-10.57
-11.86
-13.58
-15.66
-17.82
-19.68
-20.86
-21.06
-20.04
-17.67
-13.97
-9.18
-3.78
1.68
6.66
10.76
13.77
15.52
15.94
15.06
13.11
10.67
8.43
7.04
6.85
7.75
9.30
11.01
12.53
13.76
14.59
14.90
14.53
13.39
11.61
9.63
7.89
6.68
5.74
4.57
2.59
-0.35
-3.81
-6.98
-9.05
-9.69
-9.36
-8.95
-9.39
-11.18
-14.15
-17.57
-20.63
-22.67
-23.57
-23.43
-22.41
-20.42
-17.21
-12.53
-6.49
0.39
7.12
12.65
16.21
17.51
16.79
14.66
11.88
9.20
7.19
6.19
6.29
7.32
8.89
10.56
12.00
13.13
14.04
14.89
15.65
16.08
15.74
14.37
12.00
9.09
6.32
4.25
3.04
2.39
1.79
0.73
-0.94
-3.00
-5.06
-6.75
-7.93
-8.75
-9.53
-10.57
-12.03
-13.89
-16.00
-18.20
-20.33
-22.25
-23.73
-24.38
-23.68
-21.14
-16.57
-10.33
-3.23
3.61
9.17
12.83
14.50
14.55
13.50
11.84
9.91
7.90
5.98
4.39
3.41
3.33
4.23
5.91
7.94
9.75
10.89
11.16
10.69
9.84
8.97
8.22
7.51
6.61
5.37
3.80
2.19
0.94
0.37
0.50
1.06
1.51
1.36
0.39
-1.28
-3.14
-4.65
-5.48
-5.73
-5.91
-6.66
-8.42
-11.15
-14.25
-16.85
-18.08
-17.46
-15.03
-11.18
-6.52
-1.60
3.25
7.83
12.03
15.62
18.23
19.48
19.08
17.05
13.87
10.31
7.21
5.24
4.64
5.23
6.55
8.07
9.42
10.46
11.18
11.54
11.41
10.64
9.14
7.03
4.66
2.43
0.58
-0.91
-2.31
-3.94
-5.96
-8.22
-10.34
-11.88
-12.63
-12.72
-12.60
-12.85
-13.90
-15.83
-18.30
-20.73
-22.48
-23.05
-22.27
-20.22
-17.14
-13.30
-8.89
-4.12
0.67
4.99
8.23
9.89
9.76
8.08
5.58
3.17
1.68
1.45
2.31
3.75
5.18
6.34
7.30
8.34
9.67
11.16
12.38
12.80
12.13
10.51
8.45
6.51
5.03
4.01
3.18
2.23
1.01
-0.36
-1.62
-2.52
-3.02
-3.25
-3.54
-4.13
-5.12
-6.35
-7.40
-7.84
-7.34
-5.83
-3.44
-0.48
2.75
6.05
9.24
12.06
14.13
15.01
14.39
12.30
9.16
5.70
2.76
0.95
0.50
1.22
2.58
3.98
4.98
5.47
5.57
5.54
5.54
5.44
4.97
3.85
2.06
-0.23
-2.81
-5.58
-8.63
-12.08
-15.79
-19.30
-21.97
-23.30
-23.29
-22.48
-21.65
-21.36
-21.66
-22.01
-21.58
-19.63
-15.91
-10.71
-4.79
0.89
5.44
8.37
9.66
9.75
8.98
7.67
5.91
3.74
1.45
-0.33
-0.85
0.39
3.07
6.20
8.52
9.16
8.17
6.50
5.32
5.30
5.96
6.12
4.55
0.92
-3.89
-8.17
-10.40
-10.08
-8.35
-7.16
-8.18
-11.90
-17.23
-22.15
-24.84
-24.56
-22.14
-19.23
-17.21
-16.34
-15.66
-13.64
-9.27
-2.65
4.73
10.93
14.40
14.74
12.68
9.62
6.89
5.35
4.99
5.43
6.14
6.80
7.35
7.91
8.61
9.58
10.67
11.64
12.14
11.89
10.73
8.77
6.31
3.78
1.54
-0.23
-1.58
-2.74
-3.96
-5.39
-6.91
-8.30
-9.27
-9.75
-9.97
-10.39
-11.51
-13.57
-16.35
-19.21
-21.25
-21.60
-19.79
-15.86
-10.39
-4.23
1.78
7.11
11.54
15.10
17.81
19.59
20.27
19.77
18.33
16.51
15.06
14.54
15.13
16.52
18.12
19.30
19.74
19.50
18.92
18.34
17.98
17.78
17.45
16.70
15.36
13.54
11.59
9.90
8.66
7.78
6.93
5.78
4.22
2.48
0.97
0.05
-0.24
-0.27
-0.57
-1.54
-3.21
-5.18
-6.91
-8.03
-8.53
-8.81
-9.48
-11.10
-13.92
-17.78
-22.12
-26.16
-29.11
-30.37
-29.70
-27.18
-23.15
-18.06
-12.34
-6.46
-0.87
3.90
7.39
9.29
9.64
8.81
7.47
6.28
5.75
6.04
7.05
8.54
10.23
11.98
13.65
15.17
16.40
17.18
17.39
17.02
16.28
15.45
14.78
14.33
13.89
13.09
11.61
9.40
6.74
4.19
2.26
1.24
0.95
0.89
0.44
-0.78
-2.79
-5.22
-7.66
-9.86
-11.79
-13.70
-15.78
-18.09
-20.56
-23.06
-25.67
-28.53
-31.70
-34.88
-37.30
-37.94
-36.06
-31.61
-25.52
-19.26
-14.23
-11.04
-9.22
-7.54
-4.72
-0.13
5.71
11.56
16.13
18.84
20.14
21.16
22.91
25.67
28.65
30.56
30.42
28.17
24.80
21.75
20.13
20.16
21.06
21.64
20.97
18.87
15.89
12.90
10.60
9.27
8.60
8.07
7.20
5.71
3.65
1.27
-1.10
-3.08
-4.51
-5.45
-6.20
-7.18
-8.75
-11.02
-13.79
-16.55
-18.69
-19.71
-19.39
-17.76
-15.06
-11.58
-7.57
-3.18
1.40
5.94
10.01
13.13
14.87
15.02
13.72
11.46
8.95
6.88
5.76
5.73
6.61
8.01
9.48
10.75
11.71
12.48
13.21
13.96
14.62
14.94
14.71
13.85
12.48
10.81
9.05
7.23
5.28
3.12
0.80
-1.45
-3.34
-4.63
-5.31
-5.56
-5.70
-6.02
-6.61
-7.34
-8.03
-8.56
-9.04
-9.83
-11.32
-13.69
-16.69
-19.55
-21.32
-21.18
-18.88
-14.77
-9.67
-4.45
0.32
4.47
8.09
11.23
13.69
15.07
15.01
13.44
10.78
7.84
5.45
4.21
4.20
5.03
6.11
6.94
7.29
7.35
7.44
7.75
8.25
8.66
8.61
7.85
6.37
4.46
2.51
0.88
-0.30
-1.13
-1.85
-2.75
-4.00
-5.47
-6.91
-8.03
-8.68
-9.00
-9.31
-9.97
-11.19
-12.86
-14.73
-16.55
-18.23
-19.83
-21.36
-22.60
-23.03
-21.97
-18.92
-13.91
-7.60
-1.05
4.63
8.70
10.94
11.66
11.38
10.50
9.20
7.45
5.28
2.92
0.89
-0.23
0.00
1.56
3.99
6.54
8.47
9.41
9.41
8.89
8.36
8.10
8.04
7.83
7.02
5.37
3.02
0.42
-1.86
-3.45
-4.32
-4.81
-5.40
-6.38
-7.75
-9.17
-10.19
-10.62
-10.65
-10.85
-11.90
-14.14
-17.33
-20.65
-22.95
-23.25
-21.11
-16.82
-11.19
-5.22
0.24
4.74
8.12
10.37
11.49
11.42
10.16
7.86
4.98
2.16
0.11
-0.69
-0.12
1.53
3.66
5.63
6.96
7.52
7.47
7.16
6.87
6.65
6.37
5.78
4.78
3.40
1.82
0.21
-1.39
-3.07
-4.86
-6.65
-8.11
-8.91
-8.99
-8.60
-8.34
-8.81
-10.31
-12.65
-15.25
-17.47
-18.91
-19.52
-19.54
-19.19
-18.40
-16.80
-13.80
-9.15
-3.06
3.65
9.75
14.10
16.14
15.98
14.31
11.73
8.62
5.11
1.34
-2.14
-4.27
-4.06
-1.12
3.69
8.69
12.08
12.92
11.55
9.37
7.86
7.72
8.33
8.41
6.88
3.64
-0.27
-3.28
-4.27
-3.17
-1.34
-0.51
-1.86
-5.29
-9.41
-12.35
-12.86
-11.11
-8.84
-8.32
-11.03
-16.72
-23.36
-28.12
-28.71
-24.39
-16.40
-7.04
1.42
7.69
11.68
14.18
15.95
17.42
18.28
17.98
16.27
13.44
10.32
7.91
6.96
7.76
9.89
12.62
15.08
16.63
16.93
15.98
14.03
11.48
8.74
6.16
3.96
2.20
0.81
-0.35
-1.37
-2.20
-2.67
-2.69
-2.31
-1.77
-1.49
-1.74
-2.60
-3.84
-5.10
-6.12
-6.97
-8.10
-10.22
-13.96
-19.46
-26.22
-33.17
-38.95
-42.45
-43.15
-41.20
-37.25
-32.18
-26.68
-21.17
-15.86
-10.86
-6.32
-2.44
0.63
2.89
4.53
5.92
7.41
9.22
11.32
13.48
15.34
16.64
17.28
17.37
17.11
16.64
15.96
14.90
13.27
11.07
8.55
6.10
4.11
2.71
1.65
0.51
-1.13
-3.35
-5.82
-7.92
-9.11
-9.21
-8.57
-7.89
-7.89
-8.98
-11.05
-13.54
-15.72
-16.92
-16.75
-15.08
-12.00
-7.65
-2.30
3.58
9.35
14.16
17.31
18.43
17.64
15.52
12.85
10.36
8.52
7.46
7.10
7.26
7.79
8.64
9.84
11.39
13.22
15.06
16.52
17.09
16.42
14.49
11.70
8.70
6.12
4.30
3.15
2.29
1.35
0.22
-0.94
-1.97
-2.88
-3.91
-5.41
-7.51
-9.98
-12.28
-13.87
-14.68
-15.19
-16.14
-18.14
-21.10
-24.18
-26.06
-25.59
-22.38
-16.93
-10.36
-3.83
1.89
6.57
10.35
13.39
15.42
15.98
14.74
11.85
8.13
4.83
3.07
3.40
5.39
7.99
10.10
11.10
11.15
10.97
11.31
12.44
13.82
14.49
13.63
11.15
7.78
4.74
2.98
2.81
3.59
4.26
3.91
2.28
-0.20
-2.78
-4.84
-6.15
-6.99
-7.82
-9.04
-10.80
-13.04
-15.62
-18.33
-20.81
-22.65
-23.33
-22.42
-19.77
-15.61
-10.44
-4.93
0.39
5.08
8.83
11.34
12.35
11.74
9.69
6.75
3.67
1.21
-0.22
-0.60
-0.26
0.43
1.17
1.90
2.70
3.60
4.48
5.11
5.19
4.60
3.37
1.76
0.11
-1.33
-2.48
-3.41
-4.35
-5.49
-6.88
-8.38
-9.67
-10.48
-10.71
-10.61
-10.71
-11.53
-13.41
-16.24
-19.45
-22.21
-23.66
-23.19
-20.62
-16.16
-10.41
-4.11
2.05
7.54
12.06
15.44
17.53
18.20
17.42
15.36
12.56
9.77
7.70
6.73
6.75
7.32
7.93
8.35
8.75
9.47
10.75
12.47
14.11
15.06
14.91
13.67
11.81
9.93
8.46
7.48
6.61
5.38
3.48
0.98
-1.61
-3.62
-4.61
-4.57
-4.05
-3.87
-4.81
-7.22
-10.87
-15.06
-18.86
-21.43
-22.31
-21.34
-18.67
-14.58
-9.42
-3.61
2.29
7.62
11.68
13.95
14.26
12.88
10.51
8.01
6.12
5.20
5.17
5.69
6.41
7.14
7.97
9.06
10.47
11.97
13.13
13.49
12.85
11.35
9.46
7.71
6.47
5.71
5.10
4.17
2.66
0.61
-1.55
-3.27
-4.14
-4.20
-3.87
-3.78
-4.41
-5.87
-7.86
-9.99
-11.99
-13.89
-15.87
-17.97
-19.83
-20.73
-19.84
-16.70
-11.49
-5.07
1.37
6.77
10.51
12.53
13.15
12.83
11.93
10.69
9.26
7.80
6.58
6.00
6.38
7.85
10.22
12.97
15.40
16.92
17.31
16.79
15.89
15.11
14.60
14.12
13.25
11.64
9.35
6.82
4.66
3.23
2.54
2.18
1.68
0.68
-0.78
-2.40
-3.77
-4.63
-5.07
-5.41
-6.14
-7.61
-9.86
-12.63
-15.44
-17.83
-19.48
-20.20
-19.89
-18.45
-15.68
-11.46
-5.88
0.64
7.28
13.01
16.90
18.37
17.44
14.87
11.69
9.06
7.73
7.80
8.89
10.44
12.01
13.45
14.59
15.17
14.86
13.46
11.23
8.95
7.55
7.55
8.46
9.11
8.19
5.20
0.83
-3.32
-5.64
-5.45
-3.60
-1.74
-1.48
-3.40
-6.72
-9.86
-11.43
-10.95
-9.51
-8.80
-10.34
-14.52
-20.26
-25.60
-28.63
-28.37
-25.46
-21.37
-17.53
-14.51
-11.65
-7.71
-1.83
5.63
12.79
17.29
17.46
13.44
7.14
1.38
-1.62
-1.14
1.69
4.88
6.78
6.96
6.22
5.88
6.84
9.15
11.88
13.89
14.44
13.54
11.75
9.79
8.06
6.68
5.35
3.82
2.01
0.07
-1.77
-3.31
-4.49
-5.37
-6.13
-6.95
-8.03
-9.52
-11.53
-14.04
-16.90
-19.78
-22.15
-23.42
-23.08
-20.91
-17.04
-11.99
-6.49
-1.22
3.46
7.42
10.70
13.21
14.69
14.79
13.36
10.73
7.71
5.28
4.17
4.55
6.02
7.87
9.52
10.79
11.77
12.67
13.49
13.98
13.74
12.53
10.41
7.82
5.38
3.52
2.36
1.62
0.84
-0.35
-2.02
-3.92
-5.61
-6.70
-7.10
-7.02
-6.91
-7.27
-8.41
-10.35
-12.86
-15.51
-17.84
-19.43
-19.91
-19.04
-16.65
-12.72
-7.43
-1.26
5.05
10.61
14.59
16.51
16.38
14.76
12.47
10.35
8.95
8.40
8.55
9.12
9.96
11.06
12.48
14.16
15.75
16.75
16.64
15.17
12.52
9.27
6.08
3.46
1.57
0.19
-1.05
-2.44
-4.01
-5.52
-6.66
-7.26
-7.40
-7.46
-7.84
-8.80
-10.28
-11.96
-13.55
-14.93
-16.30
-18.00
-20.26
-22.90
-25.25
-26.37
-25.49
-22.35
-17.35
-11.38
-5.43
-0.23
3.95
7.19
9.68
11.51
12.58
12.71
11.82
10.19
8.33
6.90
6.29
6.54
7.37
8.35
9.24
10.05
11.04
12.42
13.97
15.11
15.07
13.36
10.16
6.31
2.90
0.73
-0.21
-0.60
-1.38
-3.10
-5.62
-8.16
-9.88
-10.31
-9.84
-9.36
-9.78
-11.52
-14.28
-17.31
-19.95
-21.84
-23.19
-24.36
-25.44
-26.05
-25.40
-22.78
-17.96
-11.33
-4.00
2.75
7.81
10.62
11.21
10.09
8.01
5.79
3.99
2.94
2.72
3.21
4.22
5.60
7.19
8.87
10.43
11.57
11.99
11.53
10.19
8.20
5.87
3.56
1.52
-0.11
-1.29
-2.14
-2.91
-3.84
-5.11
-6.66
-8.17
-9.23
-9.58
-9.30
-8.83
-8.82
-9.77
-11.73
-14.36
-17.06
-19.35
-20.98
-21.84
-21.88
-20.84
-18.34
-14.12
-8.33
-1.66
4.84
10.13
13.56
15.06
15.06
14.19
12.98
11.76
10.70
9.93
9.60
9.95
11.14
13.19
15.89
18.82
21.43
23.24
23.95
23.54
22.32
20.70
18.99
17.26
15.24
12.60
9.11
4.94
0.68
-2.93
-5.39
-6.63
-7.14
-7.64
-8.80
-10.90
-13.80
-17.07
-20.23
-22.90
-24.90
-26.04
-26.11
-24.73
-21.59
-16.67
-10.44
-3.82
2.01
6.10
8.03
8.06
6.97
5.59
4.55
4.00
3.73
3.53
3.33
3.39
4.13
5.80
8.33
11.24
13.85
15.57
16.15
15.68
14.60
13.41
12.44
11.83
11.45
11.07
10.47
9.58
8.53
7.49
6.60
5.86
5.09
4.06
2.62
0.77
-1.29
-3.37
-5.26
-6.88
-8.11
-8.71
-8.24
-6.19
-2.15
3.81
11.06
18.53
24.99
29.43
31.37
30.84
28.34
24.49
19.85
14.80
9.52
4.14
-1.22
-6.31
-10.82
-14.41
-16.87
-18.20
-18.73
-18.90
-19.21
-19.85
-20.68
-21.27
-21.22
-20.39
-19.01
-17.56
-16.41
-15.60
-14.81
-13.62
-11.85
-9.76
-7.93
-6.98
-7.18
-8.36
-10.00
-11.60
-12.92
-14.00
-14.98
-15.79
-16.02
-15.03
-12.27
-7.62
-1.52
5.14
11.38
16.42
19.88
21.80
22.47
22.22
21.28
19.75
17.70
15.29
12.90
11.10
10.50
11.44
13.74
16.68
19.21
20.37
19.74
17.72
15.09
12.78
11.26
10.36
9.44
7.96
5.77
3.12
0.26
-2.75
-6.16
-10.20
-14.61
-18.61
-21.18
-21.58
-20.08
-17.82
-16.30
-16.66
-18.98
-22.22
-24.80
-25.38
-23.54
-19.80
-15.16
-10.53
-6.21
-1.94
2.69
7.86
12.71
16.06
16.80
14.74
10.88
7.10
5.17
5.96
8.73
11.84
13.67
13.56
12.23
11.24
11.93
14.61
18.00
20.19
19.69
16.35
11.46
7.03
4.55
4.31
4.96
4.70
2.26
-2.23
-7.30
-11.04
-12.23
-11.01
-8.96
-8.11
-9.81
-14.01
-19.36
-23.91
-26.06
-25.11
-21.47
-16.14
-10.14
-4.17
1.46
6.58
11.01
14.52
16.68
17.16
15.82
12.79
8.54
3.85
-0.41
-3.41
-4.76
-4.48
-3.06
-1.14
0.67
2.05
2.92
3.44
3.82
4.18
4.51
4.63
4.31
3.34
1.68
-0.44
-2.61
-4.38
-5.48
-5.95
-6.05
-6.16
-6.52
-7.19
-8.08
-9.11
-10.33
-11.91
-13.92
-16.18
-18.12
-18.91
-17.80
-14.48
-9.34
-3.34
2.27
6.48
8.81
9.42
8.92
7.97
7.03
6.20
5.44
4.69
4.09
3.95
4.54
5.93
7.84
9.71
10.94
11.10
10.21
8.68
7.17
6.23
6.03
6.28
6.40
5.86
4.43
2.38
0.26
-1.41
-2.43
-3.06
-3.82
-5.15
-7.15
-9.54
-11.78
-13.50
-14.62
-15.45
-16.41
-17.69
-19.01
-19.63
-18.70
-15.65
-10.53
-4.06
2.68
8.58
12.97
15.72
17.14
17.62
17.43
16.55
14.90
12.52
9.75
7.27
5.66
5.23
5.77
6.68
7.31
7.28
6.68
5.84
5.06
4.32
3.36
1.85
-0.28
-2.74
-5.01
-6.64
-7.48
-7.74
-7.81
-8.04
-8.55
-9.30
-10.10
-10.74
-11.13
-11.30
-11.40
-11.74
-12.63
-14.20
-16.19
-17.95
-18.71
-17.84
-15.07
-10.67
-5.23
0.63
6.37
11.68
16.22
19.67
21.70
22.13
21.12
19.18
17.02
15.31
14.33
13.98
13.94
13.89
13.73
13.64
13.88
14.55
15.32
15.62
14.93
13.12
10.58
8.10
6.34
5.58
5.42
5.07
3.84
1.51
-1.52
-4.46
-6.58
-7.47
-7.30
-6.62
-6.05
-6.03
-6.73
-8.12
-10.02
-12.19
-14.37
-16.19
-17.20
-16.96
-15.22
-11.97
-7.55
-2.41
2.87
7.73
11.71
14.47
15.80
15.72
14.49
12.59
10.53
8.73
7.36
6.40
5.76
5.37
5.25
5.46
5.94
6.48
6.75
6.48
5.54
4.02
2.17
0.28
-1.52
-3.18
-4.79
-6.44
-8.19
-9.99
-11.71
-13.10
-13.96
-14.19
-13.95
-13.61
-13.69
-14.58
-16.34
-18.55
-20.41
-21.07
-19.92
-16.84
-12.21
-6.77
-1.27
3.74
7.95
11.23
13.50
14.62
14.53
13.30
11.30
9.18
7.62
7.08
7.61
8.85
10.29
11.48
12.19
12.54
12.71
12.85
12.91
12.70
11.96
10.58
8.65
6.46
4.39
2.68
1.34
0.15
-1.20
-2.91
-4.92
-6.94
-8.60
-9.74
-10.55
-11.55
-13.25
-15.93
-19.34
-22.78
-25.28
-26.02
-24.55
-21.01
-15.99
-10.32
-4.80
0.11
4.22
7.54
10.04
11.57
11.79
10.52
7.88
4.53
1.41
-0.55
-0.83
0.39
2.49
4.64
6.28
7.27
7.80
8.14
8.39
8.35
7.72
6.28
4.19
1.92
0.03
-1.14
-1.63
-1.91
-2.51
-3.73
-5.47
-7.21
-8.42
-8.89
-8.91
-9.15
-10.29
-12.60
-15.75
-18.89
-21.03
-21.43
-19.86
-16.60
-12.28
-7.57
-3.01
1.10
4.62
7.50
9.66
10.94
11.19
10.36
8.66
6.53
4.55
3.29
3.01
3.63
4.74
5.84
6.58
6.97
7.26
7.69
8.31
8.85
8.87
8.04
6.34
4.14
1.95
0.16
-1.16
-2.24
-3.46
-4.99
-6.73
-8.39
-9.64
-10.43
-10.98
-11.68
-12.83
-14.43
-16.10
-17.20
-17.12
-15.47
-12.29
-7.97
-3.09
1.81
6.31
10.16
13.16
15.07
15.69
14.94
13.00
10.39
7.86
6.10
5.51
6.09
7.42
8.94
10.19
10.98
11.43
11.80
12.26
12.76
12.96
12.39
10.74
8.01
4.68
1.43
-1.11
-2.73
-3.66
-4.53
-5.88
-7.92
-10.35
-12.72
-14.61
-16.00
-17.20
-18.51
-19.81
-20.52
-19.75
-17.11
-12.84
-7.82
-3.17
0.48
3.19
5.46
7.70
9.67
10.68
10.09
7.94
5.20
3.37
3.56
5.86
9.03
11.42
11.82
10.21
7.78
6.20
6.55
8.82
11.52
12.78
11.34
7.23
1.92
-2.53
-4.54
-3.77
-1.50
0.30
-0.02
-2.89
-7.41
-11.97
-15.14
-16.35
-16.09
-15.26
-14.46
-13.66
-12.23
-9.54
-5.39
-0.17
5.15
9.59
12.45
13.51
12.95
11.20
8.79
6.36
4.36
3.11
2.69
2.87
3.32
3.77
4.13
4.57
5.22
6.12
