1547749671.00
64.000000
-0.00
-0.00
-0.00
-0.00
-0.00
-0.00
-0.00
-0.00
-0.00
-0.00
0.00
0.01
0.01
-0.00
-0.03
-0.05
-0.05
0.00
0.13
0.36
0.66
1.01
1.37
1.72
2.06
2.40
2.79
3.24
3.80
4.42
5.06
5.66
6.20
6.68
7.15
7.68
8.31
9.14
10.09
11.04
11.88
12.56
13.14
13.76
14.65
15.96
17.91
20.32
22.90
25.38
27.58
29.57
31.68
34.32
37.81
42.54
48.15
54.10
59.83
64.97
69.58
74.14
79.34
85.71
93.76
103.00
112.62
121.73
129.77
136.75
143.30
150.75
157.77
166.64
177.95
191.79
206.97
220.57
228.25
225.36
208.53
176.87
132.76
80.05
23.07
-34.94
-92.44
-149.16
-205.23
-260.37
-313.74
-363.87
-409.83
-450.91
-486.50
-515.74
-537.23
-549.22
-549.96
-538.37
-514.21
-478.67
-433.88
-382.45
-327.02
-269.84
-212.63
-156.66
-102.95
-52.37
-5.90
35.58
71.43
101.35
125.50
144.38
158.69
169.15
176.37
180.75
182.57
182.07
179.51
175.23
169.65
163.18
156.15
148.81
141.30
133.69
126.02
118.33
110.69
103.16
95.80
88.68
81.83
75.25
68.95
62.95
57.25
51.86
46.78
42.03
37.59
33.45
29.61
26.07
22.81
19.83
17.11
14.67
12.48
10.54
8.83
7.35
6.07
4.97
4.05
3.27
2.62
2.09
1.65
1.30
1.01
0.79
0.61
0.47
0.37
0.29
0.23
0.19
0.16
0.15
0.14
0.15
0.17
0.19
0.22
0.25
0.29
0.33
0.38
0.42
0.47
0.52
0.57
0.62
0.68
0.74
0.80
0.86
0.93
1.01
1.10
1.21
1.34
1.48
1.62
1.74
1.84
1.93
2.04
2.17
2.37
2.65
2.98
3.35
3.72
4.06
4.41
4.76
5.19
5.70
6.32
7.02
7.73
8.41
9.02
9.58
10.16
10.83
11.69
12.75
13.94
15.12
16.15
16.91
17.44
17.87
18.34
18.96
19.64
20.09
19.85
18.52
15.82
11.83
6.91
1.57
-3.66
-8.51
-13.08
-17.69
-22.71
-28.24
-34.03
-39.43
-43.71
-46.36
-47.28
-46.92
-46.04
-45.37
-45.50
-46.81
-49.41
-53.02
-56.73
-58.89
-57.47
-50.75
-38.35
-21.77
-4.02
11.40
21.99
27.14
28.12
27.08
25.86
25.23
24.89
24.25
23.02
21.65
20.89
21.23
22.42
23.54
23.47
21.49
17.89
13.82
10.81
10.08
12.01
15.88
20.23
23.53
24.79
23.93
21.74
19.48
18.23
18.58
20.36
22.82
25.01
26.20
26.11
24.92
23.05
20.93
18.94
17.48
16.91
17.57
19.54
22.63
26.46
30.68
35.32
40.64
46.83
53.59
59.86
64.13
65.19
62.92
58.63
54.61
53.23
55.91
62.54
71.72
81.35
89.77
96.23
100.98
104.84
108.68
112.88
117.40
121.80
125.62
128.56
130.48
131.38
131.47
131.09
130.56
129.70
127.45
121.83
110.52
91.61
64.82
31.65
-5.10
-42.60
-79.27
-115.61
-153.99
-197.22
-246.28
-298.37
-346.20
-379.54
-388.33
-366.31
-313.36
-235.49
-142.70
-45.86
45.63
124.97
187.67
231.16
254.70
259.62
249.40
228.99
203.50
176.96
151.83
129.27
109.84
93.81
81.48
73.22
69.65
71.73
80.51
96.50
118.81
144.77
170.36
191.18
203.71
206.10
198.28
181.69
158.61
131.69
103.41
75.55
48.71
22.31
-5.04
-34.66
-67.04
-101.39
-136.09
-169.55
-201.02
-231.03
-261.06
-292.81
-327.78
-366.99
-411.00
-459.53
-510.74
-560.67
-603.67
-634.07
-648.66
-648.54
-638.97
-626.99
-617.94
-612.78
-607.80
-596.98
-575.43
-541.93
-499.35
-452.77
-406.91
-364.28
-324.87
-287.17
-249.61
-211.44
-172.95
-135.01
-98.42
-63.39
-29.47
4.29
38.88
75.04
112.86
151.97
191.99
233.05
275.53
319.17
361.91
399.42
426.12
437.38
431.87
412.50
385.35
356.81
330.94
308.43
287.63
267.05
247.16
230.45
219.70
215.96
217.51
220.70
221.94
219.66
214.90
210.47
209.25
212.30
217.92
221.83
218.16
201.26
167.39
116.44
52.67
-15.78
-78.78
-126.86
-154.01
-159.04
-145.49
-119.79
-88.84
-58.01
-30.22
-6.31
13.94
30.85
44.56
55.11
62.81
68.24
71.96
74.07
73.96
70.53
62.69
50.01
33.24
14.28
-4.15
-19.18
-28.60
-31.38
-28.00
-20.44
-11.49
-3.96
0.33
1.04
-0.73
-3.13
-4.51
-4.18
-2.57
-0.79
0.03
-0.63
-2.47
-4.63
-6.19
-6.61
-5.78
-3.95
-1.39
1.72
5.18
8.72
11.88
14.11
14.96
14.24
11.95
8.20
3.07
-3.46
-11.51
-21.47
-33.84
-49.07
-66.99
-86.54
-105.85
-122.70
-135.38
-143.36
-147.38
-149.03
-149.96
-151.06
-152.18
-152.38
-150.46
-145.68
-138.01
-128.21
-117.43
-106.79
-96.94
-87.74
-78.20
-66.80
-52.20
-33.76
-11.83
12.60
38.44
65.15
92.90
122.17
153.08
184.83
215.47
242.43
263.49
277.77
286.20
291.17
295.61
301.76
310.34
320.34
329.46
334.83
333.72
324.10
305.00
276.72
241.06
201.24
161.52
126.32
99.07
81.22
71.89
68.53
68.04
67.84
66.24
62.00
53.74
39.48
16.80
-16.45
-61.32
-117.07
-180.97
-248.37
-313.00
-367.68
-405.21
-419.91
-409.09
-374.29
-321.30
-258.95
-196.96
-143.58
-104.01
-79.77
-69.30
-68.97
-74.39
-81.26
-85.92
-85.73
-79.16
-65.98
-47.33
-25.51
-3.45
16.03
30.94
40.58
45.59
47.52
48.13
48.83
50.22
52.06
53.46
53.22
50.26
43.86
34.01
21.45
7.57
-5.96
-17.55
-26.17
-31.45
-33.59
-33.06
-30.34
-25.83
-19.97
-13.36
-6.78
-1.02
3.36
6.24
7.97
9.10
10.17
11.43
12.85
14.16
15.12
15.56
15.44
14.86
13.96
12.93
11.93
11.03
10.25
9.48
8.61
7.53
6.30
5.11
4.20
3.74
3.71
3.86
3.82
3.27
2.12
0.50
-1.32
-3.13
-4.82
-6.45
-8.06
-9.66
-11.07
-12.02
-12.25
-11.60
-10.01
-7.62
-4.59
-1.15
2.49
6.15
9.68
12.90
15.67
17.77
19.05
19.44
18.99
17.92
16.55
15.14
13.86
12.71
11.59
10.38
9.09
7.76
6.55
5.53
4.68
3.88
2.92
1.71
0.21
-1.46
-3.16
-4.79
-6.39
-8.05
-9.88
-11.82
-13.60
-14.88
-15.30
-14.76
-13.46
-11.89
-10.63
-10.13
-10.57
-11.78
-13.35
-14.81
-15.70
-15.77
-14.92
-13.19
-10.67
-7.54
-3.99
-0.33
3.08
5.90
8.01
9.48
10.66
11.89
13.44
15.29
17.18
18.78
19.80
20.18
20.10
19.79
19.47
19.20
18.95
18.58
18.02
17.26
16.35
15.38
14.37
13.23
11.85
10.14
8.15
6.06
4.19
2.75
1.85
1.42
1.29
1.21
1.13
1.02
0.90
0.61
-0.13
-1.64
-4.04
-7.07
-10.12
-12.43
-13.43
-13.02
-11.53
-9.52
-7.40
-5.32
-3.13
-0.65
2.15
4.94
7.30
8.92
9.83
10.45
11.27
12.63
14.50
16.40
17.76
18.23
17.86
17.10
16.55
16.59
17.22
17.96
18.26
17.71
16.29
14.37
12.44
10.91
9.94
9.35
8.82
8.00
6.67
4.83
2.61
0.21
-2.16
-4.43
-6.61
-8.78
-11.05
-13.53
-16.18
-18.91
-21.48
-23.58
-24.91
-25.23
-24.47
-22.72
-20.18
-17.10
-13.66
-10.02
-6.34
-2.85
0.19
2.48
3.85
4.30
4.04
3.36
2.47
1.48
0.36
-0.97
-2.59
-4.42
-6.37
-8.30
-10.15
-11.96
-13.85
-16.03
-18.61
-21.65
-25.01
-28.50
-31.91
-35.16
-38.35
-41.73
-45.48
-49.60
-53.75
-57.34
-59.73
-60.41
-59.16
-56.02
-51.19
-44.86
-37.11
-27.97
-17.48
-5.87
6.43
18.84
30.66
41.26
50.20
57.25
62.35
65.63
67.26
67.39
66.26
64.11
61.33
58.32
55.46
52.94
50.78
48.81
46.87
44.85
42.82
40.93
39.32
38.00
36.83
35.62
34.21
32.52
30.57
28.44
26.20
23.86
21.42
18.89
16.29
13.72
11.29
9.10
7.18
5.44
3.64
1.52
-1.11
-4.30
-7.88
-11.56
-15.01
-18.00
-20.36
-22.02
-22.86
-22.71
-21.42
-18.95
-15.51
-11.57
-7.69
-4.36
-1.81
0.04
1.53
2.91
4.29
5.54
6.41
6.77
6.68
6.45
6.46
6.93
7.80
8.84
9.67
10.05
9.97
9.59
9.11
8.57
7.88
6.90
5.53
3.89
2.28
1.02
0.27
-0.12
-0.53
-1.34
-2.75
-4.59
-6.47
-7.99
-8.96
-9.60
-10.37
-11.67
-13.67
-16.09
-18.41
-20.02
-20.48
-19.75
-18.04
-15.70
-13.02
-10.15
-7.19
-4.23
-1.44
0.86
2.39
3.08
3.09
2.86
2.89
3.55
4.92
6.77
8.73
10.53
12.08
13.50
14.95
16.47
17.94
19.08
19.60
19.40
18.57
17.37
16.10
14.94
13.90
12.82
11.53
9.91
7.97
5.88
3.84
2.07
0.68
-0.30
-0.96
-1.47
-2.08
-3.03
-4.50
-6.48
-8.72
-10.78
-12.17
-12.58
-11.96
-10.48
-8.42
-6.03
-3.45
-0.82
1.69
3.80
5.22
5.83
5.71
5.17
4.59
4.24
4.17
4.23
4.22
3.98
3.49
2.86
2.25
1.74
1.36
1.09
0.86
0.64
0.39
0.11
-0.21
-0.55
-0.91
-1.29
-1.70
-2.22
-2.90
-3.79
-4.87
-6.06
-7.26
-8.36
-9.40
-10.45
-11.73
-13.40
-15.55
-18.09
-20.74
-23.08
-24.71
-25.37
-25.03
-23.82
-21.98
-19.73
-17.17
-14.36
-11.36
-8.24
-5.16
-2.22
0.49
2.95
5.18
7.21
9.01
10.55
11.77
12.66
13.29
13.73
14.12
14.51
14.87
15.12
15.07
14.60
13.68
12.47
11.22
10.13
9.32
8.69
8.03
7.13
5.84
4.17
2.26
0.26
-1.68
-3.54
-5.33
-7.07
-8.68
-10.03
-11.09
-11.97
-13.01
-14.56
-16.84
-19.66
-22.42
-24.41
-25.03
-24.13
-21.98
-19.14
-16.13
-13.29
-10.67
-8.19
-5.77
-3.41
-1.18
0.84
2.65
4.32
5.92
7.50
9.00
10.29
11.26
11.79
11.90
11.70
11.36
11.07
10.91
10.81
10.62
10.13
9.24
7.98
6.58
5.31
4.38
3.89
3.75
3.79
3.79
3.55
3.02
2.22
1.27
0.34
-0.50
-1.26
-2.08
-3.16
-4.66
-6.64
-9.05
-11.73
-14.44
-16.97
-19.03
-20.38
-20.80
-20.18
-18.62
-16.35
-13.70
-10.92
-8.17
-5.46
-2.78
-0.18
2.22
4.27
5.90
7.16
8.20
9.19
10.24
11.36
12.42
13.24
13.67
13.64
13.21
12.55
11.84
11.23
10.74
10.30
9.75
8.96
7.91
6.72
5.58
4.65
3.93
3.25
2.39
1.13
-0.51
-2.34
-4.02
-5.29
-6.08
-6.62
-7.27
-8.29
-9.78
-11.58
-13.53
-15.52
-17.61
-19.95
-22.49
-25.00
-27.00
-28.05
-27.95
-26.79
-24.89
-22.51
-19.71
-16.38
-12.39
-7.80
-2.98
1.50
5.11
7.59
9.08
9.98
10.79
11.82
13.04
14.16
14.88
15.12
15.05
15.11
15.65
16.77
18.17
19.31
19.78
19.45
18.58
17.66
17.10
17.00
17.12
17.03
16.40
15.14
13.42
11.61
9.94
8.50
7.17
5.73
4.02
2.08
0.09
-1.72
-3.20
-4.37
-5.41
-6.61
-8.19
-10.21
-12.57
-14.93
-16.88
-17.99
-18.01
-16.83
-14.61
-11.65
-8.37
-5.17
-2.34
-0.00
1.86
3.34
4.54
5.47
6.06
6.24
6.01
5.52
5.03
4.82
5.04
5.64
6.38
6.96
7.14
6.90
6.42
5.88
5.46
5.14
4.79
4.23
3.41
2.45
1.55
0.91
0.57
0.43
0.26
-0.14
-0.88
-1.87
-2.92
-3.83
-4.48
-4.93
-5.39
-6.18
-7.52
-9.44
-11.76
-14.12
-16.14
-17.58
-18.35
-18.46
-17.89
-16.56
-14.41
-11.49
-8.08
-4.65
-1.68
0.51
1.83
2.52
2.89
3.23
3.64
4.11
4.54
4.86
5.09
5.33
5.67
6.11
6.62
7.08
7.39
7.56
7.62
7.64
7.64
7.59
7.38
6.92
6.19
5.24
4.14
3.03
1.97
0.97
0.02
-1.04
-2.33
-3.93
-5.82
-7.77
-9.53
-10.87
-11.82
-12.67
-13.92
-16.00
-19.06
-22.86
-26.87
-30.47
-33.21
-34.90
-35.56
-35.36
-34.51
-33.28
-31.99
-30.98
-30.49
-30.59
-31.04
-31.49
-31.64
-31.39
-31.02
-30.87
-31.25
-32.18
-33.37
-34.39
-34.85
-34.57
-33.55
-31.86
-29.38
-25.85
-20.91
-14.25
-5.89
3.78
14.00
23.94
32.95
40.75
47.41
53.17
58.16
62.24
65.01
66.02
65.08
62.33
58.35
53.85
49.48
45.61
42.20
38.98
35.57
31.72
27.35
22.64
17.85
13.31
9.27
5.92
3.45
1.98
1.60
2.23
3.64
5.50
7.38
8.97
10.09
10.76
11.10
11.27
11.37
11.45
11.50
11.44
11.19
10.68
9.91
8.92
7.85
6.87
6.07
5.50
5.05
4.52
3.66
2.30
0.40
-1.85
-4.09
-5.96
-7.19
-7.79
-7.99
-8.23
-8.85
-10.01
-11.59
-13.24
-14.59
-15.40
-15.69
-15.74
-15.89
-16.45
-17.57
-19.20
-21.22
-23.47
-25.83
-28.16
-30.24
-31.79
-32.40
-31.80
-29.87
-26.76
-22.84
-18.54
-14.19
-9.92
-5.71
-1.56
2.40
5.81
8.28
9.54
9.76
9.49
9.47
10.31
12.20
14.81
17.55
19.88
21.58
22.83
23.98
25.25
26.53
27.43
27.53
26.63
24.89
22.73
20.60
18.76
17.14
15.52
13.69
11.64
9.54
7.69
6.27
5.29
4.50
3.58
2.27
0.50
-1.63
-3.91
-6.18
-8.49
-11.00
-13.93
-17.38
-21.13
-24.69
-27.39
-28.65
-28.17
-26.05
-22.75
-18.82
-14.78
-10.90
-7.27
-3.84
-0.61
2.33
4.78
6.58
7.71
8.39
8.96
9.74
10.85
12.13
13.20
13.65
13.28
12.23
10.96
10.03
9.86
10.48
11.53
12.39
12.38
11.01
8.12
3.83
-1.43
-7.09
-12.50
-17.09
-20.51
-22.74
-24.04
-24.80
-25.23
-25.15
-24.06
-21.39
-16.98
-11.26
-5.36
-0.58
2.00
1.97
-0.39
-4.31
-8.77
-12.88
-15.88
-17.29
-16.89
-14.85
-11.62
-7.87
-4.20
-0.95
1.89
4.55
7.19
9.71
11.82
13.15
13.60
13.44
13.17
13.32
14.14
15.61
17.45
19.41
21.32
23.10
24.61
25.58
25.66
24.60
22.45
19.57
16.54
13.88
11.89
10.57
9.83
9.50
9.45
9.52
9.48
9.05
7.99
6.17
3.63
0.48
-3.11
-6.94
-10.79
-14.32
-17.10
-18.78
-19.16
-18.28
-16.43
-14.05
-11.56
-9.30
-7.40
-5.73
-4.04
-2.00
0.48
3.25
5.86
7.84
8.87
8.99
8.57
8.14
8.21
9.07
10.78
13.13
15.66
17.85
19.19
19.37
18.44
16.84
15.19
14.02
13.50
13.39
13.25
12.70
11.67
10.40
9.26
8.48
7.94
7.34
6.26
4.51
2.21
-0.22
-2.33
-3.79
-4.64
-5.20
-5.87
-6.89
-8.24
-9.72
-11.11
-12.36
-13.72
-15.53
-17.97
-20.84
-23.53
-25.22
-25.24
-23.30
-19.73
-15.24
-10.63
-6.59
-3.42
-1.12
0.51
1.73
2.73
3.65
4.61
5.77
7.22
9.04
11.12
13.28
15.25
16.75
17.62
17.85
17.62
17.19
16.79
16.56
16.43
16.18
15.53
14.31
12.45
10.13
7.60
5.14
2.89
0.84
-1.12
-3.07
-5.05
-6.99
-8.78
-10.36
-11.74
-13.09
-14.61
-16.47
-18.74
-21.34
-24.03
-26.42
-28.05
-28.53
-27.60
-25.27
-21.84
-17.78
-13.66
-9.87
-6.63
-3.92
-1.59
0.52
2.48
4.34
6.09
7.78
9.48
11.23
12.98
14.59
15.86
16.57
16.68
16.30
15.71
15.20
14.94
14.94
14.97
14.79
14.16
13.05
11.59
10.02
8.55
7.27
6.15
5.03
3.78
2.34
0.77
-0.86
-2.46
-4.05
-5.69
-7.48
-9.55
-11.98
-14.82
-18.01
-21.37
-24.63
-27.35
-29.12
-29.61
-28.73
-26.59
-23.56
-20.03
-16.36
-12.75
-9.28
-5.93
-2.68
0.38
3.11
5.32
6.88
7.79
8.19
8.30
8.42
8.79
9.54
10.62
11.85
12.94
13.64
13.77
13.36
12.53
11.50
10.42
9.36
8.31
7.26
6.29
5.47
4.84
4.24
3.41
2.10
0.27
-1.85
-3.81
-5.18
-5.83
-6.03
-6.31
-7.16
-8.81
-11.14
-13.77
-16.24
-18.21
-19.48
-19.90
-19.39
-17.89
-15.43
-12.25
-8.73
-5.34
-2.47
-0.33
1.12
2.05
2.73
3.38
4.19
5.18
6.27
7.30
8.11
8.63
8.85
8.88
8.85
8.84
8.87
8.89
8.86
8.76
8.65
8.57
8.54
8.52
8.39
8.05
7.41
6.55
5.54
4.57
3.73
3.01
2.29
1.40
0.22
-1.23
-2.82
-4.37
-5.72
-6.92
-8.15
-9.64
-11.55
-13.81
-16.17
-18.23
-19.55
-19.85
-19.04
-17.23
-14.72
-11.89
-9.13
-6.69
-4.58
-2.72
-0.86
1.13
3.20
5.17
6.76
7.83
8.42
8.77
9.10
9.50
9.86
10.01
9.86
9.51
9.25
9.36
9.92
10.80
11.68
12.26
12.35
11.93
11.10
10.05
8.97
8.03
7.32
6.81
6.37
5.82
5.03
3.97
2.75
1.50
0.30
-0.89
-2.16
-3.62
-5.26
-7.00
-8.75
-10.50
-12.37
-14.48
-16.80
-19.12
-21.00
-21.96
-21.66
-20.12
-17.65
-14.80
-12.05
-9.70
-7.72
-5.95
-4.23
-2.54
-1.04
0.12
0.85
1.26
1.58
2.03
2.64
3.30
3.78
3.95
3.80
3.47
3.13
2.90
2.78
2.71
2.59
2.40
2.15
1.87
1.63
1.42
1.27
1.16
1.04
0.88
0.61
0.19
-0.38
-1.09
-1.82
-2.50
-3.09
-3.62
-4.22
-4.97
-5.91
-6.99
-8.09
-9.07
-9.84
-10.32
-10.44
-10.10
-9.16
-7.50
-5.17
-2.43
0.32
2.69
4.45
5.65
6.50
7.25
8.08
8.99
9.87
10.61
11.16
11.53
11.77
11.94
12.04
12.06
12.01
11.89
11.72
11.50
11.20
10.83
10.32
9.63
8.72
7.56
6.22
4.85
3.64
2.73
2.10
1.63
1.05
0.11
-1.29
-3.11
-5.11
-6.97
-8.44
-9.42
-10.02
-10.48
-11.08
-11.95
-13.11
-14.39
-15.61
-16.66
-17.53
-18.29
-18.97
-19.44
-19.47
-18.82
-17.35
-15.18
-12.62
-10.09
-7.89
-6.17
-4.86
-3.78
-2.81
-1.97
-1.33
-1.03
-1.03
-1.18
-1.22
-0.94
-0.29
0.58
1.39
1.98
2.27
2.42
2.63
3.06
3.67
4.27
4.64
4.61
4.20
3.61
3.12
2.89
2.98
3.24
3.40
3.18
2.44
1.26
-0.17
-1.55
-2.66
-3.42
-3.87
-4.15
-4.36
-4.58
-4.88
-5.33
-5.98
-6.87
-7.90
-8.86
-9.51
-9.71
-9.46
-8.91
-8.19
-7.33
-6.20
-4.60
-2.45
0.08
2.55
4.46
5.50
5.66
5.28
4.83
4.68
4.92
5.29
5.42
5.01
4.05
2.83
1.79
1.27
1.36
1.76
2.07
1.97
1.43
0.75
0.34
0.50
1.25
2.25
3.07
3.41
3.29
3.00
2.93
3.32
4.17
5.15
5.87
5.98
5.41
4.33
3.09
2.01
1.25
0.73
0.24
-0.47
-1.52
-2.91
-4.46
-5.99
-7.34
-8.39
-9.08
-9.32
-9.04
-8.20
-6.90
-5.37
-3.90
-2.70
-1.80
-1.09
-0.42
0.26
0.87
1.29
1.44
1.35
1.19
1.13
1.24
1.45
1.59
1.55
1.36
1.19
1.27
1.75
2.58
3.56
4.44
5.04
5.32
5.45
5.64
6.01
6.54
7.02
7.21
6.93
6.15
4.97
3.60
2.19
0.84
-0.46
-1.78
-3.20
-4.74
-6.34
-7.90
-9.33
-10.60
-11.74
-12.84
-13.91
-14.88
-15.54
-15.68
-15.16
-14.05
-12.58
-11.03
-9.60
-8.33
-7.15
-5.91
-4.59
-3.25
-2.06
-1.21
-0.75
-0.62
-0.62
-0.54
-0.26
0.16
0.60
0.88
0.94
0.84
0.73
0.77
0.98
1.28
1.54
1.67
1.69
1.69
1.80
2.01
2.27
2.48
2.55
2.46
2.28
2.05
1.83
1.56
1.16
0.50
-0.49
-1.81
-3.40
-5.11
-6.83
-8.48
-10.07
-11.77
-13.77
-16.20
-19.04
-22.09
-25.06
-27.62
-29.54
-30.70
-31.10
-30.82
-30.05
-29.10
-28.32
-28.09
-28.69
-30.22
-32.53
-35.29
-38.03
-40.22
-41.41
-41.25
-39.59
-36.43
-31.97
-26.42
-19.97
-12.73
-4.80
3.68
12.48
21.22
29.48
36.87
43.05
47.79
50.90
52.29
52.03
50.43
47.98
45.31
42.89
40.92
39.22
37.39
35.07
32.18
28.97
25.86
23.25
21.26
19.63
17.94
15.87
13.40
10.80
8.47
6.63
5.26
4.04
2.65
0.97
-0.80
-2.22
-2.87
-2.50
-1.24
0.51
2.21
3.44
4.04
4.14
4.09
4.22
4.68
5.37
6.01
6.35
6.29
5.92
5.48
5.20
5.22
5.51
5.92
6.28
6.43
6.31
5.94
5.43
4.95
4.65
4.61
4.71
4.77
4.60
4.16
3.53
2.86
2.24
1.62
0.84
-0.25
-1.63
-3.14
-4.52
-5.53
-6.12
-6.37
-6.50
-6.71
-7.10
-7.70
-8.42
-9.16
-9.80
-10.22
-10.30
-9.97
-9.18
-7.96
-6.39
-4.60
-2.74
-0.97
0.55
1.74
2.57
3.08
3.36
3.51
3.58
3.57
3.44
3.15
2.71
2.19
1.75
1.59
1.82
2.44
3.27
4.02
4.38
4.17
3.35
2.08
0.59
-0.83
-1.97
-2.75
-3.19
-3.46
-3.76
-4.31
-5.23
-6.48
-7.90
-9.23
-10.30
-11.01
-11.43
-11.70
-12.04
-12.63
-13.57
-14.91
-16.57
-18.38
-20.11
-21.47
-22.17
-22.00
-20.88
-18.89
-16.27
-13.38
-10.61
-8.23
-6.34
-4.88
-3.65
-2.47
-1.26
-0.06
1.07
2.01
2.75
3.31
3.76
4.21
4.79
5.61
6.72
8.10
9.62
11.04
12.15
12.78
12.93
12.69
12.24
11.74
11.33
11.05
10.89
10.74
10.47
9.94
9.06
7.90
6.59
5.34
4.29
3.46
2.73
1.90
0.81
-0.63
-2.43
-4.54
-6.96
-9.67
-12.56
-15.43
-17.88
-19.48
-19.86
-18.94
-16.95
-14.32
-11.60
-9.18
-7.24
-5.68
-4.26
-2.77
-1.13
0.52
1.96
3.01
3.63
4.00
4.37
4.89
5.53
6.11
6.41
6.37
6.11
5.92
6.05
6.56
7.26
7.84
8.06
7.86
7.43
7.02
6.82
6.86
6.97
6.90
6.48
5.67
4.59
3.48
2.50
1.72
1.09
0.48
-0.20
-0.99
-1.83
-2.66
-3.45
-4.24
-5.16
-6.35
-7.93
-9.89
-12.03
-13.98
-15.32
-15.67
-14.83
-12.88
-10.09
-6.85
-3.52
-0.41
2.35
4.71
6.76
8.60
10.41
12.27
14.16
15.86
17.07
17.55
17.24
16.41
15.51
14.97
15.08
15.80
16.85
17.83
18.44
18.53
18.11
17.29
16.24
15.07
13.87
12.71
11.61
10.57
9.55
8.46
7.25
5.77
3.95
1.81
-0.48
-2.66
-4.42
-5.59
-6.27
-6.88
-8.00
-10.14
-13.46
-17.64
-21.95
-25.58
-27.95
-28.97
-28.95
-28.33
-27.32
-25.74
-23.17
-19.32
-14.29
-8.73
-3.52
0.65
3.60
5.66
7.40
9.28
11.37
13.39
14.94
15.79
16.01
15.90
15.81
15.92
16.21
16.48
16.49
16.08
15.27
14.21
13.10
12.15
11.47
11.03
10.76
10.47
10.04
9.33
8.30
6.97
5.45
3.87
2.35
0.97
-0.32
-1.59
-2.91
-4.29
-5.68
-6.99
-8.24
-9.52
-11.00
-12.81
-14.91
-17.17
-19.34
-21.24
-22.69
-23.61
-23.83
-23.19
-21.58
-19.05
-15.88
-12.50
-9.27
-6.37
-3.74
-1.22
1.32
3.82
6.14
8.11
9.64
10.74
11.49
11.91
12.02
11.88
11.63
11.43
11.46
11.75
12.20
12.61
12.82
12.74
12.45
12.09
11.81
11.70
11.73
11.79
11.71
11.40
10.81
10.00
9.04
7.98
6.81
5.47
3.94
2.23
0.43
-1.34
-2.99
-4.51
-6.00
-7.61
-9.48
-11.64
-14.02
-16.52
-19.01
-21.37
-23.45
-25.04
-25.81
-25.43
-23.66
-20.54
-16.43
-11.96
-7.78
-4.35
-1.76
0.26
2.09
4.03
6.11
8.13
9.81
10.99
11.75
12.30
12.90
13.64
14.46
15.19
15.71
16.00
16.18
16.40
16.70
17.03
17.18
16.96
16.30
15.24
14.03
12.92
12.19
11.92
12.00
12.12
11.98
11.33
10.11
8.47
6.66
4.85
3.10
1.32
-0.61
-2.71
-4.92
-7.12
-9.23
-11.32
-13.58
-16.24
-19.23
-22.21
-24.50
-25.34
-24.25
-21.29
-17.09
-12.53
-8.45
-5.23
-2.78
-0.70
1.41
3.60
5.69
7.32
8.27
8.60
8.63
8.74
9.21
10.01
10.86
11.45
11.57
11.29
10.83
10.46
10.32
10.26
9.97
9.13
7.65
5.73
3.79
2.22
1.21
0.64
0.17
-0.51
-1.55
-2.88
-4.33
-5.70
-6.85
-7.79
-8.56
-9.25
-9.97
-10.88
-12.13
-13.88
-16.18
-18.93
-21.87
-24.63
-26.80
-28.06
-28.19
-27.16
-25.07
-22.14
-18.66
-14.89
-11.05
-7.31
-3.75
-0.44
2.57
5.22
7.46
9.32
10.92
12.40
13.89
15.43
16.93
18.26
19.26
19.83
19.97
19.79
19.42
18.97
18.55
18.18
17.84
17.47
16.99
16.38
15.58
14.63
13.58
12.50
11.45
10.38
9.21
7.82
6.17
4.32
2.50
0.91
-0.31
-1.23
-2.08
-3.16
-4.71
-6.80
-9.37
-12.19
-15.00
-17.51
-19.44
-20.52
-20.55
-19.47
-17.33
-14.39
-10.98
-7.44
-4.07
-1.07
1.52
3.73
5.67
7.44
9.03
10.42
11.49
12.18
12.51
12.61
12.68
12.87
13.25
13.75
14.23
14.52
14.52
14.21
13.63
12.82
11.80
10.54
8.97
7.06
4.91
2.74
0.89
-0.43
-1.17
-1.55
-1.98
-2.87
-4.41
-6.49
-8.75
-10.76
-12.25
-13.22
-13.88
-14.52
-15.35
-16.42
-17.65
-18.91
-20.07
-21.04
-21.71
-21.94
-21.55
-20.39
-18.39
-15.62
-12.27
-8.65
-5.09
-1.89
0.70
2.59
3.86
4.74
5.55
6.59
7.96
9.56
11.12
12.36
13.16
13.60
13.86
14.11
14.38
14.56
14.52
14.21
13.70
13.12
12.58
12.06
11.48
10.79
10.02
9.27
8.67
8.27
7.98
7.63
7.03
6.08
4.78
3.22
1.56
-0.07
-1.57
-2.91
-4.08
-5.10
-6.01
-6.83
-7.62
-8.49
-9.54
-10.78
-12.06
-13.00
-13.10
-11.91
-9.24
-5.44
-1.17
2.82
6.01
8.26
9.73
10.74
11.62
12.57
13.49
14.14
14.48
14.68
15.19
16.40
18.48
21.20
24.06
26.17
27.01
26.69
26.06
26.30
28.35
32.45
38.16
44.73
50.49
54.20
55.68
55.99
56.83
59.55
64.75
72.15
81.32
89.73
95.21
97.04
96.33
95.38
96.53
101.63
111.77
127.79
145.82
160.66
167.49
163.60
149.07
125.88
97.21
66.21
36.08
3.93
-34.35
-81.87
-138.88
-202.71
-270.12
-338.81
-408.51
-457.16
-467.62
-435.33
-373.35
-301.76
-233.74
-173.13
-118.32
-76.05
-40.81
-12.83
6.02
14.71
14.14
8.07
0.05
-2.86
6.79
31.18
53.43
61.72
54.04
29.63
-8.55
-55.96
-108.77
-165.43
-224.90
-276.87
-311.75
-324.50
-319.26
-304.28
-287.21
-271.89
-258.00
-239.87
-211.59
-176.73
-132.58
-80.81
-25.98
26.32
71.75
108.32
138.69
166.52
194.65
223.35
252.16
282.50
317.34
359.26
407.74
459.54
506.34
536.59
541.85
519.49
474.83
418.67
362.67
304.45
245.86
190.23
140.29
98.66
66.36
43.36
28.29
18.61
11.25
5.33
-0.00
-7.35
-18.06
-32.73
-51.15
-73.27
-99.31
-129.91
-164.67
-195.46
-218.55
-232.71
-238.75
-238.14
-232.88
-224.68
-214.85
-203.54
-191.09
-179.47
-170.20
-163.99
-160.10
-157.72
-155.72
-153.09
-148.96
-143.22
-137.46
-133.14
-134.01
-138.09
-143.42
-148.28
-151.44
-152.57
-152.22
-152.22
-154.60
-161.25
-173.19
-191.29
-214.77
-240.45
-262.90
-275.43
-272.95
-254.04
-221.87
-182.82
-144.55
-112.52
-88.18
-71.13
-59.50
-51.14
-44.77
-40.05
-36.69
-34.23
-31.59
-27.46
-21.26
-13.15
-4.10
4.41
11.20
15.97
19.24
22.17
26.06
31.80
39.79
49.84
61.22
73.19
85.33
97.85
111.59
127.75
147.35
171.06
198.77
229.58
262.48
296.70
331.90
367.89
404.06
439.13
471.50
499.92
523.94
543.88
559.79
570.41
572.91
563.69
540.27
502.99
455.27
402.73
351.26
305.09
266.04
233.92
207.79
186.96
171.37
160.79
154.51
151.17
148.84
145.76
140.82
133.52
124.16
113.33
101.05
87.03
71.00
52.95
33.33
12.82
-7.70
-27.20
-44.52
-60.19
-74.94
-89.03
-101.82
-112.22
-119.32
-122.82
-122.68
-118.52
-113.04
-108.68
-106.26
-104.68
-102.13
-97.76
-92.36
-87.39
-83.17
-84.62
-95.18
-114.84
-139.93
-165.76
-189.65
-212.19
-235.37
-259.56
-291.65
-336.37
-393.92
-460.16
-530.09
-601.67
-677.22
-759.48
-816.37
-824.84
-778.23
-691.74
-589.04
-486.65
-389.72
-297.37
-217.71
-140.45
-65.86
2.88
63.93
119.98
176.37
238.14
306.05
376.30
450.85
513.25
544.70
532.83
479.46
398.70
318.18
244.65
176.79
111.61
40.01
-44.61
-141.09
-240.92
-327.99
-385.16
-404.47
-389.07
-351.28
-309.64
-277.10
-260.66
-253.13
-246.78
-237.82
-227.76
-218.03
-207.37
-193.45
-171.95
-138.37
-90.80
-33.57
23.41
67.38
90.15
91.89
80.35
67.72
64.75
76.15
98.16
121.69
136.97
138.72
127.30
106.79
81.88
55.79
29.78
3.83
-21.74
-45.67
-65.88
-79.87
-86.34
-85.99
-81.01
-74.14
-67.70
-62.73
-58.97
-55.45
-50.84
-44.53
-37.08
-29.89
-24.52
-21.95
-22.13
-24.11
-26.64
-27.60
-25.77
-21.30
-15.68
-10.90
-8.34
-8.30
-9.98
-12.07
-10.23
-1.16
15.87
38.47
62.54
84.47
102.53
116.84
128.62
145.61
174.00
215.18
264.62
314.40
357.66
391.15
415.29
432.67
456.46
497.34
558.27
632.83
709.26
777.34
832.37
875.01
908.84
951.24
1016.83
1111.37
1229.60
1358.89
1486.10
1600.95
1695.92
1685.14
1514.37
1182.52
752.12
313.59
-64.21
-353.37
-557.64
-695.36
-787.17
-836.54
-842.16
-811.67
-759.69
-705.04
-663.07
-641.13
-639.21
-653.91
-666.43
-661.73
-633.95
-587.46
-532.94
-480.07
-439.56
-410.93
-390.34
-368.60
-339.46
-301.95
-260.33
-222.13
-194.45
-174.52
-160.41
-150.67
-143.66
-139.21
-138.52
-143.15
-154.14
-171.08
-190.61
-210.64
-229.84
-250.20
-274.60
-304.63
-339.49
-376.05
-410.13
-436.10
-452.93
-461.85
-470.35
-486.37
-515.20
-558.18
-613.65
-679.37
-750.59
-826.06
-871.87
-861.53
-784.58
-653.11
-494.79
-337.93
-216.69
-126.53
-58.55
-4.37
37.42
65.58
82.23
90.86
96.97
106.63
129.39
168.04
220.97
279.25
331.02
370.59
398.18
418.38
437.53
466.43
509.16
563.94
621.69
668.45
698.24
711.25
711.49
705.36
705.50
720.78
755.20
805.57
859.85
910.43
950.72
974.46
943.43
838.29
666.23
461.66
292.19
167.44
79.28
16.23
-37.33
-87.77
-132.14
-167.10
-192.49
-212.52
-237.31
-268.64
-303.91
-339.41
-370.89
-392.25
-400.57
-397.13
-387.25
-380.45
-379.54
-383.65
-391.12
-400.38
-409.65
-419.79
-434.04
-456.63
-491.34
-534.05
-575.24
-604.12
-612.45
-597.01
-561.48
-514.06
-464.17
-419.52
-382.09
-349.44
-318.14
-286.18
-253.94
-223.69
-197.02
-174.37
-154.91
-137.28
-118.82
-97.35
-72.15
-44.79
-18.17
6.71
29.99
53.27
76.72
103.01
135.70
178.34
231.93
294.37
362.82
430.50
486.89
516.70
511.65
472.83
411.76
344.59
286.87
252.26
245.56
262.69
289.72
317.31
342.14
367.30
396.47
408.01
385.43
321.17
249.09
175.79
101.16
14.08
-82.60
-179.25
-263.57
-322.07
-348.10
-343.95
-323.68
-298.68
-275.62
-254.85
-235.69
-218.44
-202.56
-189.05
-179.46
-178.16
-184.38
-194.27
-202.75
-207.91
-210.98
-213.35
-216.63
-221.63
-230.10
-240.33
-248.96
-252.19
-248.52
-238.77
-224.34
-207.10
-188.58
-170.77
-153.84
-137.03
-119.24
-100.34
-81.15
-62.64
-45.71
-30.84
-18.32
-7.58
2.33
12.23
22.30
31.93
40.03
45.36
46.95
44.33
37.65
27.54
14.88
0.55
-14.70
-30.21
-45.29
-59.00
-70.08
-77.12
-78.89
-74.78
-65.24
-51.82
-36.87
-22.85
-11.60
-3.81
1.04
4.19
6.85
9.51
11.69
12.35
10.73
7.19
3.61
3.10
9.11
24.37
50.21
86.16
130.02
178.03
225.28
266.50
297.29
315.45
321.87
320.30
316.08
314.05
316.91
324.80
336.12
349.23
363.96
382.07
406.03
436.80
471.75
504.41
526.13
529.38
510.91
473.16
422.95
368.19
314.77
265.11
218.59
173.27
127.74
82.50
40.28
5.78
-15.62
-19.92
-6.95
17.98
44.34
59.43
53.51
23.83
-24.05
-78.68
-127.63
-161.99
-178.25
-177.25
-161.96
-135.89
-103.25
-69.33
-40.56
-22.98
-20.20
-31.62
-52.47
-75.54
-93.93
-103.20
-102.16
-92.21
-76.02
-56.44
-36.07
-17.22
-1.78
9.09
15.52
19.12
22.52
28.32
38.02
51.29
66.05
79.38
88.63
92.35
90.58
84.43
75.47
65.15
54.50
44.23
34.74
26.05
17.86
9.59
0.68
-9.04
-19.26
-29.47
-39.38
-49.31
-59.89
-71.46
-83.46
-94.36
-102.25
-105.87
-105.32
-102.09
-98.30
-95.62
-94.65
-95.05
-96.29
-98.16
-100.74
-103.57
-105.00
-102.31
-92.96
-76.40
-55.13
-34.13
-18.69
-11.90
-13.17
-18.77
-23.94
-25.35
-22.38
-16.57
-10.01
-3.78
2.47
9.81
18.74
28.44
37.08
42.66
44.12
41.70
36.73
30.99
25.93
22.21
19.61
17.31
14.43
10.52
5.79
1.10
-2.54
-4.41
-4.49
-3.46
-2.31
-1.92
-2.61
-4.10
-5.76
-7.03
-7.77
-8.31
-9.18
-10.77
-13.12
-15.86
-18.42
-20.37
-21.60
-22.30
-22.80
-23.28
-23.75
-23.94
-23.56
-22.40
-20.38
-17.64
-14.43
-11.09
-7.90
-5.05
-2.60
-0.53
1.12
2.19
2.49
1.93
0.66
-0.92
-2.24
-2.85
-2.60
-1.69
-0.54
0.43
1.01
1.25
1.35
1.53
1.85
2.26
2.60
2.71
2.53
2.11
1.55
0.98
0.44
-0.11
-0.77
-1.65
-2.79
-4.12
-5.55
-6.98
-8.38
-9.82
-11.38
-13.13
-14.97
-16.70
-17.96
-18.49
-18.22
-17.33
-16.22
-15.27
-14.67
-14.28
-13.80
-12.90
-11.49
-9.75
-7.98
-6.40
-4.98
-3.53
-1.82
0.21
2.35
4.29
5.77
6.73
7.31
7.73
8.08
8.23
7.88
6.73
4.68
1.92
-1.08
-3.78
-5.70
-6.70
-6.94
-6.87
-7.03
-7.83
-9.43
-11.67
-14.18
-16.47
-18.06
-18.55
-17.75
-15.64
-12.43
-8.50
-4.26
-0.02
4.06
7.98
11.82
15.47
18.59
20.90
22.08
22.05
21.06
19.66
18.61
18.82
20.85
24.57
29.15
33.11
34.88
33.60
29.68
24.76
21.24
20.80
23.52
28.08
32.13
33.67
32.13
28.71
25.57
24.86
27.41
32.23
38.35
44.55
50.04
54.41
57.64
59.22
59.32
58.00
55.28
53.72
55.82
62.83
74.00
87.16
99.06
109.19
118.26
127.17
139.97
159.08
183.91
210.79
235.26
252.93
265.11
275.34
286.52
304.33
331.26
365.07
399.39
426.72
439.66
438.27
426.15
378.89
284.51
146.76
-14.18
-173.06
-298.37
-393.81
-467.01
-522.27
-560.87
-578.81
-571.21
-537.77
-484.90
-423.42
-367.70
-325.33
-293.66
-267.39
-238.92
-207.04
-174.28
-145.94
-126.73
-119.41
-120.02
-122.57
-123.27
-118.89
-108.80
-94.36
-78.09
-62.31
-49.16
-37.89
-27.31
-17.61
-8.77
-1.06
5.22
9.60
11.91
12.02
11.16
10.63
10.70
11.29
11.88
11.81
10.41
7.32
2.54
-3.05
-8.32
-12.54
-15.47
-17.33
-18.48
-19.42
-20.49
-21.79
-23.22
-24.58
-25.83
-27.03
-28.29
-29.54
-30.55
-30.93
-30.27
-28.37
-25.35
-21.65
-17.90
-14.62
-12.07
-10.12
-8.35
-6.23
-3.33
0.46
4.81
8.97
12.02
13.22
12.33
9.82
6.81
4.71
4.70
7.30
12.28
18.71
25.19
30.23
32.63
31.90
28.58
24.27
21.16
21.22
25.24
32.32
40.27
46.64
49.99
50.65
50.36
51.11
53.73
57.32
59.85
59.50
55.93
50.33
44.36
38.85
33.33
26.92
19.80
13.68
10.56
10.57
10.68
5.85
-7.83
-29.97
-55.08
-75.08
-83.68
-80.10
-69.32
-59.14
-55.68
-60.37
-69.96
-79.22
-84.34
-84.74
-82.42
-79.92
-78.46
-77.00
-73.07
-64.57
-51.14
-34.90
-19.71
-9.31
-5.57
-7.39
-11.08
-12.09
-7.09
4.44
20.11
35.67
46.78
50.60
46.52
36.19
22.76
9.72
-0.00
-4.89
-5.08
-2.02
2.59
7.83
14.00
21.68
30.38
37.42
38.50
29.87
10.96
-14.49
-39.87
-59.08
-69.67
-73.86
-76.56
-81.88
-90.30
-98.42
-101.25
-95.39
-80.92
-61.16
-40.58
-22.49
-7.97
3.80
14.33
24.46
33.83
41.09
44.30
41.62
31.83
15.03
-6.62
-28.96
-46.48
-54.19
-49.68
-34.53
-14.14
4.33
14.51
13.15
0.64
-19.82
-43.73
-66.27
-82.75
-88.52
-79.85
-55.78
-19.75
19.86
51.29
62.90
47.24
4.03
-59.11
-128.49
-188.22
-224.43
-228.66
-199.38
-141.56
-64.93
18.41
96.39
158.95
199.48
216.10
212.05
194.90
174.75
160.76
157.95
165.45
177.20
185.05
182.74
168.37
144.88
118.25
94.50
77.36
67.47
62.95
60.83
58.43
53.85
46.12
35.40
22.79
10.26
-0.04
-7.03
-11.79
-17.81
-29.69
-50.72
-80.51
-114.08
-143.10
-158.71
-154.60
-128.55
-82.35
-20.64
50.22
122.72
188.36
238.41
265.42
265.13
237.74
187.75
122.39
49.69
-23.00
-89.18
-142.86
-178.47
-191.87
-182.10
-152.81
-112.22
-71.03
-39.24
-22.99
-22.97
-34.80
-51.22
-65.19
-72.22
-71.39
-64.71
-55.43
-46.33
-38.75
-32.81
-28.26
-25.16
-23.98
-25.17
-28.42
-32.44
-35.25
-35.16
-31.73
-26.02
-20.33
-17.05
-17.60
-21.74
-27.67
-32.93
-35.52
-34.79
-31.70
-28.20
-26.29
-27.08
-30.30
-34.46
-37.51
-37.63
-33.82
-26.17
-15.76
-4.30
6.40
14.87
20.46
23.37
24.55
25.15
26.05
27.53
29.26
30.65
31.23
30.93
30.07
29.10
28.25
27.45
26.35
24.61
22.05
18.86
15.43
12.22
9.59
7.67
6.41
5.57
4.89
4.12
3.15
1.97
0.67
-0.59
-1.62
-2.27
-2.45
-2.16
-1.51
-0.75
-0.23
-0.45
-1.92
-5.05
-9.83
-15.68
-21.36
-25.33
-26.28
-23.69
-17.98
-10.38
-2.26
5.35
12.03
17.81
22.75
26.60
28.86
29.08
27.12
23.27
17.95
11.24
2.71
-8.21
-21.42
-35.48
-47.60
-54.62
-54.27
-46.37
-32.95
-17.46
-3.40
6.81
12.17
12.81
9.32
2.43
-6.80
-16.44
-23.43
-24.20
-15.97
1.76
26.43
52.84
74.78
87.22
87.88
77.84
60.72
41.12
23.17
9.59
1.54
-1.04
0.84
5.59
11.31
16.13
18.70
18.55
16.04
11.97
7.10
1.93
-3.26
-8.13
-12.09
-14.45
-14.80
-13.21
-10.40
-7.36
-4.95
-3.58
-3.15
-3.23
-3.34
-3.18
-2.82
-2.43
-2.19
-2.13
-2.07
-1.70
-0.80
0.60
2.08
3.06
3.11
2.21
0.87
-0.15
-0.20
0.97
3.00
5.21
6.92
7.71
7.55
6.70
5.46
4.16
2.98
2.07
1.50
1.31
1.38
1.51
1.46
1.17
0.61
-0.09
-0.83
-1.59
-2.44
-3.49
-4.81
-6.36
-8.00
-9.59
-11.04
-12.40
-13.78
-15.22
-16.62
-17.67
-17.95
-17.18
-15.34
-12.75
-9.85
-7.04
-4.40
-1.75
1.19
4.56
8.15
11.46
13.91
15.15
15.16
14.34
13.29
12.55
12.44
12.98
13.95
15.09
16.28
17.58
19.16
21.24
23.88
26.90
29.98
32.78
35.09
36.94
38.52
40.04
41.67
43.51
45.67
48.33
51.60
55.37
59.01
61.38
61.12
57.20
49.46
38.90
27.45
17.34
10.14
6.16
4.29
2.43
-1.63
-9.34
-20.88
-35.20
-50.66
-65.93
-80.44
-94.41
-108.26
-122.08
-135.18
-146.40
-154.46
-158.32
-157.09
-149.85
-135.79
-114.83
-88.31
-59.41
-32.58
-12.05
-0.20
3.43
1.78
-1.29
-2.72
-1.33
2.20
6.29
9.60
11.74
13.18
14.76
16.98
19.81
22.67
24.88
26.03
26.21
25.87
25.49
25.31
25.21
24.79
23.62
21.52
18.62
15.41
12.49
10.38
9.25
8.90
8.79
8.32
7.10
5.17
3.01
1.39
1.00
2.07
4.27
6.83
8.86
9.79
9.58
8.66
7.76
7.42
7.85
8.85
10.02
10.99
11.57
11.88
12.16
12.58
13.13
13.63
13.81
13.55
12.92
12.13
11.44
10.92
10.47
9.89
9.01
7.85
6.59
5.48
4.68
4.15
3.74
3.29
2.72
2.08
1.51
1.08
0.77
0.44
-0.05
-0.82
-1.84
-3.02
-4.29
-5.58
-6.88
-8.19
-9.48
-10.64
-11.52
-11.92
-11.67
-10.62
-8.74
-6.19
-3.29
-0.47
1.92
3.68
4.82
5.51
5.94
6.27
6.51
6.65
6.65
6.55
6.35
6.07
5.78
5.53
5.43
5.54
5.87
6.29
6.62
6.69
6.46
6.03
5.60
5.31
5.15
4.97
4.59
3.97
3.25
2.74
2.67
3.01
3.49
3.66
3.14
1.87
0.14
-1.54
-2.72
-3.21
-3.18
-2.99
-3.05
-3.55
-4.43
-5.46
-6.43
-7.25
-7.94
-8.55
-9.00
-9.10
-8.56
-7.26
-5.29
-3.03
-0.92
0.70
1.72
2.30
2.75
3.31
4.08
4.96
5.70
6.10
6.05
5.60
5.00
4.53
4.41
4.68
5.16
5.59
5.72
5.48
4.98
4.43
4.00
3.69
3.38
2.91
2.20
1.33
0.48
-0.15
-0.51
-0.75
-1.11
-1.78
-2.85
-4.16
-5.49
-6.61
-7.54
-8.46
-9.60
-11.02
-12.45
-13.36
-13.14
-11.43
-8.29
-4.27
-0.12
3.47
6.18
7.99
9.18
10.02
10.68
11.15
11.28
10.94
10.05
8.67
7.04
5.54
4.58
4.50
5.32
6.71
8.02
8.57
7.97
6.32
4.19
2.33
1.34
1.35
2.07
3.00
3.70
4.03
4.09
4.07
4.04
3.87
3.36
2.33
0.83
-0.92
-2.58
-3.86
-4.66
-5.08
-5.36
-5.80
-6.57
-7.71
-9.10
-10.50
-11.67
-12.40
-12.58
-12.21
-11.32
-9.99
-8.35
-6.57
-4.82
-3.25
-1.92
-0.77
0.37
1.62
2.99
4.32
5.33
5.83
5.79
5.42
5.12
5.21
5.78
6.64
7.42
7.77
7.56
6.97
6.38
6.15
6.41
6.98
7.45
7.36
6.49
4.94
3.12
1.54
0.60
0.44
0.94
1.79
2.64
3.24
3.49
3.40
3.03
2.40
1.52
0.36
-1.02
-2.50
-3.91
-5.12
-6.17
-7.20
-8.39
-9.82
-11.31
-12.40
-12.61
-11.61
-9.45
-6.57
-3.55
-0.93
1.06
2.46
3.38
3.93
4.11
3.96
3.63
3.48
3.88
4.96
6.43
7.68
8.10
7.44
6.05
4.65
3.93
4.23
5.20
6.19
6.51
5.93
4.71
3.50
2.84
2.95
3.42
3.64
3.12
1.82
0.25
-0.86
-0.97
-0.09
1.05
1.51
0.64
-1.48
-4.05
-5.90
-6.21
-4.97
-3.01
-1.60
-1.69
-3.44
-6.16
-8.68
-9.98
-9.54
-7.69
-5.15
-2.72
-0.88
0.30
1.08
1.75
2.53
3.38
4.14
4.65
4.83
4.76
4.60
4.49
4.56
4.72
4.87
4.89
4.74
4.52
4.36
4.35
4.50
4.72
4.84
4.74
4.37
3.79
3.13
2.53
2.15
2.04
2.16
2.33
2.38
2.14
1.60
0.83
0.00
-0.73
-1.29
-1.66
-1.93
-2.16
-2.47
-2.92
-3.53
-4.30
-5.16
-6.01
-6.76
-7.33
-7.66
-7.64
-7.17
-6.16
-4.67
-2.93
-1.32
-0.17
0.37
0.41
0.24
0.21
0.49
1.06
1.73
2.31
2.70
2.95
3.18
3.48
3.83
4.13
4.24
4.08
3.67
3.12
2.64
2.38
2.43
2.72
3.05
3.19
2.96
2.38
1.56
0.73
0.05
-0.43
-0.79
-1.18
-1.69
-2.31
-2.91
-3.34
-3.50
-3.41
-3.21
-3.10
-3.23
-3.66
-4.32
-5.08
-5.83
-6.55
-7.31
-8.19
-9.14
-9.99
-10.42
-10.17
-9.12
-7.44
-5.47
-3.60
-2.13
-1.13
-0.51
-0.11
0.24
0.63
1.08
1.63
2.28
3.05
3.93
4.91
5.90
6.81
7.49
7.81
7.74
7.37
6.89
6.48
6.24
6.12
5.97
5.60
4.94
4.06
3.20
2.56
2.25
2.18
2.12
1.82
1.17
0.22
-0.75
-1.48
-1.82
-1.85
-1.85
-2.11
-2.75
-3.68
-4.65
-5.46
-6.09
-6.69
-7.44
-8.33
-9.13
-9.42
-8.90
-7.57
-5.78
-4.01
-2.67
-1.86
-1.39
-0.94
-0.28
0.55
1.25
1.55
1.37
0.88
0.46
0.45
1.02
2.02
3.16
4.11
4.65
4.79
4.64
4.37
4.14
3.99
3.88
3.74
3.49
3.14
2.76
2.46
2.37
2.47
2.63
2.66
2.39
1.79
1.02
0.30
-0.16
-0.31
-0.25
-0.21
-0.42
-1.01
-1.97
-3.13
-4.28
-5.21
-5.76
-5.87
-5.58
-4.96
-4.12
-3.20
-2.33
-1.62
-1.15
-0.94
-0.89
-0.91
-0.87
-0.74
-0.54
-0.40
-0.37
-0.43
-0.42
-0.20
0.32
1.06
1.84
2.45
2.79
2.85
2.73
2.50
2.22
1.90
1.58
1.35
1.27
1.37
1.54
1.63
1.50
1.09
0.46
-0.29
-1.07
-1.88
-2.72
-3.61
-4.52
-5.35
-5.96
-6.27
-6.28
-6.04
-5.71
-5.38
-5.18
-5.16
-5.22
-5.19
-4.82
-3.92
-2.42
-0.53
1.44
3.08
4.16
4.61
4.61
4.41
4.24
4.19
4.24
4.36
4.56
4.94
5.53
6.25
6.86
7.05
6.55
5.32
3.63
1.94
0.67
0.04
-0.09
-0.03
-0.14
-0.59
-1.29
-1.99
-2.45
-2.63
-2.67
-2.84
-3.34
-4.21
-5.28
-6.28
-6.96
-7.20
-7.07
-6.75
-6.40
-6.11
-5.87
-5.66
-5.51
-5.58
-6.06
-7.10
-8.61
-10.23
-11.43
-11.72
-10.88
-9.07
-6.81
-4.68
-3.11
-2.20
-1.73
-1.34
-0.73
0.18
1.20
2.06
2.57
2.72
2.71
2.81
3.14
3.62
3.99
4.00
3.54
2.77
2.03
1.62
1.71
2.20
2.83
3.32
3.46
3.23
2.75
2.19
1.70
1.34
1.06
0.70
0.14
-0.69
-1.65
-2.48
-2.87
-2.66
-1.95
-1.08
-0.46
-0.35
-0.74
-1.37
-1.94
-2.26
-2.38
-2.52
-2.86
-3.39
-3.86
-3.89
-3.21
-1.84
-0.15
1.33
2.17
2.27
1.92
1.60
1.70
2.28
3.03
3.50
3.41
2.85
2.28
2.22
2.95
4.35
5.91
7.06
7.43
7.07
6.30
5.55
5.08
4.86
4.74
4.50
4.05
3.41
2.55
1.38
-0.21
-2.19
-4.28
-6.03
-6.95
-6.83
-5.76
-4.19
-2.64
-1.53
-1.03
-1.06
-1.34
-1.48
-1.21
-0.34
0.94
2.21
2.88
2.52
1.07
-1.01
-3.16
-4.82
-5.78
-6.12
-5.98
-5.37
-4.18
-2.36
-0.21
1.68
2.65
2.43
1.30
0.07
-0.43
0.20
1.56
2.82
3.10
2.09
0.24
-1.51
-2.23
-1.58
0.03
1.71
2.60
2.42
1.49
0.53
0.15
0.55
1.39
2.14
2.40
2.12
1.57
1.16
1.10
1.38
1.75
1.90
1.62
0.89
-0.15
-1.24
-2.12
-2.58
-2.64
-2.45
-2.26
-2.30
-2.59
-2.98
-3.16
-2.88
-2.02
-0.67
0.86
2.25
3.20
3.63
3.62
3.45
3.36
3.52
3.88
4.24
4.35
4.04
3.35
2.48
1.71
1.21
1.02
1.04
1.11
1.19
1.30
1.51
1.87
2.32
2.75
3.04
3.11
2.99
2.75
2.55
2.48
2.56
2.71
2.78
2.60
2.09
1.30
0.39
-0.45
-1.10
-1.61
-2.16
-2.94
-4.06
-5.44
-6.90
-8.20
-9.15
-9.65
-9.70
-9.34
-8.61
-7.60
-6.41
-5.19
-4.12
-3.36
-2.98
-2.89
-2.91
-2.83
-2.47
-1.74
-0.74
0.38
1.38
2.08
2.45
2.59
2.68
2.91
3.36
3.95
4.52
4.88
4.90
4.55
3.89
3.05
2.16
1.34
0.65
0.11
-0.30
-0.61
-0.85
-1.03
-1.13
-1.14
-1.12
-1.17
-1.33
-1.63
-1.99
-2.31
-2.54
-2.71
-2.91
-3.24
-3.72
-4.25
-4.68
-4.83
-4.59
-3.95
-2.93
-1.66
-0.30
0.94
1.90
2.53
2.94
3.29
3.73
4.21
4.59
4.72
4.59
4.34
4.19
4.27
4.49
4.62
4.44
3.88
3.13
2.46
2.09
2.07
2.26
2.48
2.64
2.76
2.89
3.00
2.98
2.71
2.15
1.39
0.59
-0.07
-0.50
-0.77
-1.01
-1.32
-1.77
-2.33
-2.91
-3.46
-4.00
-4.62
-5.46
-6.58
-7.92
-9.23
-10.15
-10.35
-9.63
-8.05
-5.96
-3.81
-2.00
-0.75
-0.03
0.37
0.77
1.35
2.11
2.91
3.48
3.64
3.35
2.78
2.26
2.07
2.32
2.90
3.51
3.84
3.75
3.32
2.82
2.57
2.74
3.28
3.95
4.48
4.65
4.46
4.07
3.68
3.43
3.34
3.25
2.99
2.39
1.46
0.37
-0.66
-1.42
-1.89
-2.21
-2.59
-3.21
-4.06
-4.89
-5.38
-5.28
-4.54
-3.36
-2.08
-1.01
-0.28
0.18
0.54
0.96
1.45
1.93
2.24
2.23
1.90
1.33
0.72
0.28
0.10
0.14
0.24
0.21
-0.04
-0.41
-0.67
-0.60
-0.14
0.53
1.08
1.26
0.98
0.47
0.06
-0.01
0.32
0.82
1.18
1.16
0.71
-0.01
-0.76
-1.35
-1.75
-2.05
-2.42
-2.98
-3.73
-4.56
-5.26
-5.66
-5.64
-5.21
-4.42
-3.38
-2.21
-0.98
0.26
1.42
2.42
3.17
3.58
3.65
3.39
2.89
2.31
1.75
1.28
0.89
0.54
0.19
-0.14
-0.28
-0.07
0.62
1.72
2.95
3.93
4.36
4.14
3.48
2.73
2.20
2.02
2.06
2.10
1.96
1.62
1.22
0.96
0.93
1.05
1.09
0.80
0.06
-1.05
-2.31
-3.46
-4.41
-5.23
-6.11
-7.23
-8.58
-9.92
-10.84
-10.99
-10.20
-8.63
-6.65
-4.72
-3.18
-2.10
-1.35
-0.68
0.08
0.99
1.94
2.77
3.37
3.74
4.03
4.37
4.84
5.36
5.72
5.68
5.17
4.31
3.43
2.90
2.95
3.54
4.40
5.12
5.40
5.12
4.42
3.56
2.78
2.19
1.76
1.37
0.93
0.41
-0.17
-0.75
-1.31
-1.89
-2.56
-3.34
-4.15
-4.83
-5.20
-5.17
-4.88
-4.59
-4.61
-5.08
-5.88
-6.64
-6.90
-6.38
-5.10
-3.39
-1.71
-0.41
0.39
0.81
1.09
1.44
1.94
2.55
3.14
3.61
3.93
4.16
4.38
4.58
4.74
4.77
4.61
4.24
3.76
3.37
3.28
3.59
4.22
4.96
5.53
5.80
5.86
6.03
6.52
7.33
8.12
8.30
7.38
5.29
2.43
-0.54
-3.16
-5.33
-7.39
-9.70
-12.39
-15.05
-17.08
-17.99
-17.90
-17.37
-17.18
-17.75
-18.92
-19.98
-20.13
-18.93
-16.67
-14.00
-11.62
-9.77
-8.15
-6.21
-3.69
-0.89
1.24
1.72
0.22
-2.58
-5.15
-5.74
-3.20
2.53
10.34
18.60
25.87
31.39
35.20
37.80
39.62
40.79
40.98
39.78
37.00
32.89
28.09
23.31
19.04
15.31
11.75
7.87
3.39
-1.52
-6.29
-10.23
-12.83
-13.93
-13.87
-13.20
-12.55
-12.30
-12.50
-12.94
-13.29
-13.31
-12.96
-12.38
-11.77
-11.22
-10.68
-9.95
-8.87
-7.41
-5.73
-4.09
-2.74
-1.77
-1.11
-0.60
-0.10
0.43
0.96
1.40
1.73
1.95
2.14
2.34
2.53
2.71
2.87
3.04
3.27
3.57
3.85
3.97
3.84
3.47
3.04
2.78
2.82
3.10
3.38
3.37
2.90
2.01
0.94
-0.07
-0.87
-1.43
-1.84
-2.19
-2.49
-2.71
-2.83
-2.85
-2.87
-3.03
-3.44
-4.14
-5.06
-6.05
-6.86
-7.31
-7.31
-6.92
-6.30
-5.62
-4.99
-4.42
-3.79
-3.03
-2.13
-1.17
-0.27
0.48
1.09
1.64
2.25
2.96
3.71
4.42
4.95
5.27
5.41
5.53
5.78
6.26
6.91
7.58
8.03
8.11
7.82
7.31
6.84
6.63
6.77
7.22
7.82
8.36
8.70
8.76
8.56
8.20
7.75
7.31
6.95
6.76
6.77
6.99
7.24
7.11
6.04
3.45
-1.00
-7.18
-14.56
-22.22
-29.34
-35.32
-39.88
-42.91
-44.22
-43.49
-40.32
-34.52
-26.47
-17.12
-7.81
0.13
5.87
9.29
10.85
11.32
11.32
11.15
10.76
10.01
8.88
7.62
6.61
6.23
6.51
7.19
7.82
7.94
7.34
6.19
4.88
3.89
3.47
3.63
4.12
4.60
4.86
4.85
4.71
4.57
4.46
4.22
3.71
2.85
1.79
0.79
0.11
-0.09
0.13
0.61
1.09
1.40
1.46
1.23
0.78
0.17
-0.54
-1.36
-2.31
-3.37
-4.45
-5.31
-5.66
-5.20
-3.90
-1.96
0.18
2.11
3.59
4.64
5.49
6.35
7.30
8.20
8.77
8.76
8.13
7.06
5.94
5.20
5.09
5.55
6.20
6.53
6.04
4.53
2.19
-0.53
-3.05
-4.99
-6.22
-6.94
-7.45
-8.01
-8.67
-9.26
-9.43
-8.88
-7.41
-5.06
-2.09
1.13
4.18
6.69
8.43
9.26
9.21
8.38
7.00
5.32
3.59
2.00
0.65
-0.49
-1.56
-2.74
-4.20
-6.02
-8.16
-10.36
-12.29
-13.61
-14.08
-13.67
-12.56
-11.06
-9.58
-8.46
-7.90
-7.95
-8.47
-9.19
-9.78
-9.97
-9.67
-8.95
-8.08
-7.37
-7.04
-7.09
-7.32
-7.37
-6.92
-5.77
-3.92
-1.62
0.78
2.96
4.69
5.89
6.60
6.96
7.13
7.21
7.25
7.21
7.10
6.95
6.81
6.80
6.98
7.34
7.79
8.13
8.23
7.97
7.36
6.56
5.81
5.35
5.32
5.75
6.53
7.51
8.61
9.86
11.34
13.06
14.93
16.64
17.88
18.37
18.06
17.13
15.83
14.36
12.79
10.98
8.75
6.00
2.78
-0.69
-4.13
-7.34
-10.28
-13.07
-15.79
-18.39
-20.64
-22.20
-22.85
-22.56
-21.53
-20.06
-18.42
-16.74
-15.02
-13.25
-11.46
-9.74
-8.16
-6.71
-5.33
-3.91
-2.43
-0.93
0.54
1.91
3.16
4.26
5.15
5.67
5.68
5.10
3.99
2.56
1.10
-0.08
-0.74
-0.76
-0.13
1.06
2.56
4.10
5.36
6.07
6.09
5.42
4.24
2.81
1.41
0.23
-0.64
-1.21
-1.56
-1.80
-1.98
-2.17
-2.41
-2.74
-3.16
-3.62
-3.93
-3.91
-3.41
-2.39
-1.06
0.26
1.22
1.59
1.37
0.77
0.14
-0.22
-0.20
0.04
0.23
0.13
-0.31
-0.87
-1.22
-1.11
-0.55
0.15
0.49
0.11
-1.08
-2.77
-4.42
-5.50
-5.66
-4.87
-3.46
-1.88
-0.51
0.41
0.92
1.06
0.93
0.55
-0.07
-0.86
-1.60
-2.03
-2.03
-1.74
-1.53
-1.76
-2.53
-3.52
-4.09
-3.71
-2.25
-0.18
1.69
2.70
2.63
1.86
1.08
0.86
1.39
2.25
2.80
2.58
1.58
0.28
-0.62
-0.67
0.06
0.92
1.12
0.16
-1.82
-4.04
-5.57
-5.78
-4.74
-3.29
-2.52
-3.17
-5.23
-7.93
-10.18
-11.09
-10.40
-8.52
-6.25
-4.32
-3.09
-2.50
-2.21
-1.92
-1.44
-0.83
-0.21
0.30
0.73
1.18
1.73
2.35
2.97
3.43
3.66
3.70
3.63
3.59
3.61
3.65
3.59
3.38
3.05
2.72
2.52
2.50
2.58
2.61
2.46
2.09
1.53
0.85
0.12
-0.65
-1.44
-2.27
-3.07
-3.78
-4.40
-4.95
-5.54
-6.33
-7.41
-8.77
-10.26
-11.56
-12.30
-12.24
-11.34
-9.83
-8.08
-6.48
-5.23
-4.27
-3.38
-2.32
-0.95
0.62
2.17
3.49
4.47
5.20
5.87
6.64
7.49
8.24
8.63
8.51
7.97
7.34
6.97
7.07
7.51
7.91
7.86
7.15
5.96
4.69
3.77
3.41
3.53
3.81
3.90
3.60
2.88
1.90
0.80
-0.25
-1.17
-1.93
-2.54
-3.05
-3.54
-4.05
-4.61
-5.25
-5.98
-6.82
-7.73
-8.63
-9.24
-9.27
-8.48
-6.82
-4.55
-2.09
0.12
1.86
3.15
4.25
5.37
6.65
8.06
9.45
10.71
11.81
12.83
13.89
15.01
16.10
17.02
17.66
17.99
18.18
18.51
19.16
20.17
21.29
22.07
22.00
20.82
18.72
16.37
14.79
14.89
17.06
20.74
24.43
26.17
24.19
17.68
7.15
-5.75
-18.78
-29.88
-37.77
-42.14
-43.55
-43.06
-41.90
-41.14
-41.50
-43.20
-45.87
-48.57
-49.99
-48.85
-44.50
-37.18
-28.11
-19.08
-11.81
-7.26
-5.36
-5.04
-4.91
-3.83
-1.50
1.64
4.71
7.08
8.67
9.92
11.44
13.52
16.02
18.44
20.34
21.62
22.59
23.73
25.27
26.98
28.25
28.52
27.55
25.51
22.95
20.55
18.80
17.90
17.77
18.11
18.74
19.47
20.04
20.22
19.86
19.07
18.09
17.25
16.84
17.35
19.00
21.57
24.48
27.17
29.46
31.64
34.30
38.02
43.62
51.17
59.84
68.11
74.54
78.47
80.13
80.43
80.71
83.22
89.70
100.47
113.80
126.08
132.81
129.94
115.30
84.98
40.82
-9.94
-57.34
-93.61
-116.29
-127.54
-131.08
-129.81
-125.23
-117.29
-106.41
-94.08
-82.53
-73.56
-67.72
-64.23
-61.55
-58.32
-53.26
-46.13
-37.83
-29.87
-23.52
-19.21
-16.48
-14.37
-11.94
-8.31
-3.20
2.84
8.86
13.96
17.66
19.98
21.23
21.75
21.78
21.52
20.82
19.34
16.90
13.58
9.68
5.57
1.51
-2.25
-5.37
-7.55
-8.12
-6.27
-1.49
6.08
15.56
25.55
34.72
42.41
48.28
52.64
56.03
58.93
61.74
64.96
69.14
74.81
82.15
90.24
97.78
103.50
106.59
106.90
104.85
100.84
94.64
88.30
82.11
75.83
69.13
61.90
54.25
46.51
38.99
32.01
25.86
20.40
15.74
12.15
9.94
9.24
9.86
11.25
12.73
13.78
13.91
13.18
11.96
10.77
9.93
9.49
9.28
9.08
8.85
8.49
8.16
8.04
8.22
8.59
8.86
8.67
7.75
6.09
3.81
1.26
-1.14
-3.09
-4.50
-5.54
-6.55
-7.84
-9.54
-11.55
-13.57
-15.18
-16.08
-16.20
-15.84
-15.49
-15.73
-16.94
-19.12
-21.95
-24.89
-27.54
-29.87
-32.20
-35.09
-38.93
-43.73
-49.05
-54.36
-59.20
-63.22
-65.82
-65.90
-62.09
-53.30
-39.66
-22.91
-6.00
8.05
17.34
21.85
23.03
22.78
22.38
22.00
21.04
18.93
15.64
11.76
7.99
4.63
1.41
-2.21
-6.65
-11.88
-17.35
-22.32
-26.25
-29.02
-31.11
-33.29
-36.37
-40.91
-46.95
-54.00
-61.38
-68.35
-74.53
-79.91
-84.83
-89.73
-95.01
-100.81
-107.15
-113.95
-120.97
-127.95
-134.48
-140.07
-144.44
-147.57
-149.88
-151.97
-154.25
-156.55
-158.04
-157.43
-153.61
-146.21
-135.94
-124.23
-112.66
-102.25
-93.13
-84.73
-76.34
-67.59
-58.87
-50.93
-44.40
-39.36
-35.17
-30.79
-25.44
-18.96
-12.00
-5.60
-0.64
2.60
4.56
6.01
7.62
9.65
11.80
13.61
14.73
15.15
15.10
14.92
14.76
14.67
14.53
14.29
13.91
13.44
12.81
11.96
10.86
9.55
8.17
6.84
5.60
4.39
3.05
1.47
-0.41
-2.46
-4.58
-6.69
-8.86
-11.32
-14.25
-17.66
-21.28
-24.63
-27.11
-28.33
-28.21
-27.06
-25.46
-24.00
-23.13
-22.98
-23.48
-24.44
-25.70
-27.22
-29.00
-30.98
-32.96
-34.54
-35.14
-34.08
-30.86
-25.28
-17.48
-7.85
3.14
15.03
27.49
40.15
52.53
63.96
73.64
80.91
85.38
87.20
86.87
85.10
82.50
79.40
75.86
71.82
67.23
62.17
56.89
51.63
46.61
41.89
37.47
33.36
29.65
26.45
23.79
21.59
19.67
17.74
15.58
13.04
10.10
6.82
3.39
0.08
-2.71
-4.51
-5.04
-4.16
-2.11
0.66
3.55
6.13
8.14
9.59
10.65
11.46
12.08
12.44
12.43
12.01
11.31
10.64
10.29
10.51
11.29
12.47
13.75
14.87
15.72
16.35
16.87
17.41
18.01
18.56
18.88
18.81
18.25
17.23
15.89
14.42
13.08
12.06
11.37
10.91
10.45
9.75
8.69
7.26
5.58
3.81
2.02
0.19
-1.79
-3.91
-6.14
-8.27
-10.05
-11.27
-11.82
-11.71
-11.04
-9.98
-8.72
-7.35
-5.85
-4.16
-2.24
-0.18
1.81
3.43
4.46
4.81
4.60
4.05
3.25
2.19
0.79
-0.95
-2.80
-4.35
-5.17
-5.00
-3.97
-2.48
-1.04
0.05
0.80
1.47
2.35
3.64
5.17
6.61
7.58
7.92
7.66
7.05
6.35
5.75
5.35
5.06
4.77
4.32
3.63
2.69
1.65
0.79
0.34
0.41
0.85
1.29
1.25
0.46
-1.12
-3.21
-5.43
-7.44
-9.12
-10.52
-11.68
-12.46
-12.61
-11.76
-9.79
-6.88
-3.60
-0.53
1.78
3.23
4.00
4.45
4.95
5.70
6.69
7.75
8.69
9.33
9.68
9.93
10.30
11.00
12.06
13.26
14.24
14.72
14.55
13.92
13.15
12.47
11.90
11.27
10.37
9.09
7.58
6.12
5.01
4.41
4.21
4.21
4.10
3.63
2.70
1.45
0.10
-1.00
-1.60
-1.64
-1.22
-0.70
-0.46
-0.77
-1.72
-3.29
-5.29
-7.52
-9.79
-11.85
-13.44
-14.19
-13.85
-12.37
-9.99
-7.15
-4.38
-2.07
-0.34
0.91
1.91
2.88
3.85
4.77
5.56
6.22
6.87
7.71
8.81
10.12
11.39
12.30
12.60
12.22
11.27
9.97
8.61
7.30
6.06
4.78
3.36
1.87
0.51
-0.43
-0.78
-0.56
-0.13
-0.02
-0.68
-2.22
-4.31
-6.35
-7.77
-8.30
-8.15
-7.85
-7.98
-8.91
-10.73
-13.23
-16.10
-18.96
-21.28
-22.43
-21.79
-19.02
-14.50
-9.43
-5.54
-4.47
-6.98
-12.58
-19.58
-25.72
-28.89
-27.77
-22.08
-12.34
0.45
15.12
30.63
46.10
60.87
74.44
86.45
96.60
104.60
110.07
112.58
111.61
106.75
97.76
84.73
68.27
49.52
30.19
12.09
-3.21
-14.93
-23.17
-28.87
-33.25
-37.19
-40.92
-43.96
-45.53
-45.05
-42.57
-38.91
-35.34
-33.16
-33.25
-35.82
-40.37
-45.88
-51.09
-54.78
-56.00
-54.15
-49.08
-40.99
-30.42
-18.16
-5.28
6.99
17.32
24.52
27.80
27.02
22.80
16.46
9.69
4.08
0.72
-0.19
0.83
2.76
4.61
5.78
6.26
6.38
6.58
7.11
7.91
8.80
9.59
10.15
10.30
9.67
7.77
4.20
-1.05
-7.29
-13.34
-17.91
-20.14
-19.88
-17.63
-14.10
-9.86
-5.17
-0.17
4.89
9.31
12.07
12.20
9.06
2.91
-5.13
-13.28
-19.56
-22.51
-21.62
-17.37
-11.01
-3.93
2.73
8.41
12.89
16.06
17.75
17.77
16.15
13.34
10.11
7.30
5.43
4.43
3.92
3.49
2.97
2.63
2.87
3.98
5.79
7.56
8.36
7.56
5.16
1.87
-1.11
-2.80
-2.80
-1.60
-0.22
0.41
-0.15
-1.66
-3.49
-5.10
-6.29
-7.35
-8.70
-10.41
-12.07
-12.96
-12.53
-10.79
-8.45
-6.73
-6.65
-8.58
-11.92
-15.38
-17.52
-17.36
-14.73
-10.32
-5.29
-0.72
2.65
4.64
5.44
5.34
4.60
3.39
1.84
0.14
-1.40
-2.52
-3.09
-3.27
-3.43
-4.01
-5.29
-7.26
-9.60
-11.72
-13.07
-13.28
-12.27
-10.39
-8.19
-6.26
-5.01
-4.55
-4.69
-5.08
-5.38
-5.43
-5.28
-5.13
-5.27
-5.83
-6.77
-7.85
-8.59
-8.43
-6.96
-4.13
-0.36
3.42
6.13
6.85
5.33
2.05
-1.84
-4.95
-6.14
-4.75
-0.74
5.48
13.28
22.05
31.30
40.58
49.48
57.48
64.07
68.80
71.44
72.04
70.95
68.68
65.74
62.49
59.06
55.42
51.48
47.23
42.77
38.29
33.89
29.49
24.83
19.58
13.53
6.77
-0.31
-7.12
-13.17
-18.30
-22.68
-26.74
-30.85
-35.09
-39.22
-42.77
-45.29
-46.57
-46.70
-46.02
-44.92
-43.72
-42.66
-41.89
-41.52
-41.63
-42.12
-42.78
-43.19
-42.89
-41.61
-39.25
-35.92
-31.80
-27.08
-21.85
-16.18
-10.17
-3.93
2.41
8.74
14.99
21.06
26.77
31.83
35.87
38.65
40.20
40.85
41.15
41.66
42.63
43.89
44.83
44.70
42.97
39.53
34.73
29.19
23.47
17.90
12.59
7.49
2.48
-2.53
-7.63
-12.88
-18.25
-23.43
-27.98
-31.38
-33.31
-33.94
-33.81
-33.60
-33.75
-34.26
-34.71
-34.55
-33.37
-31.19
-28.34
-25.31
-22.60
-20.51
-19.23
-18.77
-19.02
-19.67
-20.32
-20.51
-19.90
-18.42
-16.33
-14.22
-12.76
-12.50
-13.56
-15.57
-17.73
-19.00
-18.60
-16.18
-11.98
-6.65
-0.89
4.79
10.26
15.64
21.06
26.44
31.45
35.70
38.84
40.79
41.72
42.03
42.05
42.07
42.08
41.97
41.53
40.66
39.41
38.02
36.71
35.59
34.46
32.75
29.75
24.79
17.60
8.51
-1.74
-12.14
-21.80
-30.14
-36.98
-42.44
-46.66
-49.75
-51.67
-52.31
-51.61
-49.61
-46.53
-42.75
-38.76
-34.98
-31.72
-29.09
-26.94
-25.03
-23.16
-21.23
-19.21
-17.03
-14.40
-10.93
-6.26
-0.26
6.83
14.47
21.95
28.71
34.34
38.69
41.70
43.37
43.81
43.24
42.02
40.58
39.25
38.14
37.13
35.91
34.14
31.65
28.45
24.79
20.98
17.35
14.02
10.91
7.92
4.94
2.06
-0.42
-2.15
-2.85
-2.46
-1.20
0.56
2.50
4.42
6.29
8.03
9.43
10.12
9.59
7.52
3.94
-0.76
-5.92
-10.89
-15.18
-18.61
-21.13
-22.80
-23.67
-23.72
-23.03
-21.82
-20.44
-19.21
-18.35
-17.79
-17.21
-16.22
-14.51
-11.98
-8.83
-5.43
-2.15
0.72
3.10
4.98
6.48
7.66
8.56
9.24
9.77
10.32
11.05
12.10
13.54
15.25
16.98
18.37
19.06
18.84
17.76
16.10
14.42
13.20
12.71
12.84
13.11
12.93
11.89
9.97
7.58
5.29
3.62
2.82
2.89
3.69
5.09
7.01
9.38
12.02
14.60
16.70
17.93
18.20
17.55
16.26
14.57
12.67
10.70
8.75
6.94
5.39
4.17
3.23
2.45
1.68
0.85
0.06
-0.54
-0.75
-0.51
0.07
0.73
1.14
0.99
0.14
-1.37
-3.32
-5.39
-7.26
-8.67
-9.53
-9.93
-10.15
-10.61
-11.76
-13.93
-17.16
-21.21
-25.50
-29.34
-32.07
-33.23
-32.72
-30.81
-28.01
-24.92
-22.06
-19.70
-17.85
-16.35
-14.96
-13.48
-11.79
-9.92
-7.95
-6.02
-4.23
-2.72
-1.60
-0.92
-0.60
-0.53
-0.47
-0.19
0.42
1.40
2.70
4.24
5.94
7.58
8.87
9.51
9.42
8.69
7.76
7.05
6.83
6.89
6.73
5.77
3.75
0.94
-2.03
-4.55
-6.38
-7.81
-9.49
-11.98
-15.37
-19.30
-23.09
-26.21
-28.55
-30.62
-33.17
-36.83
-41.74
-47.49
-53.34
-58.67
-63.18
-67.04
-70.56
-73.86
-76.63
-78.27
-78.10
-75.85
-71.64
-66.02
-59.48
-52.14
-43.72
-33.66
-21.54
-7.44
7.97
23.50
37.90
50.19
59.94
67.23
72.41
75.79
77.61
77.85
76.53
73.87
70.35
66.56
63.02
60.00
57.42
55.00
52.41
49.47
46.22
42.86
39.62
36.67
34.05
31.67
29.35
26.93
24.30
21.44
18.40
15.30
12.27
9.42
6.77
4.27
1.80
-0.80
-3.61
-6.65
-9.74
-12.55
-14.64
-15.60
-15.14
-13.36
-10.62
-7.48
-4.53
-2.11
-0.33
0.99
2.08
3.18
4.37
5.59
6.75
7.75
8.54
9.10
9.46
9.65
9.73
9.73
9.79
10.01
10.44
11.03
11.57
11.83
11.63
10.94
9.94
8.89
8.02
7.40
6.94
6.46
5.85
5.11
4.39
3.82
3.41
3.04
2.47
1.56
0.30
-1.15
-2.56
-3.83
-4.97
-6.15
-7.59
-9.37
-11.45
-13.63
-15.55
-16.88
-17.28
-16.57
-14.80
-12.24
-9.34
-6.55
-4.09
-1.97
-0.03
1.88
3.75
5.34
6.43
6.85
6.73
6.35
6.01
5.94
6.13
6.44
6.72
6.88
6.96
7.07
7.33
7.78
8.34
8.85
9.11
9.00
8.53
7.78
6.92
6.05
5.18
4.24
3.16
1.95
0.67
-0.59
-1.78
-2.96
-4.18
-5.47
-6.70
-7.70
-8.27
-8.39
-8.19
-7.92
-7.79
-7.84
-7.89
-7.60
-6.67
-5.00
-2.72
-0.13
2.39
4.57
6.27
7.46
8.20
8.47
8.27
7.64
6.68
5.64
4.84
4.52
4.73
5.27
5.76
5.83
5.31
4.30
3.16
2.26
1.80
1.70
1.68
1.43
0.84
0.05
-0.71
-1.20
-1.35
-1.33
-1.32
-1.49
-1.85
-2.30
-2.77
-3.31
-3.97
-4.91
-6.19
-7.79
-9.63
-11.63
-13.65
-15.53
-16.98
-17.68
-17.38
-16.00
-13.74
-11.02
-8.32
-6.00
-4.14
-2.63
-1.20
0.34
2.00
3.64
5.04
6.06
6.73
7.26
7.80
8.45
9.05
9.38
9.26
8.69
7.89
7.12
6.56
6.16
5.72
5.04
4.05
2.90
1.88
1.30
1.30
1.76
2.36
2.66
2.31
1.21
-0.44
-2.30
-3.98
-5.29
-6.27
-7.14
-8.22
-9.70
-11.56
-13.62
-15.58
-17.12
-17.98
-17.97
-16.99
-15.09
-12.44
-9.34
-6.21
-3.40
-1.12
0.62
1.98
3.17
4.38
5.68
7.03
8.33
9.40
10.18
10.58
10.66
10.52
10.33
10.28
10.45
10.76
11.08
11.21
11.01
10.50
9.76
8.87
7.89
6.81
5.65
4.47
3.35
2.41
1.63
0.93
0.16
-0.79
-1.91
-3.13
-4.29
-5.26
-5.99
-6.55
-7.07
-7.80
-8.95
-10.67
-12.85
-15.19
-17.16
-18.17
-17.79
-15.96
-13.00
-9.46
-5.98
-2.93
-0.39
1.75
3.71
5.54
7.11
8.19
8.67
8.63
8.39
8.25
8.38
8.66
8.77
8.37
7.35
5.93
4.55
3.65
3.46
3.89
4.64
5.41
6.05
6.58
7.07
7.47
7.60
7.18
6.09
4.48
2.69
1.17
0.18
-0.35
-0.75
-1.37
-2.37
-3.69
-5.03
-6.21
-7.18
-8.17
-9.47
-11.29
-13.65
-16.28
-18.79
-20.72
-21.74
-21.61
-20.33
-18.11
-15.32
-12.39
-9.64
-7.21
-5.04
-2.98
-0.88
1.29
3.45
5.48
7.24
8.73
9.95
11.03
12.02
12.93
13.71
14.29
14.63
14.74
14.68
14.50
14.22
13.78
13.11
12.17
11.02
9.78
8.58
7.49
6.47
5.48
4.48
3.50
2.68
2.10
1.73
1.42
0.91
-0.01
-1.37
-3.00
-4.53
-5.64
-6.21
-6.40
-6.59
-7.21
-8.52
-10.49
-12.85
-15.28
-17.41
-18.95
-19.60
-19.07
-17.16
-13.87
-9.61
-5.15
-1.37
1.12
2.24
2.47
2.60
3.26
4.72
6.73
8.81
10.47
11.53
12.07
12.33
12.51
12.65
12.60
12.19
11.37
10.27
9.15
8.31
7.88
7.85
7.89
7.63
6.83
5.52
4.04
2.93
2.56
2.99
3.80
4.34
4.03
2.66
0.56
-1.61
-3.21
-4.00
-4.28
-4.72
-5.96
-8.18
-11.08
-13.93
-16.10
-17.24
-17.52
-17.33
-17.02
-16.57
-15.64
-13.87
-11.09
-7.58
-3.90
-0.65
1.85
3.65
4.98
6.08
7.00
7.67
7.89
7.70
7.28
6.93
6.91
7.27
7.87
8.51
9.02
9.31
9.41
9.38
9.24
8.99
8.60
8.06
7.36
6.52
5.57
4.55
3.54
2.56
1.65
0.82
0.02
-0.80
-1.65
-2.49
-3.27
-3.98
-4.67
-5.46
-6.45
-7.69
-9.11
-10.61
-12.16
-13.79
-15.51
-17.29
-18.78
-19.50
-18.97
-16.97
-13.71
-9.77
-5.91
-2.70
-0.44
0.98
1.87
2.54
3.18
3.85
4.57
5.44
6.64
8.27
10.23
12.14
13.47
13.76
12.86
11.04
8.80
6.69
5.02
3.76
2.71
1.61
0.38
-0.93
-2.16
-3.21
-4.05
-4.71
-5.19
-5.43
-5.39
-5.05
-4.53
-4.05
-3.85
-4.06
-4.65
-5.43
-6.13
-6.56
-6.67
-6.64
-6.76
-7.32
-8.46
-10.05
-11.75
-13.08
-13.56
-12.85
-10.90
-7.98
-4.61
-1.37
1.30
3.30
4.86
6.40
8.35
10.89
13.90
17.05
19.93
22.28
24.09
25.62
27.20
29.12
31.53
34.33
37.30
40.21
42.82
44.89
46.13
46.05
44.07
39.75
32.92
23.97
13.74
3.35
-6.16
-14.08
-20.15
-24.52
-27.46
-29.24
-30.05
-30.05
-29.46
-28.53
-27.49
-26.51
-25.58
-24.62
-23.58
-22.54
-21.69
-21.24
-21.35
-21.99
-23.00
-24.07
-24.85
-25.02
-24.32
-22.60
-19.89
-16.39
-12.49
-8.64
-5.28
-2.60
-0.63
0.89
2.23
3.65
5.25
7.02
8.86
10.67
12.39
13.98
15.38
16.50
17.18
17.27
16.58
14.97
12.31
8.63
4.16
-0.59
-4.82
-7.60
-8.17
-6.12
-1.54
5.06
12.89
21.17
29.23
36.50
42.33
45.89
46.28
42.80
35.37
24.78
12.56
0.56
-9.71
-17.52
-23.02
-26.93
-30.03
-32.80
-35.21
-37.02
-37.96
-37.98
-37.21
-35.83
-33.91
-31.41
-28.24
-24.40
-20.12
-15.80
-11.86
-8.60
-6.13
-4.33
-3.00
-1.94
-0.97
-0.03
0.89
1.78
2.63
3.43
4.19
4.93
5.65
6.35
6.96
7.43
7.65
7.54
7.06
6.32
5.52
4.86
4.46
4.23
4.01
3.56
2.81
1.89
1.05
0.53
0.33
0.36
0.38
0.28
0.06
-0.17
-0.31
-0.44
-0.72
-1.39
-2.58
-4.23
-6.07
-7.72
-8.74
-8.77
-7.74
-5.83
-3.45
-1.09
0.90
2.39
3.49
4.35
5.07
5.56
5.65
5.19
4.29
3.24
2.48
2.40
3.10
4.38
5.78
6.83
7.20
6.86
6.07
5.23
4.69
4.48
4.42
4.17
3.45
2.29
0.92
-0.29
-1.05
-1.35
-1.43
-1.61
-2.18
-3.10
-4.11
-4.82
-4.99
-4.65
-4.22
-4.28
-5.28
-7.35
-10.24
-13.37
-16.21
-18.37
-19.74
-20.35
-20.18
-19.15
-17.13
-14.19
-10.66
-7.14
-4.21
-2.26
-1.20
-0.57
0.15
1.30
2.80
4.32
5.42
5.93
5.95
5.83
5.86
6.17
6.58
6.81
6.62
5.96
5.03
4.09
3.39
3.00
2.85
2.80
2.66
2.40
2.13
2.04
2.31
3.01
3.96
4.85
5.34
5.15
4.21
2.67
0.83
-1.06
-2.76
-4.24
-5.52
-6.66
-7.76
-8.86
-9.99
-11.19
-12.50
-13.88
-15.17
-16.06
-16.11
-14.99
-12.58
-9.17
-5.38
-1.95
0.58
2.11
2.96
3.65
4.61
5.94
7.40
8.65
9.43
9.77
9.91
10.10
10.46
10.87
11.07
10.83
10.17
9.37
8.78
8.59
8.71
8.79
8.38
7.24
5.45
3.45
1.76
0.77
0.55
0.82
1.12
0.95
0.04
-1.64
-3.83
-6.15
-8.21
-9.75
-10.82
-11.61
-12.44
-13.52
-14.85
-16.41
-18.13
-19.96
-21.81
-23.39
-24.22
-23.76
-21.67
-18.16
-13.89
-9.72
-6.24
-3.52
-1.14
1.51
4.70
8.12
11.07
12.93
13.57
13.42
13.25
13.67
14.78
16.06
16.76
16.34
14.78
12.64
10.69
9.55
9.35
9.72
10.03
9.78
8.86
7.56
6.40
5.77
5.80
6.19
6.55
6.52
6.02
5.16
4.13
3.07
2.05
1.01
-0.06
-1.10
-2.08
-3.02
-4.04
-5.29
-6.83
-8.62
-10.52
-12.29
-13.71
-14.58
-14.73
-14.04
-12.51
-10.25
-7.56
-4.86
-2.57
-0.98
-0.17
0.02
-0.09
-0.18
-0.04
0.40
1.12
2.07
3.25
4.69
6.38
8.19
9.86
11.13
11.81
11.90
11.56
11.01
10.42
9.86
9.25
8.46
7.39
5.98
4.31
2.54
0.91
-0.37
-1.23
-1.73
-2.10
-2.64
-3.53
-4.82
-6.38
-7.99
-9.46
-10.71
-11.80
-12.86
-14.02
-15.33
-16.75
-18.11
-19.24
-19.96
-20.10
-19.56
-18.30
-16.38
-13.89
-11.01
-7.94
-4.90
-2.10
0.34
2.38
3.99
5.23
6.14
6.75
7.11
7.27
7.35
7.46
7.73
8.23
8.98
9.91
10.87
11.66
12.09
12.06
11.60
10.86
10.06
9.41
8.98
8.69
8.40
7.95
7.27
6.42
5.54
4.76
4.06
3.36
2.46
1.28
-0.12
-1.54
-2.77
-3.72
-4.45
-5.22
-6.31
-7.88
-9.89
-12.12
-14.29
-16.18
-17.62
-18.50
-18.70
-18.03
-16.40
-13.79
-10.46
-6.84
-3.46
-0.71
1.22
2.40
3.09
3.53
3.83
3.97
3.82
3.36
2.71
2.15
1.94
2.25
2.95
3.74
4.26
4.26
3.77
3.01
2.28
1.69
1.05
-0.08
-2.13
-5.28
-9.31
-13.61
-17.51
-20.50
-22.53
-23.92
-25.16
-26.66
-28.60
-30.89
-33.34
-35.78
-38.19
-40.73
-43.51
-46.60
-49.80
-52.80
-55.23
-56.84
-57.51
-57.19
-55.73
-52.75
-47.68
-39.95
-29.29
-15.95
-0.78
14.91
29.80
42.77
53.17
60.81
65.86
68.73
69.90
69.85
69.00
67.65
66.00
64.15
62.07
59.76
57.17
54.26
51.07
47.67
44.24
41.02
38.28
36.17
34.61
33.37
32.08
30.41
28.21
25.58
22.81
20.24
18.16
16.60
15.41
14.27
12.93
11.30
9.56
8.05
7.00
6.43
6.00
5.33
4.09
2.32
0.36
-1.29
-2.18
-2.18
-1.41
-0.17
1.24
2.57
3.72
4.66
5.44
6.16
6.96
7.89
8.86
9.59
9.68
8.70
6.37
2.67
-2.10
-7.40
-12.52
-16.88
-20.06
-22.01
-22.90
-23.07
-22.87
-22.47
-21.96
-21.29
-20.42
-19.32
-18.03
-16.56
-14.93
-13.13
-11.16
-9.12
-7.21
-5.63
-4.57
-4.10
-4.13
-4.44
-4.75
-4.74
-4.27
-3.33
-2.12
-0.92
-0.08
0.00
-0.86
-2.74
-5.44
-8.58
-11.61
-13.99
-15.32
-15.39
-14.27
-12.17
-9.47
-6.52
-3.67
-1.11
1.08
2.92
4.52
5.94
7.27
8.54
9.81
11.11
12.48
13.87
15.14
16.10
16.61
16.65
16.33
15.84
15.35
14.95
14.63
14.33
14.02
13.67
13.24
12.65
11.84
10.81
9.67
8.62
7.88
7.57
7.65
7.90
8.06
7.88
7.26
6.24
4.98
3.78
2.88
2.41
2.29
2.23
1.85
0.88
-0.77
-2.89
-5.07
-6.79
-7.63
-7.31
-5.83
-3.37
-0.33
2.84
5.77
8.17
9.93
11.04
11.54
11.49
11.04
10.41
9.88
9.72
10.06
10.79
11.64
12.27
12.39
11.87
10.61
8.54
5.53
1.47
-3.59
-9.35
-15.30
-20.81
-25.37
-28.77
-31.07
-32.55
-33.56
-34.32
-34.83
-34.96
-34.55
-33.55
-32.11
-30.53
-29.10
-27.92
-26.87
-25.74
-24.40
-22.96
-21.75
-21.16
-21.39
-22.27
-23.29
-23.82
-23.36
-21.71
-18.95
-15.46
-11.63
-7.86
-4.38
-1.31
1.36
3.71
5.80
7.69
9.35
10.79
11.95
12.74
13.07
12.94
12.54
12.21
12.35
13.16
14.54
15.99
16.92
16.91
15.99
14.66
13.62
13.33
13.79
14.45
14.59
13.73
11.91
9.75
8.06
7.41
7.81
8.60
8.83
7.88
5.74
3.16
1.14
0.42
1.03
2.19
2.80
2.08
0.01
-2.71
-5.09
-6.43
-6.62
-6.13
-5.58
-5.30
-5.18
-4.76
-3.65
-1.73
0.69
3.11
5.04
6.20
6.61
6.47
6.05
5.55
5.16
4.94
4.91
4.98
5.04
4.98
4.72
4.27
3.73
3.24
2.89
2.71
2.64
2.57
2.40
2.12
1.78
1.43
1.06
0.64
0.08
-0.71
-1.72
-2.90
-4.18
-5.43
-6.63
-7.75
-8.85
-9.98
-11.16
-12.37
-13.59
-14.78
-15.94
-17.09
-18.27
-19.42
-20.44
-21.07
-21.03
-20.07
-18.13
-15.40
-12.25
-9.16
-6.51
-4.49
-2.99
-1.71
-0.37
1.18
2.90
4.56
5.98
7.08
7.98
8.90
10.01
11.26
12.42
13.14
13.13
12.36
11.04
9.53
8.29
7.53
7.25
7.17
6.95
6.33
5.32
4.16
3.16
2.56
2.34
2.29
2.15
1.73
1.04
0.24
-0.51
-1.13
-1.69
-2.33
-3.16
-4.11
-5.09
-5.95
-6.63
-7.21
-7.78
-8.39
-8.97
-9.27
-9.09
-8.32
-7.10
-5.72
-4.47
-3.52
-2.75
-1.84
-0.41
1.77
4.59
7.63
10.36
12.31
13.36
13.79
14.09
14.69
15.73
16.92
17.68
17.41
15.73
12.72
8.86
4.79
1.08
-1.97
-4.33
-6.17
-7.59
-8.57
-9.01
-8.82
-8.08
-7.01
-5.95
-5.19
-4.86
-4.88
-5.02
-5.10
-4.95
-4.58
-4.13
-3.79
-3.75
-4.15
-4.96
-6.11
-7.42
-8.68
-9.64
-10.06
-9.71
-8.42
-6.17
-3.14
0.31
3.73
6.76
9.25
11.33
13.26
15.33
17.60
19.98
22.28
24.42
26.53
28.91
31.87
35.62
40.04
44.74
49.20
52.90
55.49
56.78
56.80
55.65
53.48
50.47
46.84
42.85
38.84
35.17
32.14
29.89
28.35
27.15
25.74
23.48
19.79
14.25
6.75
-2.51
-13.04
-24.09
-34.78
-44.33
-52.20
-58.23
-62.57
-65.60
-67.65
-68.97
-69.60
-69.49
-68.56
-66.74
-64.00
-60.32
-55.75
-50.47
-44.79
-39.06
-33.67
-28.80
-24.46
-20.51
-16.79
-13.31
-10.19
-7.70
-6.01
-5.08
-4.59
-4.08
-3.12
-1.49
0.67
2.95
4.90
6.20
6.88
7.22
7.60
8.26
9.25
10.37
11.34
11.94
12.06
11.81
11.39
10.98
10.65
10.35
9.86
8.99
7.62
5.80
3.73
1.66
-0.20
-1.84
-3.36
-4.96
-6.77
-8.73
-10.67
-12.37
-13.65
-14.50
-15.00
-15.26
-15.32
-15.04
-14.21
-12.72
-10.59
-8.12
-5.70
-3.65
-2.07
-0.85
0.22
1.27
2.25
2.96
3.27
3.19
2.95
2.84
3.08
3.66
4.40
5.06
5.51
5.76
5.93
6.15
6.44
6.72
6.88
6.83
6.59
6.26
5.96
5.80
5.79
5.82
5.73
5.38
4.67
3.61
2.38
1.16
0.16
-0.54
-1.00
-1.41
-1.96
-2.78
-3.81
-4.89
-5.82
-6.48
-6.88
-7.13
-7.31
-7.38
-7.14
-6.33
-4.85
-2.86
-0.76
1.02
2.11
2.46
2.28
1.91
1.62
1.58
1.74
1.98
2.17
2.28
2.34
2.48
2.73
3.10
3.49
3.71
3.60
3.04
2.06
0.79
-0.54
-1.72
-2.62
-3.24
-3.64
-3.95
-4.25
-4.53
-4.73
-4.81
-4.77
-4.67
-4.59
-4.62
-4.77
-4.99
-5.18
-5.24
-5.14
-4.95
-4.82
-4.87
-5.19
-5.68
-6.11
-6.23
-5.81
-4.84
-3.40
-1.67
0.19
2.04
3.78
5.27
6.33
6.78
6.54
5.75
4.71
3.79
3.26
3.19
3.42
3.70
3.86
3.87
3.81
3.77
3.72
3.47
2.82
1.66
0.11
-1.48
-2.72
-3.34
-3.32
-2.93
-2.52
-2.38
-2.56
-2.90
-3.14
-3.22
-3.28
-3.68
-4.67
-6.25
-8.06
-9.58
-10.39
-10.41
-9.89
-9.16
-8.36
-7.33
-5.71
-3.28
-0.19
2.97
5.53
7.06
7.60
7.65
7.79
8.35
9.23
9.91
9.83
8.79
7.06
5.35
4.38
4.51
5.57
6.76
7.21
6.34
4.19
1.39
-1.18
-2.82
-3.28
-2.92
-2.34
-2.08
-2.31
-2.84
-3.27
-3.29
-2.87
-2.28
-1.87
-1.92
-2.42
-3.20
-4.03
-4.81
-5.59
-6.56
-7.81
-9.21
-10.39
-10.86
-10.25
-8.47
-5.74
-2.58
0.45
2.94
4.75
6.01
7.00
7.93
8.92
9.90
10.74
11.32
11.60
11.61
11.42
11.12
10.74
10.38
10.09
9.89
9.76
9.61
9.31
8.78
8.04
7.20
6.42
5.81
5.35
4.96
4.48
3.79
2.83
1.60
0.21
-1.23
-2.60
-3.88
-5.07
-6.27
-7.54
-8.91
-10.31
-11.68
-12.94
-14.05
-14.97
-15.54
-15.55
-14.75
-13.02
-10.49
-7.53
-4.61
-2.11
-0.15
1.43
2.87
4.39
5.99
7.48
8.60
9.21
9.34
9.25
9.21
9.42
9.91
10.52
11.01
11.21
11.07
10.69
10.24
9.85
9.51
9.13
8.55
7.65
6.51
5.29
4.25
3.52
3.04
2.60
1.88
0.67
-1.02
-2.91
-4.64
-5.88
-6.55
-6.85
-7.13
-7.71
-8.78
-10.25
-11.89
-13.44
-14.68
-15.47
-15.69
-15.21
-13.93
-11.79
-8.92
-5.62
-2.40
0.31
2.22
3.34
3.97
4.45
5.08
5.90
6.80
7.60
8.22
8.73
9.25
9.88
10.56
11.14
11.42
11.33
10.92
10.36
9.84
9.44
9.14
8.78
8.20
7.25
5.96
4.50
3.16
2.28
2.01
2.29
2.75
2.95
2.51
1.33
-0.38
-2.25
-3.91
-5.15
-6.00
-6.63
-7.19
-7.82
-8.53
-9.29
-10.15
-11.10
-12.09
-12.91
-13.25
-12.74
-11.14
-8.48
-5.05
-1.33
2.25
5.38
7.99
10.11
11.84
13.21
14.14
14.56
14.42
13.82
12.94
12.01
11.23
10.67
10.25
9.76
8.99
7.79
6.23
4.53
3.00
1.90
1.30
1.08
1.00
0.83
0.47
0.01
-0.41
-0.62
-0.59
-0.42
-0.22
-0.14
-0.23
-0.50
-0.93
-1.49
-2.17
-2.95
-3.85
-4.85
-5.92
-7.02
-8.14
-9.21
-10.23
-11.20
-12.15
-13.08
-13.89
-14.37
-14.18
-13.07
-10.94
-8.02
-4.72
-1.63
0.85
2.51
3.47
4.04
4.55
5.19
5.96
6.74
7.40
7.86
8.16
8.40
8.68
9.04
9.42
9.74
9.98
10.22
10.63
11.41
12.52
13.68
14.37
14.05
12.44
9.63
6.14
2.68
-0.16
-2.10
-3.26
-3.97
-4.54
-5.10
-5.56
-5.67
-5.24
-4.20
-2.75
-1.26
-0.12
0.33
-0.05
-1.19
-2.86
-4.80
-6.79
-8.72
-10.43
-11.78
-12.53
-12.41
-11.30
-9.33
-6.93
-4.62
-2.91
-2.04
-1.88
-2.06
-2.16
-1.85
-1.05
0.10
1.41
2.64
3.68
4.50
5.14
5.65
6.07
6.40
6.60
6.64
6.50
6.23
5.94
5.73
5.67
5.70
5.69
5.45
4.90
4.10
3.25
2.55
2.12
1.90
1.73
1.43
0.96
0.39
-0.16
-0.60
-0.93
-1.29
-1.80
-2.58
-3.64
-4.86
-6.06
-7.05
-7.63
-7.61
-6.92
-5.49
-3.45
-0.99
1.55
3.79
5.39
6.17
6.14
5.49
4.52
3.50
2.62
1.94
1.48
1.18
0.97
0.78
0.50
0.08
-0.58
-1.51
-2.67
-3.95
-5.15
-6.08
-6.56
-6.54
-6.11
-5.55
-5.19
-5.31
-6.04
-7.29
-8.88
-10.60
-12.35
-14.17
-16.27
-18.81
-21.86
-25.31
-28.91
-32.32
-35.29
-37.79
-39.99
-42.28
-45.00
-48.35
-52.26
-56.39
-60.25
-63.31
-65.17
-65.42
-63.78
-60.03
-54.11
-46.13
-36.41
-25.42
-13.64
-1.51
10.62
22.40
33.49
43.45
51.88
58.40
62.76
64.94
65.13
63.69
61.08
57.75
54.12
50.51
47.09
44.00
41.28
38.93
36.79
34.61
32.14
29.31
26.21
23.11
20.32
18.04
16.26
14.76
13.33
11.78
10.10
8.35
6.66
5.10
3.73
2.40
0.99
-0.63
-2.44
-4.28
-5.91
-7.08
-7.71
-8.03
-8.33
-8.83
-9.42
-9.62
-8.89
-6.94
-3.95
-0.68
1.97
3.34
3.39
2.68
2.02
2.05
2.91
4.16
5.12
5.39
4.95
4.28
4.00
4.46
5.57
6.74
7.28
6.74
5.22
3.32
1.73
0.94
0.97
1.34
1.44
0.87
-0.37
-1.86
-3.11
-3.75
-3.72
-3.28
-2.76
-2.44
-2.41
-2.63
-2.93
-3.20
-3.33
-3.31
-3.19
-3.08
-3.13
-3.42
-3.98
-4.70
-5.41
-5.93
-6.10
-5.91
-5.40
-4.67
-3.86
-3.07
-2.37
-1.78
-1.29
-0.85
-0.45
-0.12
0.12
0.21
0.20
0.20
0.36
0.76
1.34
1.91
2.22
2.12
1.67
1.14
0.82
0.91
1.37
1.96
2.33
2.23
1.60
0.61
-0.44
-1.30
-1.84
-2.09
-2.14
-2.12
-2.10
-2.08
-2.07
-2.07
-2.14
-2.37
-2.82
-3.50
-4.33
-5.20
-5.98
-6.66
-7.26
-7.91
-8.66
-9.46
-10.10
-10.26
-9.67
-8.22
-6.06
-3.59
-1.31
0.37
1.30
1.61
1.63
1.64
1.83
2.10
2.28
2.19
1.87
1.55
1.51
1.93
2.76
3.74
4.46
4.70
4.47
3.97
3.55
3.40
3.50
3.66
3.66
3.36
2.84
2.27
1.82
1.56
1.37
1.07
0.51
-0.33
-1.31
-2.22
-2.88
-3.27
-3.45
-3.61
-3.87
-4.31
-4.90
-5.59
-6.30
-6.98
-7.55
-7.86
-7.69
-6.87
-5.35
-3.37
-1.38
0.15
0.90
0.85
0.31
-0.33
-0.70
-0.73
-0.49
-0.19
0.04
0.16
0.24
0.32
0.42
0.45
0.35
0.09
-0.24
-0.48
-0.46
-0.07
0.69
1.59
2.36
2.69
2.45
1.71
0.74
-0.07
-0.44
-0.31
0.12
0.50
0.49
-0.04
-0.94
-1.90
-2.58
-2.88
-2.96
-3.15
-3.77
-4.93
-6.51
-8.22
-9.76
-10.98
-11.85
-12.40
-12.61
-12.42
-11.72
-10.49
-8.78
-6.76
-4.64
-2.63
-0.90
0.47
1.46
2.13
2.60
3.00
3.38
3.74
4.02
4.21
4.35
4.51
4.77
5.17
5.66
6.13
6.49
6.65
6.57
6.20
5.59
4.81
3.99
3.26
2.66
2.19
1.73
1.17
0.42
-0.52
-1.57
-2.62
-3.54
-4.24
-4.67
-4.92
-5.12
-5.46
-6.11
-7.12
-8.47
-10.02
-11.64
-13.18
-14.52
-15.42
-15.68
-15.13
-13.71
-11.61
-9.20
-6.86
-4.88
-3.31
-2.05
-0.95
0.10
1.11
1.97
2.67
3.24
3.86
4.62
5.56
6.56
7.42
8.01
8.25
8.26
8.13
7.97
7.78
7.53
7.20
6.81
6.45
6.17
5.95
5.71
5.33
4.76
4.07
3.35
2.71
2.15
1.59
0.90
0.02
-1.06
-2.25
-3.51
-4.86
-6.37
-8.10
-10.03
-12.04
-13.98
-15.65
-16.81
-17.30
-16.92
-15.55
-13.23
-10.22
-6.95
-3.90
-1.41
0.43
1.81
3.02
4.26
5.53
6.69
7.56
8.07
8.36
8.63
9.09
9.78
10.54
11.11
11.28
10.99
10.41
9.84
9.56
9.64
9.96
10.19
10.07
9.46
8.44
7.23
6.04
4.99
4.06
3.17
2.22
1.16
0.01
-1.17
-2.29
-3.31
-4.24
-5.22
-6.45
-8.16
-10.49
-13.41
-16.66
-19.81
-22.44
-24.16
-24.79
-24.28
-22.72
-20.25
-17.09
-13.50
-9.76
-6.16
-2.94
-0.23
1.98
3.82
5.42
6.90
8.25
9.39
10.25
10.85
11.33
11.84
12.49
13.21
13.83
14.14
14.06
13.70
13.31
13.12
13.20
13.38
13.37
12.88
11.82
10.34
8.75
7.44
6.61
6.19
5.93
5.46
4.52
3.04
1.20
-0.77
-2.62
-4.26
-5.73
-7.14
-8.59
-10.19
-12.00
-14.10
-16.53
-19.18
-21.74
-23.70
-24.48
-23.66
-21.15
-17.31
-12.73
-8.10
-3.94
-0.49
2.28
4.56
6.57
8.43
10.17
11.72
12.97
13.91
14.56
15.10
15.78
16.76
18.06
19.43
20.51
20.95
20.66
19.81
18.75
17.76
16.88
16.00
14.89
13.56
12.21
11.20
10.73
10.67
10.55
9.83
8.24
5.93
3.43
1.31
-0.11
-1.04
-1.95
-3.32
-5.29
-7.57
-9.63
-11.04
-11.79
-12.36
-13.44
-15.50
-18.39
-21.31
-23.14
-22.98
-20.59
-16.61
-12.16
-8.31
-5.57
-3.73
-2.12
-0.11
2.56
5.59
8.42
10.62
12.07
13.05
13.94
15.01
16.30
17.55
18.50
18.94
18.85
18.33
17.58
16.78
16.13
15.69
15.38
14.99
14.23
12.88
10.92
8.61
6.34
4.45
3.08
2.03
0.97
-0.41
-2.22
-4.26
-6.21
-7.74
-8.71
-9.22
-9.57
-10.07
-10.95
-12.24
-13.92
-15.86
-17.98
-20.20
-22.34
-24.06
-24.82
-24.07
-21.51
-17.25
-11.91
-6.39
-1.59
1.98
4.26
5.65
6.70
7.82
9.18
10.62
11.91
12.86
13.46
13.86
14.30
14.93
15.77
16.68
17.42
17.80
17.67
17.05
16.06
14.89
13.69
12.56
11.48
10.40
9.25
8.07
6.95
6.01
5.28
4.63
3.78
2.48
0.58
-1.77
-4.19
-6.22
-7.53
-8.09
-8.14
-8.17
-8.64
-9.87
-11.89
-14.49
-17.30
-19.89
-21.79
-22.65
-22.23
-20.47
-17.51
-13.68
-9.46
-5.30
-1.56
1.58
4.07
5.97
7.39
8.39
9.03
9.40
9.59
9.78
10.12
10.72
11.60
12.65
13.63
14.27
14.39
13.96
13.20
12.36
11.72
11.33
11.08
10.72
10.00
8.81
7.29
5.74
4.47
3.61
3.06
2.52
1.66
0.34
-1.31
-3.00
-4.39
-5.37
-6.08
-6.83
-7.90
-9.35
-11.01
-12.61
-13.99
-15.14
-16.18
-17.15
-17.88
-17.95
-16.91
-14.53
-10.91
-6.56
-2.17
1.63
4.49
6.39
7.55
8.24
8.72
9.10
9.41
9.71
10.04
10.50
11.15
11.99
12.95
13.84
14.47
14.69
14.52
14.07
13.52
12.98
12.44
11.79
10.90
9.73
8.39
7.13
6.19
5.67
5.48
5.33
4.85
3.80
2.10
-0.06
-2.37
-4.49
-6.17
-7.41
-8.46
-9.70
-11.50
-14.02
-17.06
-20.13
-22.58
-23.83
-23.54
-21.73
-18.70
-14.93
-10.93
-7.14
-3.85
-1.21
0.75
2.13
3.10
3.86
4.54
5.24
5.97
6.79
7.74
8.83
10.04
11.20
12.11
12.55
12.47
11.98
11.29
10.61
9.99
9.38
8.58
7.47
6.06
4.55
3.15
2.03
1.25
0.68
0.18
-0.38
-1.01
-1.73
-2.51
-3.40
-4.46
-5.71
-7.11
-8.55
-9.94
-11.26
-12.63
-14.25
-16.22
-18.39
-20.32
-21.36
-20.88
-18.61
-14.77
-10.03
-5.24
-1.13
1.97
4.17
5.85
7.39
8.93
10.33
11.27
11.59
11.31
10.76
10.37
10.46
11.08
11.96
12.71
13.00
12.74
12.11
11.43
10.92
10.65
10.46
10.10
9.42
8.38
7.13
5.85
4.71
3.79
3.03
2.33
1.54
0.56
-0.66
-2.08
-3.59
-5.07
-6.46
-7.80
-9.23
-10.94
-13.05
-15.54
-18.26
-20.87
-22.98
-24.17
-24.06
-22.48
-19.51
-15.47
-10.93
-6.50
-2.67
0.32
2.49
4.06
5.32
6.49
7.70
8.99
10.32
11.61
12.73
13.54
13.93
13.86
13.39
12.65
11.77
10.92
10.18
9.61
9.19
8.88
8.56
8.06
7.23
5.98
4.43
2.81
1.43
0.50
0.01
-0.28
-0.76
-1.73
-3.31
-5.33
-7.47
-9.38
-10.82
-11.84
-12.62
-13.51
-14.77
-16.49
-18.51
-20.45
-21.81
-22.21
-21.44
-19.56
-16.84
-13.60
-10.13
-6.58
-3.04
0.37
3.51
6.14
8.04
9.09
9.36
9.10
8.64
8.34
8.36
8.72
9.24
9.73
10.09
10.29
10.44
10.61
10.76
10.75
10.42
9.71
8.68
7.50
6.33
5.25
4.21
3.16
2.06
0.99
0.07
-0.62
-1.08
-1.47
-1.92
-2.56
-3.39
-4.33
-5.28
-6.20
-7.16
-8.31
-9.80
-11.66
-13.79
-15.87
-17.52
-18.43
-18.45
-17.59
-16.01
-13.83
-11.17
-8.13
-4.84
-1.62
1.16
3.17
4.35
4.90
5.27
5.87
6.88
8.11
9.18
9.75
9.75
9.43
9.22
9.46
10.20
11.03
11.43
10.96
9.60
7.78
6.19
5.35
5.41
5.90
6.08
5.41
3.78
1.72
-0.01
-0.80
-0.57
0.17
0.61
0.10
-1.50
-3.80
-6.20
-8.20
-9.69
-10.87
-12.03
-13.20
-14.08
-14.15
-13.02
-10.65
-7.43
-4.02
-1.06
1.06
2.36
3.09
3.59
4.11
4.71
5.37
5.95
6.41
6.70
6.85
6.92
6.97
7.03
7.13
7.27
7.40
7.42
7.17
6.52
5.41
3.92
2.32
0.95
0.06
-0.27
-0.24
-0.21
-0.51
-1.29
-2.43
-3.69
-4.84
-5.85
-6.85
-8.02
-9.49
-11.23
-13.11
-14.96
-16.66
-18.17
-19.36
-20.02
-19.87
-18.65
-16.25
-12.85
-8.87
-4.80
-1.11
1.96
4.35
6.21
7.70
8.97
10.04
10.84
11.32
11.48
11.45
11.38
11.46
11.73
12.12
12.45
12.53
12.25
11.66
10.92
10.23
9.72
9.42
9.22
9.00
8.66
8.17
7.59
6.96
6.27
5.45
4.42
3.17
1.80
0.48
-0.59
-1.32
-1.80
-2.26
-3.00
-4.27
-6.15
-8.45
-10.82
-12.75
-13.82
-13.77
-12.62
-10.63
-8.19
-5.74
-3.58
-1.92
-0.80
-0.25
-0.26
-0.81
-1.81
-3.09
-4.37
-5.37
-5.86
-5.76
-5.18
-4.38
-3.64
-3.19
-3.12
-3.37
-3.77
-4.10
-4.20
-4.04
-3.69
-3.25
-2.76
-2.25
-1.73
-1.23
-0.90
-0.91
-1.41
-2.38
-3.56
-4.66
-5.37
-5.68
-5.75
-5.88
-6.32
-7.15
-8.24
-9.45
-10.70
-11.96
-13.22
-14.28
-14.80
-14.33
-12.56
-9.54
-5.70
-1.70
1.84
4.59
6.56
8.02
9.28
10.49
11.57
12.38
12.83
12.99
13.05
13.23
13.59
14.00
14.17
13.84
12.96
11.67
10.32
9.25
8.66
8.48
8.43
8.22
7.60
6.55
5.21
3.84
2.68
1.86
1.33
0.88
0.22
-0.90
-2.53
-4.50
-6.45
-8.05
-9.09
-9.65
-10.08
-10.80
-12.10
-13.96
-16.08
-17.95
-19.13
-19.33
-18.47
-16.69
-14.21
-11.34
-8.36
-5.52
-3.01
-0.89
0.86
2.34
3.65
4.84
5.91
6.84
7.60
8.20
8.66
8.95
9.04
8.86
8.42
7.76
6.95
6.07
5.11
4.02
2.72
1.21
-0.38
-1.83
-2.93
-3.58
-3.84
-3.93
-4.10
-4.50
-5.16
-5.95
-6.69
-7.27
-7.63
-7.80
-7.85
-7.88
-7.93
-8.07
-8.40
-8.99
-9.91
-11.06
-12.20
-12.97
-12.98
-11.94
-9.80
-6.84
-3.57
-0.59
1.69
3.16
4.12
5.00
6.17
7.71
9.35
10.75
11.62
12.00
12.16
12.45
13.07
13.92
14.74
15.22
15.24
14.87
14.34
13.84
13.45
13.05
12.41
11.38
9.90
8.14
6.38
4.93
3.94
3.36
2.92
2.26
1.13
-0.55
-2.56
-4.55
-6.14
-7.14
-7.65
-7.95
-8.45
-9.42
-10.97
-12.94
-15.04
-16.91
-18.26
-18.87
-18.64
-17.57
-15.72
-13.24
-10.36
-7.37
-4.55
-2.09
-0.08
1.53
2.86
4.02
5.04
5.88
6.47
6.75
6.81
6.80
6.90
7.19
7.64
8.07
8.26
8.05
7.42
6.56
5.65
4.89
4.29
3.75
3.13
2.35
1.50
0.72
0.19
-0.11
-0.33
-0.71
-1.45
-2.52
-3.75
-4.84
-5.61
-6.05
-6.36
-6.78
-7.52
-8.58
-9.82
-10.97
-11.74
-11.93
-11.39
-10.09
-8.12
-5.67
-3.00
-0.38
1.98
3.95
5.49
6.61
7.24
7.39
7.10
6.60
6.26
6.43
7.26
8.59
10.01
10.98
11.17
10.60
9.59
8.59
7.92
7.59
7.37
6.95
6.16
5.11
4.10
3.42
3.21
3.24
3.13
2.51
1.28
-0.28
-1.73
-2.64
-2.89
-2.72
-2.57
-2.85
-3.75
-5.17
-6.89
-8.67
-10.36
-11.81
-12.77
-12.91
-11.95
-9.82
-6.91
-3.88
-1.37
0.24
1.11
1.71
2.56
3.82
5.24
6.28
6.54
6.05
5.24
4.74
4.91
5.74
6.67
7.11
6.70
5.58
4.29
3.45
3.39
3.98
4.61
4.62
3.66
1.87
-0.17
-1.73
-2.36
-2.06
-1.38
-1.07
-1.65
-3.17
-5.12
-6.77
-7.56
-7.39
-6.75
-6.39
-6.96
-8.65
-11.10
-13.66
-15.61
-16.52
-16.34
-15.26
-13.56
-11.51
-9.24
-6.89
-4.61
-2.50
-0.73
0.67
1.73
2.59
3.38
4.24
5.19
6.20
7.17
7.96
8.52
8.77
8.72
8.39
7.84
7.17
6.49
5.94
5.56
5.31
5.02
4.53
3.72
2.65
1.51
0.50
-0.24
-0.73
-1.13
-1.64
-2.40
-3.38
-4.43
-5.31
-5.88
-6.10
-6.07
-6.00
-6.09
-6.51
-7.26
-8.29
-9.47
-10.71
-11.91
-12.92
-13.49
-13.31
-12.12
-9.83
-6.73
-3.35
-0.34
1.81
2.96
3.36
3.50
3.79
4.45
5.35
6.23
6.85
7.11
7.15
7.18
7.39
7.84
8.43
8.95
9.27
9.31
9.14
8.90
8.73
8.73
8.86
9.04
9.09
8.90
8.41
7.68
6.89
6.23
5.83
5.72
5.86
6.16
6.60
7.19
7.89
8.57
8.97
8.76
7.77
6.00
3.74
1.40
-0.59
-1.93
-2.46
-2.17
-1.15
0.46
2.48
4.67
6.85
8.95
11.02
13.21
15.62
18.14
20.45
22.06
22.57
21.87
20.24
18.31
16.79
16.25
16.83
18.24
19.84
20.93
20.87
19.32
16.22
11.75
6.20
-0.11
-6.84
-13.61
-19.97
-25.40
-29.43
-31.78
-32.45
-31.82
-30.51
-29.15
-28.19
-27.75
-27.59
-27.32
-26.62
-25.40
-23.83
-22.24
-21.03
-20.44
-20.53
-21.14
-21.91
-22.43
-22.31
-21.26
-19.21
-16.31
-12.92
-9.53
-6.56
-4.28
-2.81
-2.01
-1.67
-1.51
-1.32
-1.01
-0.55
0.00
0.59
1.15
1.68
2.21
2.74
3.26
3.75
4.16
4.49
4.75
4.94
5.05
5.03
4.85
4.50
4.09
3.75
3.59
3.61
3.71
3.73
3.53
3.05
2.36
1.54
0.69
-0.15
-0.93
-1.57
-2.05
-2.49
-3.28
-4.98
-8.18
-13.24
-20.10
-28.27
-36.95
-45.29
-52.61
-58.44
-62.53
-64.70
-64.75
-62.45
-57.60
-50.20
-40.60
-29.59
-18.21
-7.61
1.31
8.19
13.18
16.85
19.84
22.60
25.22
27.56
29.30
30.24
30.39
29.94
29.16
28.28
27.41
26.46
25.26
23.64
21.58
19.25
16.91
14.82
13.09
11.64
10.25
8.68
6.88
5.01
3.38
2.25
1.71
1.54
1.38
0.82
-0.35
-2.09
-4.14
-6.18
-7.98
-9.43
-10.53
-11.26
-11.53
-11.20
-10.17
-8.52
-6.54
-4.68
-3.33
-2.71
-2.76
-3.20
-3.74
-4.15
-4.40
-4.64
-5.00
-5.55
-6.25
-6.93
-7.45
-7.76
-7.95
-8.23
-8.81
-9.82
-11.31
-13.14
-15.12
-17.07
-18.91
-20.71
-22.65
-24.95
-27.75
-31.09
-34.87
-38.91
-42.92
-46.64
-49.80
-52.17
-53.49
-53.46
-51.80
-48.27
-42.77
-35.42
-26.55
-16.56
-5.81
5.48
17.16
28.97
40.42
50.73
59.01
64.58
67.19
67.17
65.25
62.27
58.93
55.57
52.27
49.02
45.84
42.91
40.48
38.65
37.36
36.31
35.08
33.32
30.96
28.20
25.46
23.10
21.27
19.85
18.52
16.97
15.05
12.77
10.34
8.01
5.98
4.32
3.02
1.99
1.12
0.30
-0.53
-1.43
-2.46
-3.76
-5.52
-7.80
-10.50
-13.19
-15.31
-16.25
-15.75
-13.89
-11.15
-8.16
-5.44
-3.29
-1.73
-0.64
0.14
0.74
1.29
1.90
2.63
3.52
4.52
5.52
6.38
6.98
7.25
7.19
6.90
6.48
6.11
5.86
5.71
5.54
5.17
4.48
3.53
2.54
1.79
1.49
1.67
2.17
2.69
2.97
2.90
2.44
1.66
0.57
-0.78
-2.40
-4.18
-6.00
-7.78
-9.52
-11.32
-13.20
-15.05
-16.48
-16.97
-16.14
-14.00
-10.97
-7.72
-4.91
-2.88
-1.62
-0.83
-0.16
0.69
1.75
2.92
4.08
5.07
5.85
6.41
6.83
7.21
7.44
7.49
7.24
6.69
6.00
5.48
5.39
5.82
6.53
7.07
7.06
6.39
5.31
4.29
3.75
3.78
4.06
4.14
3.62
2.52
1.14
-0.08
-0.86
-1.25
-1.62
-2.45
-3.97
-6.09
-8.35
-10.18
-11.12
-10.99
-9.94
-8.34
-6.59
-4.92
-3.43
-2.00
-0.50
1.17
2.92
4.59
5.94
6.82
7.20
7.23
7.10
7.04
7.11
7.29
7.48
7.57
7.49
7.22
6.79
6.24
5.60
4.89
4.14
3.34
2.46
1.50
0.50
-0.43
-1.15
-1.54
-1.58
-1.36
-1.07
-0.83
-0.73
-0.72
-0.78
-0.93
-1.30
-2.06
-3.35
-5.15
-7.31
-9.52
-11.37
-12.50
-12.64
-11.71
-9.83
-7.32
-4.56
-1.95
0.20
1.79
2.87
3.56
4.06
4.46
4.77
4.97
5.01
4.88
4.64
4.38
4.16
4.00
3.81
3.50
3.00
2.36
1.66
1.04
0.58
0.29
0.04
-0.27
-0.73
-1.34
-2.00
-2.64
-3.20
-3.72
-4.31
-5.10
-6.20
-7.62
-9.33
-11.20
-13.12
-14.90
-16.36
-17.30
-17.56
-17.02
-15.75
-13.94
-11.74
-9.31
-6.63
-3.51
0.26
4.87
10.29
16.26
22.31
27.97
32.89
37.01
40.54
43.72
46.70
49.30
51.07
51.52
50.32
47.40
42.98
37.43
31.11
24.32
17.31
10.36
3.77
-2.10
-6.98
-10.73
-13.41
-15.22
-16.40
-17.22
-17.86
-18.42
-18.96
-19.51
-20.08
-20.73
-21.56
-22.57
-23.67
-24.65
-25.17
-24.94
-23.78
-21.68
-18.84
-15.54
-12.05
-8.62
-5.43
-2.64
-0.35
1.34
2.43
3.01
3.26
3.40
3.57
3.83
4.13
4.34
4.36
4.16
3.77
3.30
2.87
2.51
2.30
2.21
2.28
2.53
2.96
3.53
4.06
4.37
4.30
3.84
3.13
2.39
1.92
1.82
2.06
2.41
2.58
2.29
1.39
-0.08
-1.83
-3.26
-3.70
-2.50
0.60
5.37
11.03
16.50
20.74
23.12
23.54
22.32
19.97
16.88
13.22
9.03
4.40
-0.38
-4.87
-8.70
-11.71
-14.05
-16.09
-18.15
-20.30
-22.34
-23.93
-24.78
-24.88
-24.49
-23.96
-23.56
-23.32
-23.04
-22.44
-21.34
-19.78
-17.97
-16.23
-14.79
-13.69
-12.78
-11.78
-10.49
-8.87
-7.08
-5.40
-4.16
-3.53
-3.45
-3.67
-3.84
-3.66
-2.96
-1.74
-0.14
1.63
3.37
4.96
6.36
7.63
8.78
9.85
10.77
11.46
11.89
12.12
12.35
12.75
13.46
14.46
15.67
16.97
18.32
19.68
20.96
21.90
22.12
21.20
18.97
15.60
11.61
7.68
4.33
1.78
-0.13
-1.78
-3.47
-5.37
-7.38
-9.34
-11.09
-12.59
-13.89
-14.99
-15.88
-16.42
-16.52
-16.22
-15.67
-15.12
-14.78
-14.64
-14.50
-14.00
-12.72
-10.48
-7.27
-3.48
0.38
3.74
6.22
7.73
8.48
8.82
9.06
9.35
9.61
9.72
9.56
9.17
8.76
8.54
8.67
9.06
9.51
9.72
9.46
8.66
7.46
6.15
4.96
4.05
3.34
2.66
1.84
0.84
-0.17
-0.94
-1.22
-0.97
-0.31
0.47
1.05
1.20
0.82
-0.05
-1.37
-3.04
-4.99
-7.03
-8.89
-10.21
-10.67
-10.10
-8.61
-6.53
-4.35
-2.53
-1.28
-0.58
-0.20
0.18
0.74
1.46
2.11
2.43
2.24
1.59
0.75
0.06
-0.19
0.04
0.60
1.24
1.77
2.10
2.36
2.71
3.21
3.80
4.28
4.48
4.32
3.94
3.62
3.53
3.73
4.01
4.11
3.78
2.99
1.93
0.84
-0.09
-0.85
-1.62
-2.66
-4.18
-6.19
-8.41
-10.34
-11.45
-11.35
-9.97
-7.62
-4.86
-2.28
-0.30
0.99
1.77
2.29
2.72
3.07
3.22
3.07
2.64
2.14
1.83
1.91
2.43
3.21
3.97
4.44
4.50
4.19
3.75
3.42
3.36
3.55
3.81
3.87
3.61
3.03
2.30
1.61
1.01
0.41
-0.34
-1.31
-2.44
-3.60
-4.66
-5.58
-6.44
-7.26
-7.96
-8.38
-8.43
-8.25
-8.18
-8.55
-9.41
-10.34
-10.57
-9.38
-6.54
-2.50
1.76
5.20
7.17
7.71
7.38
6.83
6.48
6.18
5.48
3.96
1.67
-0.87
-2.81
-3.56
-2.99
-1.68
-0.47
-0.05
-0.57
-1.63
-2.54
-2.76
-2.17
-1.12
-0.19
0.20
-0.01
-0.60
-1.23
-1.70
-2.00
-2.31
-2.83
-3.66
-4.73
-5.83
-6.77
-7.45
-7.87
-8.19
-8.55
-9.14
-10.02
-11.16
-12.40
-13.49
-14.08
-13.87
-12.66
-10.48
-7.63
-4.58
-1.85
0.15
1.34
1.92
2.31
2.89
3.82
4.96
6.03
6.76
7.14
7.35
7.62
8.10
8.68
9.06
8.98
8.36
7.42
6.49
5.93
5.85
6.12
6.46
6.60
6.45
6.17
6.03
6.25
6.87
7.67
8.25
8.25
7.59
6.50
5.49
5.17
5.90
7.71
10.27
13.13
15.90
18.46
20.94
23.56
26.46
29.50
32.26
34.06
34.24
32.25
27.99
21.76
14.19
6.15
-1.55
-8.25
-13.60
-17.46
-19.98
-21.39
-21.93
-21.81
-21.07
-19.68
-17.57
-14.82
-11.65
-8.47
-5.69
-3.62
-2.33
-1.72
-1.62
-1.86
-2.38
-3.16
-4.20
-5.40
-6.62
-7.67
-8.40
-8.80
-8.97
-9.21
-9.78
-10.86
-12.32
-13.79
-14.75
-14.76
-13.70
-11.68
-8.99
-5.95
-2.85
0.03
2.34
3.70
3.87
3.02
1.74
0.99
1.67
4.29
8.72
14.26
19.89
24.55
27.35
27.76
25.54
20.86
14.26
6.62
-1.04
-7.70
-12.60
-15.46
-16.36
-15.75
-14.21
-12.27
-10.37
-8.72
-7.47
-6.62
-6.15
-6.08
-6.46
-7.31
-8.62
-10.27
-12.04
-13.65
-14.79
-15.27
-15.07
-14.31
-13.23
-12.09
-11.10
-10.33
-9.77
-9.38
-9.11
-8.97
-8.95
-9.13
-9.50
-10.06
-10.80
-11.70
-12.70
-13.71
-14.57
-14.97
-14.66
-13.41
-11.19
-8.19
-4.79
-1.41
1.59
3.97
5.72
6.90
7.63
8.05
8.18
8.10
7.85
7.57
7.37
7.38
7.59
7.97
8.42
8.81
9.07
9.22
9.29
9.29
9.21
8.98
8.54
7.88
7.05
6.15
5.24
4.37
3.51
2.59
1.56
0.48
-0.56
-1.38
-1.84
-1.89
-1.63
-1.27
-1.07
-1.28
-2.00
-3.22
-4.81
-6.54
-8.16
-9.41
-10.04
-9.89
-8.92
-7.29
-5.31
-3.33
-1.63
-0.34
0.66
1.60
2.69
4.01
5.42
6.66
7.50
7.87
7.87
7.76
7.77
8.01
8.39
8.73
8.87
8.78
8.49
8.10
7.64
7.09
6.44
5.67
4.87
4.11
3.45
2.86
2.29
1.64
0.87
-0.02
-0.99
-1.91
-2.60
-2.87
-2.58
-1.72
-0.53
0.58
1.20
1.04
0.07
-1.48
-3.22
-4.68
-5.57
-5.71
-5.11
-3.87
-2.19
-0.30
1.61
3.35
4.82
5.94
6.71
7.16
7.39
7.53
7.70
7.99
8.42
8.94
9.46
9.93
10.36
10.83
11.39
12.03
12.62
12.98
12.97
12.51
11.66
10.55
9.28
7.98
6.70
5.44
4.24
3.06
1.87
0.63
-0.65
-1.99
-3.36
-4.78
-6.31
-7.98
-9.78
-11.59
-13.20
-14.46
-15.38
-16.12
-16.92
-17.85
-18.76
-19.30
-19.09
-17.94
-16.04
-13.87
-11.90
-10.46
-9.53
-8.86
-8.13
-7.20
-6.09
-4.94
-3.87
-2.84
-1.76
-0.50
0.93
2.37
3.58
4.35
4.59
4.33
3.77
3.13
2.61
2.35
2.32
2.37
2.24
1.73
0.80
-0.36
-1.40
-2.02
-2.09
-1.77
-1.38
-1.23
-1.42
-1.86
-2.31
-2.61
-2.80
-3.01
-3.45
-4.20
-5.22
-6.35
-7.42
-8.34
-9.05
-9.48
-9.48
-8.84
-7.32
-4.90
-1.75
1.67
4.82
7.27
8.84
9.63
9.92
10.07
10.18
10.24
10.11
9.69
9.02
8.30
7.82
7.71
8.01
8.52
8.95
9.11
8.95
8.59
8.23
7.87
7.33
6.37
4.82
2.85
0.93
-0.34
-0.64
-0.17
0.47
0.61
-0.07
-1.38
-2.67
-3.30
-2.99
-2.14
-1.47
-1.70
-3.08
-5.29
-7.66
-9.53
-10.51
-10.74
-10.63
-10.47
-10.28
-9.79
-8.64
-6.71
-4.23
-1.82
-0.10
0.66
0.64
0.47
0.80
1.97
3.79
5.64
6.87
7.12
6.55
5.69
5.16
5.27
5.99
6.92
7.59
7.74
7.41
6.84
6.25
5.76
5.33
4.85
4.29
3.72
3.30
3.09
3.01
2.81
2.26
1.19
-0.33
-2.08
-3.79
-5.27
-6.48
-7.48
-8.39
-9.29
-10.20
-11.14
-12.08
-12.97
-13.64
-13.82
-13.22
-11.63
-9.09
-5.90
-2.55
0.48
2.86
4.57
5.83
6.90
7.97
9.00
9.79
10.09
9.74
8.75
7.29
5.56
3.72
1.80
-0.21
-2.23
-4.13
-5.63
-6.46
-6.48
-5.78
-4.63
-3.40
-2.40
-1.79
-1.55
-1.52
-1.52
-1.43
-1.25
-1.08
-1.07
-1.34
-1.88
-2.57
-3.16
-3.45
-3.39
-3.12
-2.91
-3.05
-3.65
-4.64
-5.81
-6.90
-7.68
-8.01
-7.79
-6.96
-5.52
-3.60
-1.43
0.64
2.32
3.48
4.14
4.51
4.81
5.23
5.80
6.45
7.01
7.35
7.36
7.06
6.57
6.08
5.76
5.72
5.95
6.33
6.72
6.97
7.06
6.97
6.81
6.61
6.42
6.22
5.94
5.49
4.80
3.87
2.79
1.73
0.84
0.22
-0.17
-0.49
-0.92
-1.60
-2.55
-3.71
-4.91
-6.01
-6.89
-7.44
-7.62
-7.32
-6.54
-5.33
-3.77
-2.06
-0.38
1.11
2.33
3.27
3.96
4.50
4.93
5.24
5.42
5.48
5.47
5.47
5.52
5.62
5.72
5.74
5.66
5.50
5.35
5.24
5.12
4.87
4.38
3.65
2.84
2.20
1.92
2.02
2.29
2.41
2.10
1.27
0.08
-1.19
-2.30
-3.15
-3.92
-4.88
-6.23
-7.98
-9.89
-11.58
-12.80
-13.41
-13.47
-13.06
-12.25
-10.99
-9.20
-6.90
-4.26
-1.54
0.95
3.00
4.55
5.60
6.20
6.40
6.24
5.83
5.33
4.91
4.67
4.66
4.80
5.03
5.31
5.69
6.27
7.05
7.93
8.69
9.13
9.20
9.05
8.90
8.94
9.14
9.25
8.92
7.89
6.11
3.81
1.33
-1.02
-3.08
-4.81
-6.32
-7.67
-8.86
-9.86
-10.58
-11.04
-11.27
-11.45
-11.74
-12.28
-13.07
-13.88
-14.34
-14.01
-12.63
-10.24
-7.19
-4.00
-1.16
1.11
2.94
4.59
6.28
7.95
9.39
10.25
10.41
9.96
9.28
8.68
8.27
7.90
7.22
6.00
4.20
2.08
0.07
-1.44
-2.27
-2.50
-2.40
-2.28
-2.35
-2.63
-2.97
-3.10
-2.79
-1.99
-0.86
0.29
1.14
1.54
1.53
1.29
0.98
0.64
0.19
-0.54
-1.61
-3.02
-4.64
-6.29
-7.81
-9.07
-9.96
-10.36
-10.14
-9.24
-7.73
-5.78
-3.68
-1.72
-0.08
1.15
2.04
2.69
3.23
3.73
4.18
4.56
4.86
5.11
5.35
5.63
6.01
6.48
6.98
7.37
7.50
7.27
6.69
5.87
5.05
4.37
3.88
3.51
3.12
2.61
2.01
1.42
0.96
0.68
0.53
0.38
0.12
-0.34
-0.98
-1.70
-2.39
-2.92
-3.27
-3.54
-3.90
-4.58
-5.72
-7.32
-9.14
-10.82
-11.95
-12.22
-11.57
-10.11
-8.17
-6.14
-4.36
-3.01
-2.07
-1.39
-0.75
-0.00
0.86
1.76
2.57
3.25
3.77
4.22
4.61
4.93
5.09
5.04
4.79
4.39
4.00
3.73
3.63
3.65
3.70
3.67
3.49
3.18
2.76
2.33
1.91
1.53
1.15
0.75
0.33
-0.05
-0.37
-0.61
-0.83
-1.14
-1.61
-2.30
-3.18
-4.17
-5.22
-6.35
-7.63
-9.14
-10.91
-12.80
-14.53
-15.72
-16.10
-15.66
-14.66
-13.57
-12.82
-12.60
-12.80
-13.12
-13.27
-13.22
-13.22
-13.63
-14.70
-16.40
-18.47
-20.56
-22.44
-24.13
-25.80
-27.66
-29.84
-32.41
-35.41
-38.85
-42.65
-46.58
-50.18
-52.76
-53.64
-52.31
-48.59
-42.60
-34.66
-25.13
-14.38
-2.74
9.32
21.19
32.10
41.30
48.28
52.93
55.58
56.78
56.99
56.42
54.77
51.69
46.95
40.89
34.38
28.63
24.62
22.75
22.63
23.31
23.86
23.71
22.87
21.78
20.93
20.55
20.42
20.03
18.94
17.06
14.75
12.65
11.36
11.06
11.46
11.94
11.94
11.22
9.96
8.62
7.60
7.05
6.83
6.59
6.07
5.22
4.24
3.38
2.90
2.85
3.11
3.47
3.73
3.78
3.62
3.30
2.87
2.33
1.63
0.68
-0.57
-2.03
-3.57
-4.97
-6.05
-6.78
-7.26
-7.69
-8.23
-8.94
-9.63
-10.02
-9.79
-8.74
-6.88
-4.46
-1.88
0.46
2.24
3.34
3.81
3.82
3.63
3.50
3.63
4.18
5.18
6.58
8.28
10.11
11.86
13.34
14.35
14.77
14.52
13.65
12.29
10.67
9.06
7.64
6.51
5.55
4.56
3.30
1.62
-0.49
-2.91
-5.45
-7.94
-10.30
-12.49
-14.43
-16.03
-17.11
-17.53
-17.23
-16.34
-15.13
-13.98
-13.25
-13.14
-13.66
-14.65
-15.78
-16.70
-17.11
-16.83
-15.79
-14.10
-11.92
-9.48
-6.95
-4.48
-2.21
-0.25
1.34
2.49
3.20
3.53
3.58
3.49
3.45
3.64
4.15
4.97
5.99
6.95
7.62
7.89
7.80
7.54
7.30
7.17
7.14
7.04
6.74
6.19
5.48
4.78
4.22
3.86
3.62
3.28
2.63
1.55
0.11
-1.47
-2.89
-3.93
-4.47
-4.56
-4.41
-4.27
-4.35
-4.89
-5.98
-7.67
-9.85
-12.27
-14.53
-16.19
-16.91
-16.50
-15.02
-12.75
-10.09
-7.44
-5.11
-3.23
-1.71
-0.42
0.86
2.20
3.58
4.90
6.04
6.98
7.83
8.68
9.56
10.40
10.99
11.12
10.70
9.80
8.65
7.53
6.69
6.25
6.20
6.35
6.49
6.43
6.05
5.43
4.75
4.22
3.94
3.82
3.62
3.10
2.15
0.86
-0.52
-1.69
-2.45
-2.82
-2.95
-3.04
-3.30
-3.83
-4.67
-5.78
-7.02
-8.20
-9.06
-9.31
-8.79
-7.53
-5.74
-3.80
-2.01
-0.56
0.58
1.54
2.45
3.32
4.00
4.35
4.33
4.10
3.96
4.19
4.81
5.64
6.28
6.43
5.98
5.09
4.15
3.54
3.49
4.01
4.86
5.75
6.42
6.79
6.89
6.86
6.73
6.45
5.82
4.70
3.16
1.46
-0.03
-1.03
-1.49
-1.64
-1.78
-2.12
-2.64
-3.21
-3.70
-4.19
-4.91
-6.13
-7.96
-10.15
-12.11
-13.16
-12.67
-10.41
-6.53
-1.45
4.35
10.54
17.06
23.94
31.15
38.39
45.05
50.34
53.50
54.03
51.83
47.12
40.37
32.12
23.00
13.60
4.53
-3.69
-10.62
-16.02
-19.86
-22.30
-23.71
-24.50
-25.08
-25.70
-26.37
-26.91
-27.06
-26.60
-25.51
-23.93
-22.14
-20.44
-19.00
-17.86
-16.91
-15.99
-14.95
-13.78
-12.59
-11.55
-10.83
-10.48
-10.39
-10.42
-10.38
-10.15
-9.70
-9.02
-8.11
-6.94
-5.46
-3.74
-2.03
-0.58
0.37
0.71
0.56
0.14
-0.26
-0.41
-0.15
0.55
1.65
3.09
4.76
6.53
8.31
10.01
11.59
13.02
14.23
15.14
15.71
15.95
15.92
15.65
15.15
14.37
13.23
11.73
9.91
7.87
5.69
3.39
0.91
-1.84
-4.88
-8.18
-11.63
-15.03
-18.23
-21.11
-23.61
-25.73
-27.46
-28.72
-29.33
-29.07
-27.74
-25.32
-22.02
-18.25
-14.48
-11.13
-8.41
-6.38
-4.99
-4.14
-3.68
-3.49
-3.34
-2.98
-2.17
-0.74
1.35
3.93
6.74
9.44
11.70
13.35
14.38
14.88
14.95
14.64
13.93
12.83
11.47
10.11
9.03
8.42
8.22
8.14
7.85
7.09
5.95
4.69
3.70
3.21
3.19
3.33
3.26
2.66
1.40
-0.36
-2.36
-4.28
-5.90
-7.08
-7.76
-7.82
-7.11
-5.56
-3.28
-0.66
1.77
3.54
4.44
4.65
4.56
4.59
4.88
5.27
5.45
5.16
4.36
3.25
2.13
1.25
0.68
0.38
0.24
0.21
0.25
0.39
0.60
0.81
0.80
0.35
-0.70
-2.26
-3.92
-5.11
-5.31
-4.36
-2.68
-1.00
-0.04
-0.12
-1.01
-2.13
-2.93
-3.24
-3.34
-3.76
-4.89
-6.70
-8.73
-10.42
-11.38
-11.58
-11.43
-11.36
-11.60
-11.95
-11.83
-10.69
-8.26
-4.80
-1.02
2.26
4.48
5.58
5.93
6.05
6.32
6.87
7.54
8.17
8.72
9.30
10.07
11.11
12.35
13.60
14.67
15.39
15.68
15.55
15.04
14.22
13.16
11.98
10.80
9.73
8.83
8.10
7.44
6.68
5.59
4.01
1.89
-0.67
-3.40
-5.93
-7.99
-9.41
-10.21
-10.55
-10.62
-10.65
-10.80
-11.16
-11.68
-12.22
-12.51
-12.25
-11.17
-9.19
-6.42
-3.19
0.02
2.73
4.62
5.62
5.96
5.99
6.01
6.17
6.38
6.52
6.47
6.32
6.26
6.48
6.96
7.51
7.87
7.86
7.48
6.92
6.43
6.16
6.11
6.14
6.12
5.93
5.57
5.08
4.49
3.80
2.94
1.88
0.60
-0.80
-2.17
-3.34
-4.23
-4.86
-5.37
-5.93
-6.66
-7.57
-8.60
-9.62
-10.60
-11.52
-12.35
-13.03
-13.43
-13.37
-12.72
-11.44
-9.61
-7.41
-5.06
-2.77
-0.73
0.96
2.27
3.24
3.93
4.44
4.84
5.18
5.56
6.02
6.63
7.40
8.26
9.10
9.75
10.05
9.94
9.44
8.64
7.73
6.88
6.20
5.72
5.35
4.93
4.37
3.63
2.82
2.08
1.50
1.10
0.79
0.50
0.18
-0.15
-0.44
-0.74
-1.13
-1.76
-2.72
-3.94
-5.21
-6.25
-6.81
-6.72
-5.93
-4.53
-2.72
-0.75
1.10
2.59
3.59
4.08
4.12
3.88
3.51
3.16
2.97
3.02
3.38
4.05
4.97
6.00
6.97
7.75
8.23
8.40
8.29
7.95
7.40
6.69
5.87
5.03
4.34
3.89
3.75
3.81
3.86
3.66
3.02
1.85
0.22
-1.70
-3.69
-5.56
-7.17
-8.51
-9.65
-10.74
-11.93
-13.30
-14.72
-15.92
-16.54
-16.29
-15.06
-12.98
-10.39
-7.73
-5.34
-3.39
-1.91
-0.75
0.25
1.20
2.14
2.98
3.67
4.17
4.54
4.87
5.27
5.76
6.21
6.46
6.34
5.78
4.91
3.96
3.15
2.63
2.37
2.24
2.13
2.01
1.94
1.99
2.15
2.32
2.30
1.94
1.20
0.23
-0.74
-1.52
-2.06
-2.49
-2.99
-3.78
-5.00
-6.66
-8.67
-10.88
-13.08
-14.97
-16.25
-16.61
-15.81
-13.84
-10.96
-7.67
-4.57
-2.11
-0.44
0.62
1.53
2.65
4.19
5.99
7.69
8.97
9.67
9.96
10.11
10.35
10.72
11.02
11.01
10.56
9.74
8.78
7.99
7.50
7.27
7.05
6.55
5.67
4.50
3.37
2.63
2.50
2.84
3.25
3.24
2.49
1.03
-0.79
-2.50
-3.78
-4.59
-5.15
-5.81
-6.79
-8.15
-9.73
-11.29
-12.59
-13.42
-13.60
-13.04
-11.73
-9.78
-7.40
-4.83
-2.30
0.05
2.14
3.94
5.41
6.52
7.26
7.66
7.86
8.07
8.42
8.96
9.59
10.10
10.33
10.23
9.82
9.27
8.69
8.16
7.67
7.17
6.65
6.19
5.89
5.82
5.91
5.96
5.73
5.09
4.05
2.80
1.54
0.39
-0.72
-1.91
-3.32
-4.89
-6.46
-7.73
-8.51
-8.82
-8.92
-9.13
-9.72
-10.78
-12.14
-13.40
-14.10
-13.90
-12.70
-10.64
-8.16
-5.65
-3.40
-1.46
0.38
2.41
4.78
7.42
9.99
12.02
13.12
13.14
12.25
10.84
9.36
8.14
7.28
6.75
6.42
6.21
6.07
5.97
5.82
5.40
4.54
3.13
1.27
-0.75
-2.59
-3.99
-4.86
-5.28
-5.45
-5.56
-5.80
-6.22
-6.82
-7.50
-8.12
-8.54
-8.62
-8.39
-7.93
-7.53
-7.45
-7.88
-8.81
-9.97
-10.98
-11.43
-11.16
-10.18
-8.77
-7.19
-5.69
-4.38
-3.28
-2.38
-1.66
-1.14
-0.73
-0.32
0.17
0.79
1.47
2.09
2.50
2.54
2.08
1.14
-0.10
-1.27
-1.84
-1.39
0.23
2.63
5.08
6.72
7.00
5.91
3.95
1.86
0.18
-0.94
-1.76
-2.53
-3.27
-3.64
-3.14
-1.56
0.84
3.15
4.36
3.78
1.51
-1.67
-4.65
-6.54
-7.12
-6.90
-6.74
-7.35
-8.89
-10.92
-12.64
-13.34
-12.68
-10.89
-8.49
-6.08
-3.99
-2.25
-0.68
0.89
2.49
3.92
4.89
5.23
4.97
4.32
3.64
3.17
3.11
3.40
3.96
4.59
5.15
5.50
5.58
5.41
5.05
4.58
4.05
3.45
2.75
1.97
1.17
0.50
0.13
0.12
0.43
0.86
1.21
1.31
1.14
0.82
0.54
0.48
0.66
0.96
1.15
1.00
0.41
-0.57
-1.72
-2.79
-3.54
-3.87
-3.75
-3.20
-2.28
-1.07
0.34
1.79
3.11
4.13
4.73
4.87
4.55
3.84
2.90
1.91
1.12
0.70
0.74
1.15
1.75
2.35
2.83
3.24
3.67
4.23
4.85
5.32
5.42
4.98
4.09
2.99
1.97
1.20
0.68
0.23
-0.36
-1.20
-2.25
-3.29
-4.09
-4.51
-4.58
-4.49
-4.49
-4.75
-5.32
-6.09
-6.91
-7.67
-8.36
-9.02
-9.64
-10.10
-10.18
-9.64
-8.39
-6.55
-4.40
-2.31
-0.61
0.56
1.24
1.62
1.94
2.39
2.97
3.52
3.84
3.77
3.35
2.80
2.42
2.41
2.76
3.24
3.53
3.43
2.98
2.40
1.99
1.91
2.12
2.42
2.55
2.36
1.84
1.12
0.36
-0.30
-0.84
-1.30
-1.80
-2.39
-3.07
-3.78
-4.43
-4.92
-5.21
-5.36
-5.43
-5.56
-5.80
-6.24
-6.95
-7.94
-9.10
-10.11
-10.57
-10.12
-8.63
-6.39
-3.94
-1.87
-0.56
0.02
0.24
0.49
0.98
1.59
2.02
2.02
1.59
1.02
0.66
0.72
1.20
1.87
2.41
2.66
2.59
2.39
2.29
2.46
2.95
3.57
4.07
4.16
3.71
2.77
1.60
0.53
-0.21
-0.56
-0.69
-0.83
-1.19
-1.80
-2.54
-3.25
-3.75
-4.02
-4.13
-4.21
-4.37
-4.72
-5.29
-6.08
-7.03
-7.97
-8.68
-8.88
-8.38
-7.11
-5.20
-2.96
-0.77
1.00
2.15
2.67
2.71
2.51
2.28
2.15
2.14
2.18
2.20
2.15
2.02
1.85
1.67
1.49
1.27
1.00
0.70
0.42
0.26
0.31
0.58
1.01
1.48
1.84
1.98
1.81
1.35
0.69
-0.05
-0.73
-1.22
-1.50
-1.64
-1.80
-2.12
-2.71
-3.53
-4.49
-5.45
-6.31
-7.02
-7.60
-8.12
-8.63
-9.17
-9.71
-10.09
-10.09
-9.50
-8.17
-6.19
-3.82
-1.47
0.50
1.90
2.80
3.40
3.85
4.19
4.34
4.21
3.81
3.34
3.09
3.26
3.89
4.77
5.60
6.06
6.07
5.73
5.29
4.97
4.85
4.85
4.82
4.60
4.17
3.64
3.19
2.90
2.73
2.53
2.09
1.32
0.29
-0.82
-1.81
-2.61
-3.28
-4.03
-4.99
-6.20
-7.49
-8.59
-9.22
-9.33
-9.05
-8.61
-8.20
-7.84
-7.37
-6.55
-5.21
-3.39
-1.34
0.56
1.99
2.77
2.91
2.59
2.09
1.69
1.54
1.71
2.11
2.63
3.09
3.44
3.71
3.99
4.39
4.93
5.54
6.11
6.50
6.63
6.54
6.35
6.11
5.84
5.44
4.78
3.74
2.33
0.65
-1.16
-2.98
-4.80
-6.66
-8.57
-10.50
-12.35
-14.05
-15.62
-17.20
-18.98
-21.08
-23.42
-25.78
-27.80
-29.22
-29.95
-30.10
-30.00
-30.01
-30.40
-31.24
-32.46
-33.85
-35.24
-36.59
-37.91
-39.34
-40.88
-42.39
-43.46
-43.52
-41.99
-38.41
-32.67
-24.90
-15.53
-5.08
5.88
16.80
27.16
36.48
44.34
50.48
54.81
57.40
58.44
58.15
56.75
54.43
51.40
47.89
44.16
40.48
37.05
33.95
31.15
28.49
25.78
22.86
19.68
16.30
12.89
9.68
6.94
4.90
3.67
3.30
3.65
4.52
5.55
6.41
6.89
7.02
7.08
7.43
8.35
9.78
11.32
12.40
12.61
11.95
10.83
9.89
9.63
10.14
11.02
11.67
11.60
10.75
9.48
8.37
7.81
7.84
7.96
7.55
6.21
4.02
1.56
-0.40
-1.38
-1.38
-1.04
-1.13
-2.14
-3.98
-6.03
-7.54
-8.09
-7.88
-7.66
-8.28
-10.22
-13.28
-16.70
-19.47
-20.87
-20.69
-19.29
-17.29
-15.20
-13.20
-11.18
-8.92
-6.35
-3.63
-1.15
0.76
1.98
2.63
2.99
3.34
3.82
4.49
5.32
6.30
7.42
8.64
9.82
10.75
11.23
11.19
10.72
10.02
9.28
8.57
7.89
7.17
6.42
5.71
5.11
4.67
4.27
3.71
2.83
1.57
0.06
-1.43
-2.68
-3.59
-4.23
-4.80
-5.54
-6.59
-8.00
-9.72
-11.67
-13.75
-15.87
-17.87
-19.52
-20.56
-20.68
-19.74
-17.74
-14.93
-11.69
-8.45
-5.53
-3.02
-0.85
1.17
3.12
4.92
6.36
7.25
7.57
7.52
7.46
7.66
8.19
8.90
9.52
9.85
9.87
9.72
9.59
9.61
9.77
9.94
9.91
9.59
8.90
7.94
6.87
5.90
5.19
4.75
4.46
4.03
3.21
1.89
0.19
-1.61
-3.26
-4.64
-5.87
-7.15
-8.62
-10.26
-11.88
-13.21
-14.05
-14.33
-14.05
-13.27
-12.01
-10.28
-8.10
-5.54
-2.75
0.07
2.71
4.97
6.65
7.60
7.80
7.36
6.54
5.68
5.13
5.04
5.42
6.10
6.87
7.58
8.10
8.38
8.34
7.95
7.24
6.37
5.56
5.02
4.81
4.83
4.79
4.46
3.71
2.63
1.43
0.33
-0.56
-1.19
-1.61
-1.84
-1.94
-2.01
-2.25
-2.83
-3.95
-5.61
-7.62
-9.61
-11.09
-11.61
-10.94
-9.07
-6.33
-3.18
-0.12
2.49
4.52
6.06
7.32
8.44
9.42
10.12
10.37
10.16
9.66
9.14
8.89
9.04
9.51
10.02
10.30
10.18
9.69
9.01
8.35
7.84
7.44
7.04
6.51
5.80
4.98
4.17
3.51
3.05
2.69
2.23
1.43
0.19
-1.43
-3.24
-4.94
-6.32
-7.34
-8.14
-9.02
-10.24
-11.92
-13.92
-15.81
-17.07
-17.24
-16.10
-13.79
-10.69
-7.26
-3.85
-0.63
2.38
5.19
7.77
10.00
11.83
13.31
14.59
15.85
17.18
18.51
19.69
20.63
21.32
21.87
22.39
22.88
23.20
23.15
22.60
21.50
19.87
17.82
15.38
12.64
9.73
6.87
4.31
2.23
0.66
-0.52
-1.55
-2.58
-3.58
-4.36
-4.70
-4.56
-4.15
-3.91
-4.33
-5.71
-8.02
-10.97
-14.10
-16.93
-19.12
-20.35
-20.41
-19.13
-16.47
-12.65
-8.16
-3.71
0.01
2.56
3.87
4.25
4.20
4.25
4.63
5.36
6.21
6.93
7.33
7.39
7.19
6.83
6.34
5.68
4.78
3.67
2.52
1.56
1.06
1.12
1.66
2.42
3.04
3.23
2.87
2.08
1.14
0.36
-0.10
-0.33
-0.55
-1.03
-1.87
-2.91
-3.85
-4.41
-4.54
-4.53
-4.91
-6.16
-8.48
-11.63
-14.96
-17.70
-19.25
-19.34
-18.11
-15.97
-13.29
-10.32
-7.13
-3.66
0.06
3.85
7.41
10.37
12.49
13.70
14.15
14.13
13.95
13.85
13.98
14.34
14.85
15.38
15.79
15.96
15.83
15.41
14.69
13.69
12.39
10.81
9.05
7.31
5.83
4.75
4.05
3.55
2.98
2.16
1.03
-0.33
-1.81
-3.34
-4.96
-6.76
-8.75
-10.85
-12.88
-14.69
-16.23
-17.59
-18.97
-20.54
-22.40
-24.43
-26.30
-27.52
-27.62
-26.31
-23.61
-19.85
-15.58
-11.36
-7.62
-4.51
-1.97
0.17
2.05
3.69
5.07
6.14
6.92
7.53
8.14
8.88
9.78
10.78
11.71
12.40
12.76
12.78
12.53
12.16
11.77
11.44
11.13
10.77
10.29
9.67
8.89
7.99
6.98
5.88
4.69
3.48
2.28
1.16
0.12
-0.88
-1.84
-2.85
-3.93
-5.18
-6.69
-8.60
-10.96
-13.72
-16.59
-19.15
-20.95
-21.63
-21.16
-19.70
-17.59
-15.13
-12.51
-9.77
-6.92
-4.01
-1.19
1.33
3.38
4.92
6.08
7.11
8.21
9.48
10.78
11.87
12.53
12.71
12.59
12.47
12.62
13.11
13.62
13.71
13.01
11.46
9.43
7.56
6.36
6.01
6.16
6.20
5.61
4.22
2.33
0.49
-0.85
-1.57
-2.05
-2.87
-4.44
-6.79
-9.48
-11.88
-13.55
-14.41
-14.90
-15.66
-17.17
-19.50
-22.19
-24.45
-25.55
-25.04
-22.94
-19.69
-15.87
-12.03
-8.52
-5.46
-2.86
-0.62
1.30
2.94
4.30
5.38
6.22
6.86
7.37
7.85
8.42
9.10
9.89
10.63
11.21
11.51
11.52
11.37
11.19
11.05
10.91
10.62
10.03
9.08
7.88
6.68
5.72
5.12
4.82
4.62
4.23
3.46
2.25
0.73
-0.88
-2.32
-3.49
-4.40
-5.20
-6.08
-7.18
-8.49
-9.94
-11.44
-12.94
-14.45
-15.93
-17.24
-18.05
-17.96
-16.64
-14.04
-10.44
-6.39
-2.53
0.67
3.01
4.61
5.68
6.44
6.98
7.30
7.36
7.21
7.01
6.94
7.15
7.68
8.41
9.12
9.61
9.75
9.55
9.17
8.83
8.64
8.59
8.49
8.08
7.17
5.74
4.00
2.28
0.92
0.05
-0.42
-0.79
-1.40
-2.48
-4.00
-5.73
-7.32
-8.49
-9.16
-9.47
-9.73
-10.29
-11.32
-12.84
-14.65
-16.51
-18.17
-19.45
-20.19
-20.22
-19.33
-17.40
-14.49
-10.91
-7.13
-3.69
-0.93
1.13
2.66
3.92
5.08
6.11
6.86
7.21
7.18
7.00
6.99
7.38
8.22
9.32
10.33
10.91
10.89
10.30
9.40
8.49
7.82
7.47
7.35
7.23
6.93
6.38
5.65
4.89
4.21
3.62
3.02
2.28
1.35
0.29
-0.71
-1.52
-2.16
-2.82
-3.70
-4.96
-6.54
-8.27
-9.89
-11.23
-12.17
-12.63
-12.49
-11.56
-9.70
-6.95
-3.60
-0.17
2.79
4.89
6.04
6.46
6.51
6.52
6.64
6.79
6.85
6.75
6.56
6.48
6.66
7.12
7.73
8.25
8.43
8.18
7.55
6.68
5.75
4.86
4.07
3.35
2.65
1.97
1.32
0.72
0.16
-0.41
-1.08
-1.90
-2.87
-3.90
-4.89
-5.72
-6.37
-6.88
-7.34
-7.86
-8.55
-9.52
-10.82
-12.48
-14.42
-16.39
-18.02
-18.86
-18.56
-17.02
-14.41
-11.15
-7.77
-4.69
-2.18
-0.25
1.25
2.50
3.60
4.56
5.34
5.96
6.50
7.11
7.86
8.76
9.61
10.18
10.22
9.75
8.98
8.30
8.06
8.35
8.99
9.57
9.70
9.20
8.19
7.02
6.03
5.46
5.30
5.38
5.49
5.46
5.23
4.83
4.31
3.72
3.11
2.55
2.03
1.55
1.10
0.66
0.16
-0.49
-1.39
-2.58
-3.86
-4.80
-4.82
-3.49
-0.82
2.57
5.65
7.41
7.31
5.57
2.96
0.44
-1.34
-2.22
-2.48
-2.45
-2.29
-1.91
-1.11
0.12
1.52
2.51
2.51
1.22
-1.25
-4.42
-7.53
-9.96
-11.38
-11.84
-11.71
-11.44
-11.34
-11.42
-11.52
-11.39
-10.92
-10.28
-9.77
-9.66
-10.05
-10.79
-11.57
-12.11
-12.32
-12.27
-12.24
-12.39
-12.83
-13.48
-14.22
-14.91
-15.49
-15.92
-16.12
-15.94
-15.17
-13.66
-11.32
-8.29
-4.87
-1.46
1.56
3.94
5.65
6.84
7.72
8.51
9.30
10.09
10.82
11.46
11.98
12.40
12.71
12.88
12.88
12.72
12.42
12.06
11.64
11.15
10.53
9.77
8.92
8.06
7.28
6.54
5.78
4.84
3.74
2.61
1.67
1.07
0.78
0.63
0.37
-0.14
-0.86
-1.60
-2.19
-2.67
-3.22
-4.10
-5.38
-6.90
-8.25
-8.95
-8.68
-7.37
-5.28
-2.79
-0.34
1.80
3.51
4.86
5.96
6.90
7.66
8.14
8.25
7.96
7.39
6.72
6.19
5.94
5.96
6.14
6.27
6.23
5.98
5.58
5.16
4.78
4.40
3.94
3.32
2.51
1.59
0.72
-0.01
-0.59
-1.17
-1.94
-3.04
-4.46
-6.00
-7.43
-8.50
-9.14
-9.44
-9.59
-9.79
-10.18
-10.83
-11.65
-12.49
-13.12
-13.28
-12.72
-11.28
-9.00
-6.21
-3.42
-1.12
0.43
1.35
2.09
3.13
4.70
6.58
8.26
9.28
9.53
9.33
9.28
9.80
10.93
12.18
12.87
12.57
11.31
9.64
8.28
7.72
7.99
8.58
8.80
8.21
6.83
5.17
3.88
3.39
3.64
4.08
4.01
2.92
0.79
-1.96
-4.72
-6.98
-8.55
-9.62
-10.58
-11.76
-13.30
-15.05
-16.69
-17.82
-18.07
-17.31
-15.59
-13.14
-10.31
-7.45
-4.81
-2.61
-0.88
0.38
1.26
1.82
2.12
2.21
2.14
2.00
1.94
2.13
2.67
3.54
4.57
5.51
6.18
6.53
6.66
6.71
6.74
6.73
6.58
6.22
5.69
5.14
4.72
4.44
4.16
3.64
2.66
1.15
-0.74
-2.68
-4.34
-5.47
-6.06
-6.28
-6.47
-6.96
-8.00
-9.63
-11.64
-13.73
-15.47
-16.53
-16.70
-15.91
-14.25
-11.90
-9.10
-6.12
-3.26
-0.76
1.18
2.53
3.43
4.14
4.91
5.89
7.06
8.28
9.32
10.00
10.23
9.99
9.37
8.53
7.67
6.99
6.64
6.69
7.02
7.47
7.83
7.98
7.87
7.53
6.96
6.17
5.15
3.95
2.71
1.54
0.52
-0.39
-1.31
-2.41
-3.77
-5.37
-7.07
-8.70
-10.15
-11.36
-12.33
-13.00
-13.31
-13.11
-12.36
-11.13
-9.60
-8.07
-6.74
-5.63
-4.59
-3.36
-1.75
0.23
2.30
4.07
5.23
5.68
5.63
5.46
5.52
5.94
6.56
7.06
7.07
6.42
5.14
3.51
1.86
0.37
-0.89
-2.00
-3.09
-4.17
-5.09
-5.69
-5.85
-5.65
-5.39
-5.42
-5.96
-6.97
-8.23
-9.43
-10.39
-11.23
-12.22
-13.67
-15.67
-18.08
-20.52
-22.58
-23.91
-24.42
-24.13
-23.11
-21.36
-18.84
-15.55
-11.64
-7.46
-3.51
-0.22
2.19
3.82
4.93
5.86
6.76
7.65
8.39
8.86
9.09
9.20
9.36
9.64
10.07
10.60
11.13
11.56
11.79
11.77
11.49
11.02
10.43
9.85
9.37
8.98
8.62
8.20
7.57
6.65
5.48
4.20
3.05
2.30
2.06
2.25
2.58
2.71
2.35
1.41
-0.04
-1.82
-3.69
-5.41
-6.72
-7.32
-6.99
-5.68
-3.56
-1.07
1.29
3.11
4.21
4.70
4.82
4.81
4.79
4.71
4.47
4.00
3.34
2.58
1.88
1.33
0.99
0.83
0.87
1.02
1.26
1.48
1.57
1.46
1.12
0.62
0.05
-0.48
-0.90
-1.19
-1.32
-1.29
-1.10
-0.80
-0.49
-0.28
-0.24
-0.35
-0.51
-0.52
-0.32
0.05
0.31
0.09
-0.92
-2.80
-5.25
-7.69
-9.40
-9.86
-8.88
-6.74
-3.98
-1.23
1.05
2.71
3.83
4.60
5.14
5.49
5.59
5.37
4.90
4.35
3.95
3.84
4.05
4.40
4.70
4.81
4.71
4.57
4.58
4.89
5.48
6.19
6.85
7.30
7.56
7.71
7.86
7.98
7.96
7.57
6.72
5.38
3.77
2.16
0.81
-0.14
-0.72
-1.06
-1.31
-1.61
-2.09
-2.85
-3.93
-5.38
-7.19
-9.30
-11.53
-13.62
-15.23
-16.01
-15.75
-14.41
-12.18
-9.47
-6.72
-4.31
-2.39
-0.85
0.51
1.87
3.20
4.30
4.91
4.90
4.40
3.77
3.41
3.56
4.22
5.13
5.95
6.44
6.58
6.54
6.53
6.64
6.78
6.73
6.30
5.49
4.51
3.68
3.26
3.33
3.69
4.03
4.06
3.64
2.84
1.86
0.87
-0.04
-0.87
-1.65
-2.41
-3.12
-3.73
-4.17
-4.46
-4.62
-4.73
-4.81
-4.79
-4.50
-3.69
-2.19
0.07
2.90
5.95
8.83
11.24
13.14
14.69
16.15
17.65
19.14
20.38
21.16
21.47
21.60
22.09
23.40
25.66
28.55
31.40
33.50
34.37
33.90
32.32
30.00
27.21
24.08
20.70
17.26
14.18
11.98
11.16
11.92
14.06
17.05
20.23
23.01
24.99
25.90
25.51
23.44
19.31
12.80
3.95
-6.76
-18.36
-29.69
-39.66
-47.64
-53.41
-57.17
-59.24
-59.85
-59.06
-56.85
-53.24
-48.53
-43.16
-37.67
-32.52
-27.91
-23.84
-20.25
-17.12
-14.66
-13.14
-12.75
-13.31
-14.32
-15.07
-14.96
-13.76
-11.84
-9.87
-8.51
-8.10
-8.41
-8.90
-9.02
-8.50
-7.63
-6.90
-6.73
-7.12
-7.54
-7.27
-5.81
-3.12
0.23
3.38
5.65
6.80
7.22
7.60
8.57
10.43
12.93
15.53
17.64
18.93
19.43
19.48
19.52
20.00
21.17
23.06
25.58
28.43
31.15
33.10
33.50
31.67
27.18
20.16
11.30
1.74
-7.25
-14.67
-20.03
-23.35
-25.03
-25.58
-25.44
-24.95
-24.35
-23.77
-23.32
-22.94
-22.51
-21.79
-20.65
-19.05
-17.17
-15.24
-13.50
-12.07
-10.92
-10.01
-9.27
-8.71
-8.34
-8.17
-8.14
-8.18
-8.18
-8.11
-7.95
-7.73
-7.42
-6.98
-6.37
-5.56
-4.58
-3.54
-2.53
-1.70
-1.09
-0.75
-0.67
-0.76
-0.86
-0.67
0.12
1.69
3.94
6.51
8.86
10.50
11.30
11.44
11.39
11.58
12.22
13.14
14.00
14.47
14.42
13.97
13.33
12.70
12.11
11.44
10.58
9.48
8.24
6.99
5.87
4.91
4.11
3.37
2.67
1.98
1.31
0.70
0.18
-0.22
-0.51
-0.73
-1.05
-1.60
-2.47
-3.60
-4.79
-5.81
-6.48
-6.85
-7.11
-7.51
-8.20
-9.17
-10.20
-11.01
-11.34
-11.04
-10.11
-8.59
-6.66
-4.47
-2.28
-0.34
1.09
1.87
2.08
1.94
1.76
1.81
2.16
2.72
3.28
3.72
3.98
4.20
4.45
4.80
5.19
5.54
5.81
5.98
6.09
6.12
6.01
5.63
4.93
3.95
2.86
1.87
1.13
0.71
0.48
0.27
-0.08
-0.68
-1.51
-2.47
-3.39
-4.10
-4.58
-4.90
-5.18
-5.57
-6.12
-6.78
-7.46
-7.99
-8.27
-8.20
-7.71
-6.76
-5.35
-3.56
-1.56
0.38
1.99
3.02
3.36
3.08
2.35
1.46
0.67
0.24
0.26
0.75
1.58
2.59
3.56
4.36
4.91
5.21
5.31
5.26
5.10
4.81
4.40
3.91
3.41
3.01
2.77
2.68
2.63
2.44
1.97
1.14
0.04
-1.17
-2.24
-3.04
-3.48
-3.64
-3.69
-3.83
-4.24
-4.95
-5.95
-7.14
-8.44
-9.73
-10.85
-11.61
-11.76
-11.11
-9.63
-7.53
-5.17
-3.03
-1.45
-0.54
-0.16
-0.01
0.19
0.60
1.16
1.72
2.16
2.50
2.93
3.65
4.74
6.06
7.26
7.98
8.00
7.35
6.27
5.15
4.29
3.78
3.55
3.38
3.09
2.59
1.92
1.20
0.57
0.09
-0.24
-0.50
-0.74
-0.97
-1.15
-1.20
-1.12
-0.96
-0.90
-1.11
-1.75
-2.83
-4.21
-5.61
-6.62
-6.86
-6.04
-4.15
-1.41
1.70
4.65
7.00
8.54
9.34
9.62
9.71
9.92
10.49
11.63
13.50
16.18
19.65
23.74
28.13
32.50
36.57
40.24
43.57
46.70
49.65
52.24
53.98
54.17
52.09
47.24
39.54
29.39
17.62
5.24
-6.81
-17.78
-27.17
-34.72
-40.29
-43.87
-45.59
-45.79
-44.96
-43.67
-42.39
-41.35
-40.53
-39.73
-38.72
-37.32
-35.48
-33.22
-30.53
-27.42
-23.85
-19.96
-16.01
-12.35
-9.34
-7.12
-5.60
-4.49
-3.47
-2.32
-1.00
0.36
1.58
2.57
3.37
4.15
5.07
6.17
7.34
8.33
8.86
8.75
8.05
7.01
5.98
5.27
4.99
5.00
5.04
4.85
4.28
3.37
2.28
1.20
0.28
-0.42
-0.94
-1.38
-1.84
-2.44
-3.22
-4.17
-5.24
-6.36
-7.50
-8.63
-9.69
-10.54
-10.94
-10.58
-9.30
-7.14
-4.44
-1.72
0.57
2.19
3.23
3.97
4.66
5.37
5.95
6.22
6.07
5.66
5.27
5.14
5.35
5.74
6.05
6.06
5.78
5.34
5.00
4.91
5.06
5.29
5.39
5.23
4.83
4.34
3.95
3.73
3.64
3.44
2.88
1.81
0.30
-1.36
-2.83
-3.83
-4.30
-4.37
-4.28
-4.20
-4.22
-4.36
-4.72
-5.36
-6.32
-7.42
-8.23
-8.21
-6.91
-4.33
-0.92
2.54
5.31
7.03
7.79
8.05
8.28
8.71
9.17
9.32
8.91
8.00
6.99
6.43
6.64
7.55
8.61
9.12
8.60
7.10
5.19
3.69
3.19
3.75
4.79
5.47
5.16
3.77
1.84
0.22
-0.46
-0.11
0.74
1.30
1.01
-0.15
-1.67
-2.79
-3.03
-2.36
-1.32
-0.62
-0.77
-1.89
-3.66
-5.63
-7.38
-8.66
-9.44
-9.73
-9.52
-8.76
-7.46
-5.71
-3.67
-1.51
0.67
2.82
4.88
6.77
8.36
9.57
10.41
11.06
11.78
12.73
13.97
15.34
16.63
17.64
18.31
18.75
19.22
19.99
21.21
22.87
24.77
26.58
28.01
28.94
29.48
29.94
30.62
31.73
33.23
34.95
36.64
38.08
39.06
39.39
38.89
37.40
34.89
31.53
27.68
23.80
20.22
17.10
14.33
11.62
8.66
5.28
1.53
-2.38
-6.15
-9.52
-12.46
-15.06
-17.58
-20.25
-23.19
-26.44
-29.94
-33.68
-37.63
-41.78
-45.99
-49.96
-53.32
-55.68
-56.91
-57.08
-56.49
-55.45
-54.09
-52.32
-49.85
-46.40
-41.89
-36.61
-31.09
-25.91
-21.46
-17.76
-14.44
-10.95
-6.81
-1.91
3.50
8.89
13.70
17.60
20.55
22.75
24.52
26.08
27.56
28.90
30.06
31.05
31.89
32.64
33.25
33.63
33.65
33.31
32.77
32.35
32.40
33.14
34.56
36.34
38.04
39.20
39.52
38.90
37.39
35.10
32.14
28.57
24.51
20.13
15.66
11.32
7.24
3.44
-0.13
-3.54
-6.73
-9.63
-12.09
-14.07
-15.64
-17.01
-18.48
-20.32
-22.65
-25.44
-28.53
-31.66
-34.64
-37.31
-39.58
-41.41
-42.76
-43.60
-43.89
-43.69
-43.06
-42.07
-40.72
-38.99
-36.80
-34.19
-31.34
-28.52
-26.03
-24.03
-22.48
-21.10
-19.45
-17.05
-13.60
-9.07
-3.77
1.73
6.75
10.77
13.50
15.07
15.81
16.10
16.20
16.20
16.05
15.72
15.32
14.95
14.71
14.54
14.28
13.81
13.07
12.23
11.49
11.03
10.86
10.84
10.71
10.19
9.11
7.44
5.29
2.90
0.55
-1.53
-3.24
-4.58
-5.67
-6.57
-7.30
-7.76
-7.85
-7.53
-6.88
-6.05
-5.20
-4.52
-4.18
-4.30
-4.98
-6.15
-7.54
-8.67
-9.04
-8.31
-6.46
-3.81
-0.91
1.76
3.95
5.73
7.33
8.95
10.65
12.32
13.77
14.87
15.64
16.17
16.54
16.76
16.77
16.43
15.71
14.61
13.24
11.72
10.17
8.59
6.97
5.17
3.09
0.62
-2.18
-5.08
-7.77
-9.95
-11.49
-12.54
-13.37
-14.29
-15.43
-16.63
-17.60
-18.09
-18.01
-17.55
-16.97
-16.61
-16.65
-17.09
-17.85
-18.75
-19.66
-20.38
-20.73
-20.49
-19.51
-17.70
-15.15
-12.10
-8.86
-5.78
-3.12
-1.03
0.50
1.52
2.18
2.59
2.87
3.12
3.38
3.70
4.04
4.38
4.65
4.81
4.86
4.76
4.51
4.03
3.23
2.09
0.67
-0.88
-2.35
-3.56
-4.44
-4.98
-5.27
-5.34
-5.24
-4.95
-4.56
-4.21
-4.10
-4.42
-5.20
-6.28
-7.40
-8.29
-8.87
-9.28
-9.78
-10.66
-12.03
-13.68
-15.16
-15.95
-15.64
-14.17
-11.79
-8.98
-6.31
-4.16
-2.68
-1.74
-1.10
-0.50
0.17
0.91
1.62
2.21
2.67
3.03
3.33
3.55
3.65
3.57
3.31
3.01
2.83
2.94
3.41
4.15
4.96
5.62
5.88
5.66
5.02
4.09
3.09
2.20
1.54
1.11
0.83
0.56
0.15
-0.50
-1.43
-2.56
-3.78
-4.96
-6.01
-6.92
-7.76
-8.61
-9.53
-10.55
-11.62
-12.65
-13.44
-13.75
-13.32
-11.98
-9.78
-7.04
-4.23
-1.80
-0.07
0.97
1.55
1.95
2.37
2.80
3.14
3.31
3.38
3.53
3.98
4.83
5.94
7.02
7.77
8.08
8.08
7.97
7.92
7.93
7.86
7.56
7.05
6.53
6.27
6.36
6.66
6.84
6.61
5.90
4.92
4.05
3.57
3.51
3.68
3.76
3.54
3.02
2.32
1.55
0.78
-0.18
-1.55
-3.42
-5.59
-7.50
-8.46
-7.95
-5.89
-2.85
0.21
2.43
3.38
3.31
2.99
3.11
4.02
5.35
6.38
6.50
5.61
4.18
3.03
2.77
3.46
4.53
5.15
4.75
3.31
1.48
0.15
-0.07
0.88
2.37
3.51
3.61
2.56
0.79
-0.94
-2.03
-2.26
-1.93
-1.60
-1.77
-2.70
-4.24
-6.04
-7.65
-8.70
-9.12
-9.03
-8.81
-8.89
-9.61
-11.09
-13.12
-15.23
-16.87
-17.56
-17.09
-15.54
-13.19
-10.40
-7.51
-4.71
-2.10
0.30
2.45
4.30
5.72
6.58
6.88
6.74
6.44
6.28
6.46
7.00
7.71
8.32
8.66
8.73
8.66
8.65
8.79
9.05
9.29
9.40
9.33
9.13
8.92
8.72
8.55
8.33
8.01
7.59
7.12
6.69
6.35
6.08
5.79
5.43
4.96
4.38
3.73
3.02
2.22
1.23
-0.04
-1.70
-3.70
-5.90
-7.96
-9.45
-9.99
-9.32
-7.51
-4.88
-1.95
0.78
2.97
4.52
5.60
6.39
7.07
7.67
8.17
8.53
8.77
8.96
9.12
9.26
9.27
9.07
8.59
7.94
7.26
6.74
6.56
6.70
7.06
7.37
7.38
6.90
5.89
4.53
3.12
1.98
1.22
0.77
0.39
-0.16
-0.99
-2.00
-3.01
-3.83
-4.44
-4.96
-5.53
-6.28
-7.19
-8.17
-9.16
-10.13
-11.17
-12.26
-13.24
-13.75
-13.38
-11.85
-9.22
-5.89
-2.50
0.36
2.36
3.53
4.14
4.52
4.81
5.01
5.00
4.74
4.31
3.97
4.04
4.73
6.00
7.60
9.14
10.28
10.82
10.80
10.42
9.89
9.30
8.63
7.78
6.70
5.52
4.45
3.70
3.31
3.07
2.61
1.63
0.06
-1.90
-3.87
-5.53
-6.78
-7.81
-8.94
-10.48
-12.51
-14.89
-17.31
-19.40
-20.87
-21.49
-21.17
-19.91
-17.81
-15.08
-12.04
-8.99
-6.14
-3.61
-1.37
0.60
2.31
3.70
4.71
5.33
5.71
6.02
6.40
6.90
7.39
7.71
7.71
7.38
6.86
6.33
5.95
5.69
5.48
5.18
4.71
4.12
3.52
3.01
2.58
2.11
1.39
0.22
-1.42
-3.40
-5.42
-7.17
-8.41
-9.15
-9.56
-9.99
-10.76
-12.06
-13.87
-15.99
-18.14
-19.94
-21.08
-21.24
-20.25
-18.10
-14.97
-11.23
-7.39
-3.90
-1.04
1.06
2.48
3.35
3.82
4.11
4.35
4.68
5.12
5.59
5.93
6.04
5.89
5.61
5.37
5.24
5.15
4.90
4.34
3.44
2.41
1.51
0.97
0.82
0.79
0.54
-0.31
-1.95
-4.34
-7.13
-9.84
-12.08
-13.61
-14.53
-15.16
-15.87
-16.93
-18.32
-19.87
-21.28
-22.43
-23.29
-23.93
-24.34
-24.23
-23.19
-20.85
-17.20
-12.66
-8.01
-3.96
-0.82
1.63
3.91
6.56
9.73
13.10
16.16
18.40
19.66
20.04
19.83
19.24
18.30
16.92
14.98
12.45
9.44
6.18
2.99
0.19
-1.97
-3.40
-4.13
-4.30
-4.04
-3.43
-2.45
-1.09
0.55
2.24
3.66
4.52
4.71
4.32
3.53
2.53
1.35
-0.14
-2.19
-5.00
-8.47
-12.08
-15.00
-16.29
-15.37
-12.24
-7.57
-2.35
2.45
6.34
9.35
11.88
14.31
16.70
18.85
20.35
20.96
20.68
19.80
18.68
17.62
16.79
16.18
15.71
15.31
14.95
14.63
14.33
14.03
13.67
13.18
12.49
11.57
10.43
9.08
7.52
5.67
3.45
0.80
-2.23
-5.45
-8.57
-11.34
-13.62
-15.40
-16.78
-17.87
-18.81
-19.68
-20.61
-21.67
-22.81
-23.77
-24.06
-23.14
-20.58
-16.29
-10.60
-4.12
2.41
8.31
13.13
16.67
18.98
20.24
20.73
20.73
20.51
20.20
19.86
19.39
18.70
17.67
16.30
14.59
12.68
10.71
8.84
7.20
5.86
4.85
4.11
3.55
3.09
2.66
2.31
2.04
1.92
1.92
1.94
1.81
1.41
0.64
-0.44
-1.73
-3.13
-4.48
-5.78
-7.06
-8.46
-10.15
-12.16
-14.29
-16.06
-16.88
-16.31
-14.30
-11.25
-7.77
-4.38
-1.28
1.67
4.75
7.95
10.96
13.30
14.61
14.93
14.68
14.36
14.29
14.44
14.51
14.24
13.59
12.82
12.30
12.24
12.55
12.77
12.33
10.83
8.27
5.14
2.14
-0.06
-1.24
-1.69
-2.05
-2.91
-4.46
-6.37
-8.03
-8.97
-9.17
-9.15
-9.66
-11.24
-13.92
-17.19
-20.24
-22.33
-22.95
-22.04
-19.83
-16.65
-12.88
-8.84
-4.79
-0.95
2.59
5.73
8.47
10.78
12.67
14.09
15.05
15.56
15.75
15.76
15.76
15.84
16.04
16.24
16.33
16.13
15.62
14.87
13.96
12.97
11.84
10.49
8.87
7.06
5.22
3.59
2.26
1.20
0.17
-1.03
-2.57
-4.39
-6.30
-8.10
-9.66
-11.09
-12.63
-14.56
-17.03
-19.92
-22.81
-25.05
-26.06
-25.44
-23.21
-19.71
-15.49
-11.06
-6.77
-2.77
0.89
4.18
7.08
9.51
11.46
12.97
14.15
15.10
15.86
16.44
16.78
16.86
16.71
16.43
16.18
16.07
16.11
16.14
15.93
15.23
13.96
12.24
10.33
8.55
7.05
5.77
4.50
3.01
1.15
-1.03
-3.33
-5.47
-7.23
-8.58
-9.57
-10.44
-11.44
-12.80
-14.65
-16.94
-19.49
-21.91
-23.75
-24.51
-23.85
-21.59
-17.90
-13.25
-8.29
-3.72
-0.03
2.64
4.47
5.87
7.28
8.99
11.00
13.12
15.02
16.42
17.23
17.52
17.56
17.56
17.64
17.73
17.63
17.15
16.25
15.07
13.89
12.93
12.22
11.61
10.84
9.74
8.32
6.69
5.07
3.51
1.95
0.26
-1.64
-3.70
-5.70
-7.52
-9.12
-10.68
-12.51
-14.83
-17.62
-20.48
-22.75
-23.71
-22.90
-20.37
-16.62
-12.37
-8.32
-4.83
-1.93
0.55
2.82
4.90
6.66
7.93
8.62
8.80
8.73
8.70
8.90
9.33
9.80
10.02
9.82
9.24
8.54
8.08
8.12
8.59
9.18
9.44
9.06
8.02
6.51
4.84
3.28
1.94
0.78
-0.28
-1.28
-2.23
-3.09
-3.83
-4.44
-4.95
-5.51
-6.29
-7.50
-9.23
-11.51
-14.18
-17.00
-19.63
-21.67
-22.74
-22.48
-20.80
-17.86
-14.10
-10.11
-6.41
-3.33
-0.86
1.13
2.85
4.41
5.86
7.19
8.40
9.43
10.21
10.62
10.60
10.21
9.65
9.20
9.05
9.26
9.75
10.30
10.74
10.88
10.67
10.08
9.16
7.97
6.60
5.15
3.75
2.53
1.63
1.15
1.04
1.07
0.88
0.10
-1.39
-3.41
-5.49
-7.10
-7.95
-8.15
-8.13
-8.45
-9.57
-11.62
-14.39
-17.35
-19.81
-21.11
-20.81
-18.83
-15.49
-11.43
-7.34
-3.74
-0.79
1.57
3.50
5.08
6.27
6.98
7.22
7.23
7.35
7.82
8.75
9.91
11.04
11.80
12.05
11.80
11.23
10.54
9.89
9.40
9.03
8.75
8.45
8.07
7.55
6.87
6.01
4.93
3.69
2.37
1.13
0.11
-0.63
-1.18
-1.68
-2.31
-3.12
-4.05
-4.96
-5.77
-6.47
-7.19
-8.07
-9.24
-10.72
-12.46
-14.33
-16.16
-17.70
-18.65
-18.70
-17.70
-15.62
-12.73
-9.43
-6.18
-3.36
-1.13
0.53
1.77
2.75
3.57
4.23
4.70
5.00
5.20
5.44
5.82
6.34
6.89
7.35
7.58
7.58
7.42
7.22
7.04
6.88
6.64
6.25
5.68
5.00
4.35
3.84
3.54
3.36
3.11
2.54
1.56
0.20
-1.35
-2.81
-3.96
-4.69
-5.07
-5.28
-5.53
-6.00
-6.86
-8.19
-9.99
-12.10
-14.18
-15.75
-16.28
-15.45
-13.22
-9.92
-6.13
-2.46
0.56
2.71
3.97
4.57
4.74
4.71
4.59
4.49
4.46
4.50
4.60
4.70
4.78
4.78
4.70
4.61
4.55
4.62
4.84
5.16
5.40
5.34
4.79
3.71
2.23
0.69
-0.54
-1.22
-1.32
-1.09
-0.95
-1.25
-2.15
-3.49
-4.95
-6.14
-6.91
-7.33
-7.69
-8.30
-9.32
-10.75
-12.52
-14.59
-16.89
-19.25
-21.25
-22.26
-21.65
-19.14
-15.09
-10.41
-6.17
-3.14
-1.42
-0.50
0.36
1.69
3.43
5.08
6.09
6.20
5.68
5.16
5.24
6.19
7.65
8.97
9.54
9.17
8.20
7.30
6.99
7.42
8.11
8.33
7.51
5.63
3.26
1.31
0.49
1.02
2.38
3.69
4.11
3.33
1.61
-0.34
-1.84
-2.58
-2.71
-2.71
-3.01
-3.82
-5.02
-6.35
-7.61
-8.75
-9.93
-11.24
-12.62
-13.81
-14.43
-14.10
-12.68
-10.26
-7.17
-3.90
-0.90
1.51
3.25
4.42
5.24
5.94
6.58
7.12
7.47
7.57
7.51
7.45
7.61
8.07
8.80
9.67
10.51
11.18
11.61
11.79
11.75
11.52
11.15
10.65
9.96
9.00
7.71
6.11
4.35
2.68
1.35
0.46
-0.08
-0.54
-1.21
-2.24
-3.57
-4.95
-6.11
-6.94
-7.55
-8.25
-9.35
-11.02
-13.22
-15.67
-17.98
-19.80
-20.80
-20.82
-19.81
-17.85
-15.15
-11.97
-8.61
-5.34
-2.37
0.22
2.36
4.06
5.33
6.21
6.79
7.17
7.47
7.79
8.15
8.54
8.94
9.31
9.68
10.08
10.49
10.84
10.97
10.76
10.16
9.29
8.33
7.48
6.82
6.36
6.00
5.65
5.25
4.78
4.24
3.59
2.72
1.60
0.25
-1.22
-2.63
-3.81
-4.72
-5.47
-6.32
-7.59
-9.47
-11.99
-14.85
-17.57
-19.56
-20.34
-19.72
-17.78
-14.91
-11.55
-8.15
-4.99
-2.21
0.14
2.08
3.58
4.65
5.29
5.62
5.76
5.87
6.04
6.28
6.58
6.91
7.28
7.74
8.28
8.82
9.19
9.26
8.99
8.48
7.93
7.52
7.31
7.18
6.90
6.37
5.61
4.79
4.11
3.67
3.36
2.93
2.13
0.84
-0.84
-2.70
-4.47
-6.00
-7.29
-8.52
-9.86
-11.53
-13.55
-15.88
-18.33
-20.64
-22.49
-23.63
-23.86
-23.06
-21.27
-18.62
-15.40
-11.96
-8.60
-5.63
-3.15
-1.23
0.22
1.24
1.89
2.23
2.40
2.58
2.98
3.77
4.93
6.25
7.41
8.13
8.35
8.16
7.82
7.56
7.44
7.38
7.20
6.76
6.07
5.22
4.36
3.59
2.90
2.31
1.77
1.29
0.84
0.40
-0.11
-0.72
-1.44
-2.24
-3.04
-3.82
-4.60
-5.41
-6.32
-7.40
-8.74
-10.40
-12.41
-14.63
-16.71
-18.12
-18.35
-17.11
-14.48
-10.94
-7.12
-3.66
-0.83
1.40
3.28
5.04
6.71
8.12
9.01
9.28
9.05
8.67
8.48
8.65
9.12
9.67
10.07
10.22
10.21
10.18
10.23
10.29
10.21
9.81
9.02
7.95
6.86
6.03
5.64
5.68
5.93
6.12
6.02
5.57
4.86
4.06
3.28
2.48
1.53
0.33
-1.19
-2.94
-4.78
-6.61
-8.44
-10.32
-12.24
-14.02
-15.27
-15.58
-14.64
-12.42
-9.20
-5.43
-1.66
1.74
4.48
6.47
7.77
8.51
8.87
9.01
9.00
8.88
8.64
8.28
7.96
7.87
8.21
9.03
10.12
11.16
11.80
11.86
11.40
10.61
9.72
8.81
7.90
6.86
5.61
4.16
2.68
1.35
0.32
-0.38
-0.87
-1.30
-1.84
-2.55
-3.41
-4.40
-5.53
-6.88
-8.57
-10.67
-13.07
-15.50
-17.50
-18.57
-18.31
-16.63
-13.73
-10.08
-6.29
-2.85
-0.11
1.85
3.05
3.58
3.55
3.07
2.33
1.59
1.13
1.19
1.81
2.88
4.07
5.05
5.52
5.39
4.81
4.03
3.34
2.86
2.55
2.15
1.42
0.22
-1.39
-3.16
-4.81
-6.17
-7.19
-7.96
-8.63
-9.35
-10.23
-11.38
-12.88
-14.78
-17.00
-19.43
-21.76
-23.69
-24.84
-24.89
-23.66
-21.16
-17.60
-13.38
-8.97
-4.77
-1.05
2.15
4.86
7.16
9.02
10.40
11.22
11.55
11.56
11.51
11.62
11.96
12.43
12.82
12.96
12.81
12.45
12.01
11.53
10.95
10.14
9.01
7.64
6.21
4.85
3.54
2.10
0.36
-1.67
-3.77
-5.60
-6.91
-7.87
-8.89
-10.52
-13.08
-16.42
-19.93
-22.77
-24.21
-23.91
-22.00
-18.90
-15.16
-11.22
-7.37
-3.72
-0.26
2.96
5.93
8.58
10.84
12.68
14.11
15.23
16.14
16.82
17.20
17.26
16.98
16.57
16.29
16.40
16.96
17.61
17.85
17.16
15.45
13.08
10.74
9.08
8.32
8.11
7.77
6.72
4.78
2.32
-0.01
-1.71
-2.69
-3.43
-4.65
-6.95
-10.49
-14.92
-19.57
-23.64
-26.47
-27.68
-27.18
-25.08
-21.72
-17.50
-12.90
-8.32
-4.02
-0.12
3.40
6.64
9.68
12.54
15.10
17.23
18.79
19.76
20.23
20.38
20.43
20.55
20.80
21.16
21.57
22.00
22.38
22.65
22.64
22.19
21.18
19.66
17.86
16.08
14.51
13.13
11.74
10.09
8.04
5.64
3.10
0.65
-1.61
-3.78
-6.04
-8.60
-11.58
-15.01
-18.82
-22.85
-26.78
-30.15
-32.46
-33.22
-32.23
-29.56
-25.53
-20.63
-15.31
-9.98
-4.97
-0.53
3.22
6.31
8.91
11.32
13.72
16.10
18.24
19.84
20.75
21.03
20.97
20.93
21.10
21.43
21.74
21.77
21.40
20.69
19.77
18.80
17.80
16.74
15.52
14.12
12.61
11.15
9.91
8.94
8.15
7.33
6.24
4.75
2.87
0.81
-1.18
-2.93
-4.42
-5.76
-7.23
-9.07
-11.49
-14.51
-17.93
-21.25
-23.79
-24.92
-24.23
-21.70
-17.73
-12.95
-7.95
-3.12
1.43
5.73
9.78
13.51
16.74
19.35
21.33
22.76
23.72
24.26
24.42
24.26
23.92
23.59
23.38
23.26
23.06
22.57
21.67
20.44
19.04
17.64
16.30
14.92
13.36
11.55
9.59
7.65
5.98
4.64
3.58
2.53
1.25
-0.43
-2.44
-4.53
-6.38
-7.75
-8.64
-9.30
-10.14
-11.51
-13.59
-16.29
-19.28
-22.20
-24.66
-26.38
-27.15
-26.79
-25.19
-22.33
-18.37
-13.60
-8.49
-3.55
0.79
4.26
6.86
8.76
10.22
11.45
12.56
13.48
14.12
14.42
14.42
14.26
14.12
14.15
14.39
14.78
15.17
15.39
15.32
14.90
14.17
13.19
12.07
10.85
9.57
8.21
6.80
5.41
4.12
3.05
2.25
1.64
1.05
0.31
-0.71
-1.97
-3.34
-4.62
-5.65
-6.41
-7.07
-7.84
-8.95
-10.51
-12.48
-14.70
-16.90
-18.78
-19.99
-20.26
-19.46
-17.59
-14.88
-11.70
-8.39
-5.27
-2.53
-0.20
1.76
3.43
4.83
5.97
6.84
7.48
7.91
8.24
8.50
8.70
8.87
8.97
9.04
9.09
9.19
9.38
9.68
10.01
10.25
10.25
9.93
9.28
8.36
7.27
6.10
4.97
3.96
3.12
2.51
2.10
1.78
1.34
0.61
-0.55
-2.08
-3.81
-5.42
-6.64
-7.31
-7.47
-7.35
-7.25
-7.50
-8.28
-9.62
-11.35
-13.19
-14.79
-15.85
-16.08
-15.34
-13.58
-10.94
-7.69
-4.26
-1.12
1.35
2.91
3.61
3.66
3.44
3.23
3.19
3.31
3.40
3.34
3.08
2.73
2.50
2.60
3.02
3.60
4.03
4.09
3.72
3.06
2.37
1.88
1.65
1.57
1.48
1.22
0.83
0.40
0.10
0.03
0.13
0.21
0.04
-0.57
-1.70
-3.20
-4.78
-6.13
-7.03
-7.47
-7.60
-7.70
-8.02
-8.71
-9.75
-11.01
-12.29
-13.42
-14.24
-14.65
-14.58
-13.93
-12.64
-10.71
-8.25
-5.56
-3.00
-0.95
0.38
0.98
1.09
1.00
0.91
0.86
0.73
0.37
-0.24
-0.92
-1.38
-1.36
-0.80
0.16
1.19
1.94
2.20
1.98
1.48
0.96
0.58
0.38
0.21
-0.08
-0.56
-1.16
-1.71
-2.10
-2.27
-2.36
-2.52
-2.83
-3.26
-3.63
-3.76
-3.62
-3.33
-3.17
-3.39
-4.10
-5.23
-6.54
-7.78
-8.74
-9.36
-9.75
-10.12
-10.67
-11.44
-12.24
-12.68
-12.33
-10.97
-8.67
-5.87
-3.12
-0.88
0.64
1.58
2.13
2.47
2.57
2.28
1.53
0.38
-0.86
-1.86
-2.42
-2.52
-2.38
-2.29
-2.43
-2.79
-3.17
-3.31
-3.01
-2.24
-1.23
-0.29
0.30
0.49
0.40
0.20
0.06
-0.04
-0.17
-0.44
-0.79
-1.13
-1.35
-1.51
-1.81
-2.42
-3.38
-4.45
-5.24
-5.44
-5.05
-4.44
-4.22
-4.83
-6.31
-8.22
-9.80
-10.35
-9.51
-7.57
-5.20
-3.15
-1.86
-1.24
-0.82
-0.07
1.25
2.78
3.92
4.10
3.26
1.81
0.50
-0.09
0.26
1.23
2.31
3.09
3.42
3.41
3.31
3.31
3.46
3.69
3.84
3.71
3.19
2.23
0.96
-0.38
-1.46
-2.10
-2.28
-2.25
-2.40
-3.01
-4.19
-5.74
-7.28
-8.44
-9.04
-9.18
-9.13
-9.29
-9.91
-11.00
-12.39
-13.73
-14.73
-15.14
-14.84
-13.75
-11.92
-9.44
-6.56
-3.60
-0.90
1.30
2.90
3.95
4.53
4.72
4.59
4.24
3.81
3.46
3.33
3.44
3.65
3.77
3.65
3.27
2.72
2.11
1.56
1.10
0.72
0.38
0.06
-0.29
-0.69
-1.15
-1.68
-2.24
-2.83
-3.44
-4.14
-4.95
-5.83
-6.66
-7.25
-7.48
-7.32
-6.93
-6.54
-6.38
-6.63
-7.37
-8.56
-10.11
-11.88
-13.65
-15.15
-16.07
-16.12
-15.14
-13.17
-10.51
-7.68
-5.21
-3.45
-2.46
-1.94
-1.42
-0.52
0.90
2.63
4.28
5.42
5.91
5.83
5.47
5.15
5.08
5.32
5.79
6.39
6.99
7.52
7.94
8.21
8.28
8.05
7.47
6.55
5.42
4.26
3.29
2.60
2.15
1.80
1.37
0.73
-0.12
-1.14
-2.29
-3.57
-4.95
-6.43
-7.84
-9.00
-9.83
-10.40
-10.94
-11.73
-12.98
-14.68
-16.69
-18.67
-20.32
-21.38
-21.71
-21.28
-20.21
-18.64
-16.72
-14.59
-12.30
-9.94
-7.65
-5.67
-4.22
-3.48
-3.38
-3.68
-4.10
-4.39
-4.48
-4.39
-4.12
-3.61
-2.73
-1.38
0.30
1.96
3.17
3.61
3.18
2.06
0.55
-1.05
-2.57
-3.98
-5.27
-6.28
-6.72
-6.22
-4.55
-1.79
1.61
4.98
7.67
9.26
9.68
9.13
7.91
6.34
4.59
2.73
0.84
-0.98
-2.56
-3.69
-4.11
-3.61
-2.12
0.17
2.82
5.32
7.23
8.38
8.87
9.02
9.09
9.16
9.12
8.82
8.19
7.38
6.66
6.27
6.36
6.91
7.73
8.60
9.31
9.70
9.72
9.39
8.80
8.06
7.33
6.68
6.17
5.76
5.37
4.91
4.34
3.61
2.73
1.67
0.36
-1.27
-3.29
-5.65
-8.25
-10.91
-13.54
-16.15
-18.86
-21.83
-25.04
-28.32
-31.25
-33.41
-34.46
-34.30
-33.03
-30.90
-28.15
-24.93
-21.40
-17.67
-13.89
-10.20
-6.73
-3.56
-0.72
1.74
3.83
5.53
6.86
7.87
8.67
9.36
10.03
10.74
11.44
12.08
12.55
12.74
12.60
12.10
11.33
10.37
9.31
8.21
7.09
5.93
4.72
3.51
2.38
1.47
0.89
0.63
0.55
0.42
0.01
-0.84
-2.10
-3.69
-5.48
-7.48
-9.80
-12.59
-15.85
-19.28
-22.32
-24.20
-24.34
-22.54
-19.10
-14.70
-10.10
-5.90
-2.33
0.67
3.34
5.85
8.24
10.38
12.13
13.46
14.46
15.34
16.26
17.27
18.22
18.91
19.20
19.07
18.70
18.33
18.15
18.19
18.28
18.15
17.58
16.51
15.08
13.53
12.11
10.92
9.88
8.79
7.41
5.60
3.38
0.97
-1.32
-3.27
-4.84
-6.26
-7.88
-10.09
-13.08
-16.83
-21.09
-25.44
-29.43
-32.57
-34.42
-34.63
-33.02
-29.67
-24.89
-19.20
-13.15
-7.23
-1.76
3.16
7.51
11.36
14.72
17.61
20.00
21.92
23.43
24.66
25.76
26.86
28.03
29.24
30.38
31.31
31.93
32.18
32.11
31.79
31.30
30.64
29.68
28.27
26.30
23.78
20.92
18.02
15.36
13.05
11.01
9.00
6.81
4.37
1.82
-0.62
-2.73
-4.43
-5.86
-7.25
-8.90
-10.97
-13.56
-16.58
-19.80
-22.85
-25.20
-26.33
-25.80
-23.47
-19.52
-14.42
-8.85
-3.49
1.17
4.84
7.50
9.41
10.94
12.52
14.39
16.60
18.92
21.03
22.73
24.03
25.09
25.99
26.62
26.73
26.12
24.91
23.50
22.45
22.00
21.91
21.54
20.20
17.69
14.42
11.28
9.16
8.47
8.90
9.67
9.98
9.43
8.16
6.64
5.31
4.28
3.16
1.47
-1.04
-4.10
-7.02
-8.99
-9.63
-9.10
-8.21
-7.80
-8.26
-9.27
-9.85
-8.86
-5.63
-0.25
6.38
13.00
18.51
22.43
24.90
26.52
27.81
29.06
30.14
30.75
30.69
30.05
29.20
28.56
28.36
28.58
28.84
28.73
27.98
26.58
24.73
22.72
20.75
18.90
17.10
15.26
13.34
11.32
9.29
7.32
5.50
3.88
2.47
1.24
0.07
-1.15
-2.58
-4.25
-6.07
-7.88
-9.57
-11.16
-12.88
-15.11
-18.17
-22.16
-26.79
-31.42
-35.23
-37.47
-37.68
-35.82
-32.28
-27.67
-22.71
-17.92
-13.64
-9.88
-6.53
-3.44
-0.53
2.12
4.39
6.18
7.52
8.57
9.60
10.85
12.36
14.06
15.69
17.00
17.88
18.36
18.57
18.67
18.71
18.61
18.25
17.51
16.41
15.07
13.71
12.47
11.39
10.39
9.28
7.94
6.26
4.29
2.12
-0.07
-2.14
-3.99
-5.61
-7.08
-8.59
-10.35
-12.52
-15.17
-18.18
-21.25
-23.88
-25.54
-25.78
-24.38
-21.47
-17.51
-13.14
-9.01
-5.58
-3.02
-1.26
-0.08
0.78
1.49
2.06
2.47
2.68
2.75
2.83
3.09
3.62
4.36
5.13
5.68
5.91
5.86
5.70
5.68
5.93
6.42
6.91
7.19
7.05
6.51
5.70
4.79
3.94
3.15
2.31
1.27
-0.05
-1.60
-3.24
-4.81
-6.23
-7.55
-8.85
-10.22
-11.71
-13.36
-15.19
-17.23
-19.37
-21.29
-22.45
-22.26
-20.35
-16.81
-12.26
-7.60
-3.63
-0.75
1.15
2.51
3.82
5.30
6.81
7.99
8.53
8.31
7.59
6.77
6.24
6.16
6.40
6.65
6.65
6.35
5.91
5.61
5.58
5.73
5.71
5.14
3.84
1.89
-0.29
-2.25
-3.63
-4.30
-4.43
-4.29
-4.22
-4.46
-5.09
-6.05
-7.15
-8.16
-8.93
-9.41
-9.76
-10.27
-11.28
-13.08
-15.70
-18.86
-21.99
-24.42
-25.55
-25.15
-23.35
-20.63
-17.52
-14.37
-11.27
-8.14
-4.90
-1.69
1.16
3.28
4.51
5.00
5.15
5.39
6.01
7.01
8.22
9.36
10.24
10.72
10.73
10.25
9.32
8.09
6.89
6.13
6.24
7.48
9.82
12.81
15.71
17.66
17.91
16.10
12.28
6.89
0.50
-6.44
-13.60
-20.79
-27.76
-34.12
-39.35
-42.99
-44.74
-44.56
-42.59
-39.00
-33.88
-27.40
-19.86
-11.82
-4.13
2.40
7.18
10.07
11.40
11.74
11.69
11.70
11.93
12.35
12.80
13.16
13.35
13.37
13.28
13.17
13.15
13.32
13.73
14.31
15.01
15.71
16.28
16.65
16.73
16.43
15.69
14.49
12.89
11.06
9.25
7.77
6.83
6.49
6.61
6.94
7.29
7.59
8.01
8.85
10.39
12.81
16.13
20.30
25.12
30.25
35.02
38.49
39.54
37.26
31.35
22.35
11.55
0.61
-9.03
-16.47
-21.50
-24.44
-25.86
-26.29
-26.11
-25.55
-24.73
-23.74
-22.66
-21.55
-20.46
-19.46
-18.62
-17.96
-17.51
-17.16
-16.81
-16.36
-15.81
-15.29
-14.92
-14.78
-14.82
-14.86
-14.76
-14.47
-14.12
-13.91
-14.06
-14.67
-15.70
-17.04
-18.53
-20.03
-21.38
-22.33
-22.58
-21.82
-19.91
-16.86
-12.96
-8.69
-4.55
-1.02
1.59
3.25
4.17
4.65
5.06
5.60
6.27
6.92
7.38
7.55
7.51
7.46
7.54
7.80
8.05
8.08
7.68
6.83
5.72
4.63
3.81
3.29
2.95
2.54
1.87
0.93
-0.14
-1.06
-1.66
-1.96
-2.16
-2.54
-3.30
-4.43
-5.74
-6.96
-7.96
-8.76
-9.45
-10.12
-10.64
-10.71
-9.94
-8.09
-5.23
-1.75
1.72
4.63
6.64
7.77
8.33
8.71
9.21
9.86
10.46
10.73
10.51
9.85
9.01
8.23
7.61
7.10
6.50
5.80
5.16
4.87
5.16
5.89
6.67
6.94
6.35
4.97
3.27
1.80
0.96
0.67
0.53
0.07
-0.96
-2.43
-3.92
-5.01
-5.47
-5.56
-5.74
-6.51
-8.09
-10.30
-12.58
-14.29
-14.86
-14.24
-12.68
-10.63
-8.50
-6.41
-4.22
-1.76
1.03
3.83
6.12
7.46
7.79
7.43
6.97
6.90
7.38
8.12
8.61
8.48
7.64
6.39
5.19
4.40
4.17
4.35
4.61
4.71
4.53
4.13
3.60
3.02
2.43
1.79
1.13
0.52
0.04
-0.28
-0.50
-0.76
-1.19
-1.85
-2.71
-3.68
-4.68
-5.77
-7.03
-8.52
-10.25
-12.07
-13.81
-15.26
-16.25
-16.62
-16.29
-15.17
-13.29
-10.75
-7.75
-4.56
-1.45
1.33
3.62
5.30
6.37
6.89
6.99
6.89
6.78
6.82
7.01
7.30
7.57
7.80
8.04
8.41
8.99
9.68
10.22
10.28
9.65
8.38
6.77
5.25
4.14
3.51
3.19
2.93
2.56
2.11
1.71
1.42
1.20
0.85
0.20
-0.81
-2.02
-3.14
-3.94
-4.34
-4.51
-4.73
-5.33
-6.45
-8.03
-9.80
-11.32
-12.14
-11.95
-10.70
-8.57
-5.95
-3.22
-0.59
1.94
4.47
7.02
9.45
11.40
12.53
12.69
12.04
11.01
10.09
9.65
9.73
10.15
10.61
10.87
10.83
10.53
10.07
9.57
9.10
8.65
8.25
7.86
7.46
6.97
6.31
5.43
4.35
3.16
2.00
0.98
0.12
-0.61
-1.27
-1.91
-2.52
-3.15
-3.83
-4.64
-5.64
-6.83
-8.10
-9.30
-10.35
-11.23
-12.03
-12.82
-13.61
-14.20
-14.34
-13.76
-12.36
-10.25
-7.72
-5.14
-2.87
-1.15
-0.05
0.50
0.66
0.63
0.59
0.66
0.81
0.99
1.11
1.11
1.04
1.00
1.05
1.21
1.34
1.31
0.99
0.40
-0.36
-1.14
-1.90
-2.67
-3.60
-4.79
-6.22
-7.74
-9.09
-10.09
-10.74
-11.25
-11.98
-13.24
-15.21
-17.73
-20.47
-23.04
-25.17
-26.84
-28.31
-29.94
-32.06
-34.82
-38.13
-41.74
-45.26
-48.28
-50.46
-51.57
-51.45
-50.05
-47.33
-43.25
-37.78
-30.84
-22.47
-12.84
-2.34
8.48
19.03
28.77
37.34
44.56
50.37
54.77
57.73
59.22
59.23
57.88
55.43
52.29
48.91
45.66
42.70
39.99
37.38
34.75
32.04
29.36
26.88
24.66
22.67
20.73
18.68
16.47
14.17
12.01
10.11
8.56
7.31
6.23
5.22
4.21
3.17
2.06
0.87
-0.46
-1.96
-3.56
-5.12
