1553184617.00
64.000000
-0.00
-0.00
-0.00
-0.00
-0.00
-0.00
-0.00
-0.00
-0.00
-0.00
0.00
0.01
0.01
-0.00
-0.03
-0.05
-0.05
0.00
0.13
0.36
0.66
1.01
1.37
1.72
2.06
2.40
2.79
3.24
3.80
4.42
5.06
5.66
6.20
6.68
7.15
7.68
8.31
9.14
10.09
11.04
11.88
12.56
13.14
13.76
14.65
15.96
17.91
20.32
22.90
25.38
27.58
29.57
31.68
34.32
37.81
42.54
48.15
54.10
59.83
64.97
69.58
74.14
79.34
85.71
93.76
103.00
112.62
121.73
129.77
136.75
143.30
150.75
157.77
166.64
177.95
191.79
206.97
220.57
228.25
225.36
208.53
176.87
132.76
80.05
23.07
-34.94
-92.44
-149.16
-205.23
-260.37
-313.74
-363.87
-409.83
-450.91
-486.50
-515.74
-537.23
-549.22
-549.96
-538.37
-514.21
-478.67
-433.88
-382.45
-327.02
-269.84
-212.63
-156.66
-102.95
-52.37
-5.90
35.58
71.43
101.35
125.50
144.38
158.69
169.15
176.37
180.75
182.57
182.07
179.51
175.23
169.65
163.18
156.15
148.81
141.30
133.69
126.02
118.33
110.69
103.16
95.80
88.68
81.83
75.25
68.95
62.95
57.25
51.86
46.78
42.03
37.59
33.45
29.61
26.07
22.81
19.83
17.11
14.67
12.48
10.54
8.83
7.35
6.07
4.97
4.05
3.27
2.62
2.09
1.65
1.30
1.01
0.79
0.61
0.47
0.37
0.28
0.22
0.18
0.15
0.13
0.12
0.12
0.13
0.15
0.17
0.20
0.23
0.27
0.31
0.35
0.40
0.44
0.49
0.54
0.59
0.64
0.69
0.75
0.82
0.88
0.96
1.04
1.13
1.23
1.35
1.48
1.62
1.78
1.97
2.17
2.39
2.64
2.92
3.22
3.56
3.92
4.32
4.76
5.23
5.74
6.28
6.87
7.49
8.17
8.88
9.64
10.44
11.29
12.18
13.12
14.11
15.16
16.27
17.44
18.68
19.95
21.21
22.42
23.49
24.33
24.80
24.79
24.18
22.88
20.84
18.04
14.58
10.50
6.00
1.27
-3.45
-7.92
-11.95
-15.33
-17.94
-19.71
-20.62
-20.72
-20.12
-18.93
-17.32
-15.42
-13.32
-11.17
-9.05
-7.01
-5.03
-3.14
-1.31
0.48
2.31
4.16
6.04
7.94
9.82
11.74
13.58
15.33
17.07
18.88
20.83
22.95
25.27
27.79
30.60
33.49
36.46
39.53
42.81
46.32
49.98
53.66
57.30
60.91
64.19
67.23
70.30
73.68
77.51
81.67
85.85
89.67
93.00
95.28
96.47
96.83
96.56
95.49
92.82
86.93
75.44
60.63
43.07
23.59
3.21
-16.99
-36.35
-54.72
-72.48
-90.41
-109.50
-131.36
-156.85
-185.53
-215.26
-242.28
-262.05
-270.69
-266.35
-249.87
-225.02
-196.59
-168.77
-144.28
-123.99
-107.47
-93.70
-81.70
-70.69
-60.42
-50.68
-41.40
-32.80
-25.25
-19.07
-14.21
-10.28
-6.61
-2.71
1.62
6.33
11.24
16.20
21.19
26.12
30.70
34.34
36.34
36.30
34.45
31.73
29.40
28.48
29.34
31.46
33.84
35.42
35.60
34.53
32.94
31.66
31.13
31.17
31.10
30.17
27.96
24.74
21.29
18.53
16.97
16.54
16.58
16.33
15.37
13.89
12.55
12.11
12.90
14.64
16.60
18.06
18.72
18.95
19.46
20.73
22.67
24.43
24.94
23.51
20.29
16.45
13.39
12.21
13.04
14.93
16.56
16.91
15.83
13.98
12.03
10.36
8.63
6.18
2.64
-1.73
-6.18
-9.99
-13.11
-16.01
-19.21
-22.59
-25.09
-25.24
-22.00
-15.42
-7.02
1.08
6.94
9.58
9.18
6.80
3.71
1.01
-1.20
-3.22
-5.51
-8.27
-10.94
-12.49
-11.94
-8.86
-4.24
0.22
2.69
2.25
-0.50
-3.83
-5.85
-5.52
-3.59
-1.80
-1.97
-4.79
-9.33
-13.61
-15.73
-14.82
-11.90
-8.72
-6.77
-6.12
-5.25
-1.94
5.14
15.63
26.88
35.38
38.44
35.36
27.74
18.57
10.61
5.22
1.77
-1.41
-5.74
-11.43
-17.26
-21.38
-22.42
-20.19
-15.96
-11.66
-8.88
-8.23
-9.17
-10.59
-11.51
-11.40
-10.61
-9.82
-9.66
-10.36
-11.64
-12.76
-12.86
-11.06
-7.09
-1.32
5.26
11.28
15.47
17.14
16.26
13.56
9.98
6.26
2.68
-0.88
-4.66
-8.57
-12.09
-14.36
-14.70
-12.91
-9.55
-5.70
-2.50
-0.67
-0.27
-0.78
-1.58
-2.25
-2.93
-4.18
-6.61
-10.55
-15.72
-21.13
-25.54
-27.78
-27.28
-24.12
-19.02
-12.91
-6.67
-0.85
4.21
8.21
10.73
11.24
9.37
5.10
-0.97
-7.57
-13.16
-16.33
-16.25
-12.97
-7.19
0.05
7.78
15.56
23.28
30.84
37.98
43.99
48.00
49.27
47.53
43.17
36.89
29.47
21.45
13.07
4.54
-3.68
-10.75
-15.48
-16.77
-14.14
-7.91
0.66
9.89
18.16
24.38
28.19
29.77
29.52
27.71
24.34
19.44
13.30
6.64
0.61
-3.67
-5.52
-5.00
-2.96
-0.54
1.28
2.10
2.22
2.21
2.60
3.32
3.78
3.13
0.76
-3.36
-8.46
-13.31
-16.73
-18.06
-17.44
-15.52
-13.19
-11.03
-9.08
-7.04
-4.55
-1.60
1.33
3.45
4.10
3.14
1.21
-0.63
-1.38
-0.54
1.54
3.94
5.63
5.94
4.92
3.10
1.18
-0.41
-1.73
-3.10
-4.80
-6.76
-8.45
-9.28
-8.94
-7.68
-6.36
-5.83
-6.54
-8.12
-9.43
-9.16
-6.46
-1.44
4.86
10.85
15.17
17.12
16.87
15.17
12.75
10.02
7.01
3.56
-0.30
-4.11
-7.05
-8.34
-7.62
-5.27
-2.34
-0.12
0.43
-0.90
-3.44
-6.04
-7.67
-7.86
-6.92
-5.64
-4.82
-4.76
-5.15
-5.32
-4.67
-3.01
-0.64
1.92
4.37
6.78
9.52
12.93
16.92
20.88
23.79
24.69
23.13
19.37
14.35
9.23
4.99
2.08
0.45
-0.31
-0.58
-0.55
-0.10
1.01
2.78
4.86
6.67
7.60
7.37
6.12
4.32
2.41
0.56
-1.37
-3.68
-6.60
-10.02
-13.47
-16.23
-17.61
-17.25
-15.32
-12.49
-9.69
-7.66
-6.67
-6.45
-6.38
-5.95
-5.15
-4.42
-4.27
-4.93
-6.00
-6.83
-6.67
-5.14
-2.30
1.61
6.34
11.64
17.22
22.50
26.62
28.72
28.39
25.80
21.71
17.03
12.41
7.99
3.51
-1.33
-6.49
-11.51
-15.63
-18.28
-19.20
-18.97
-18.52
-18.71
-19.90
-21.88
-23.86
-25.15
-25.43
-25.05
-24.75
-25.08
-26.07
-27.24
-27.78
-27.23
-25.60
-23.54
-21.83
-20.98
-20.84
-20.76
-19.76
-17.04
-12.14
-5.21
3.08
11.70
19.46
25.27
28.45
28.92
27.38
25.01
23.07
22.43
23.30
25.12
27.08
28.50
29.19
29.44
29.66
30.01
30.22
29.79
28.38
26.06
23.44
21.37
20.40
20.48
20.90
20.61
18.70
14.91
9.74
4.36
-0.01
-2.65
-3.58
-3.60
-3.82
-5.08
-7.63
-11.01
-14.38
-17.01
-18.50
-19.00
-18.94
-18.63
-18.12
-17.20
-15.69
-13.72
-11.88
-11.04
-11.94
-14.66
-18.54
-22.30
-24.60
-24.60
-22.21
-18.07
-13.06
-7.97
-3.12
1.55
6.33
11.36
16.51
21.40
25.53
28.53
30.23
30.67
29.93
27.96
24.63
19.92
14.20
8.33
3.51
0.83
0.67
2.41
4.62
5.65
4.29
0.35
-5.35
-11.36
-16.28
-19.31
-20.31
-19.73
-18.18
-16.10
-13.70
-11.05
-8.30
-5.85
-4.28
-4.06
-5.26
-7.40
-9.55
-10.79
-10.67
-9.46
-7.99
-7.30
-8.00
-9.94
-12.19
-13.42
-12.54
-9.15
-3.73
2.58
8.61
13.58
17.51
20.76
23.77
26.47
28.25
28.33
26.37
22.82
18.79
15.24
12.64
10.62
8.44
5.70
2.79
0.58
-0.05
0.79
2.08
2.30
0.48
-3.25
-7.62
-11.12
-12.87
-13.34
-13.83
-15.49
-18.36
-21.11
-21.67
-18.49
-11.38
-2.26
6.03
11.01
11.73
9.19
5.61
3.06
2.53
3.10
3.04
0.95
-3.27
-8.12
-11.36
-11.35
-7.87
-2.79
1.26
2.18
-0.32
-4.60
-8.01
-8.38
-5.28
-0.54
2.97
2.81
-1.64
-8.85
-15.99
-20.39
-20.72
-17.59
-12.83
-8.40
-5.44
-3.95
-3.14
-2.27
-1.03
0.09
0.36
-0.68
-2.81
-5.09
-6.30
-5.51
-2.33
2.74
8.69
14.35
18.79
21.59
22.84
22.99
22.70
22.34
21.88
20.80
18.26
13.49
6.21
-3.13
-13.30
-22.68
-29.79
-33.73
-34.43
-32.49
-28.83
-24.35
-19.53
-14.61
-9.66
-4.91
-0.73
2.44
4.40
5.39
6.07
7.21
9.23
11.98
14.71
16.55
16.86
15.57
13.21
10.54
8.19
6.36
4.83
3.14
0.89
-2.09
-5.70
-9.72
-13.95
-18.29
-22.61
-26.63
-29.79
-31.34
-30.44
-26.62
-20.04
-11.53
-2.42
5.99
12.76
17.62
20.86
23.05
24.63
25.65
25.87
24.97
22.90
19.97
16.88
14.29
12.53
11.50
10.65
9.39
7.29
4.37
0.99
-2.36
-5.36
-8.00
-10.53
-13.11
-15.60
-17.43
-17.73
-15.75
-11.32
-5.01
1.93
8.17
12.70
15.24
16.22
16.42
16.58
17.03
17.72
18.42
19.00
19.54
20.37
21.72
23.57
25.48
26.77
26.91
25.73
23.64
21.43
19.87
19.36
19.64
20.00
19.58
17.87
14.86
11.13
7.32
3.80
0.44
-3.37
-8.29
-14.52
-21.58
-28.23
-33.02
-34.83
-33.32
-29.15
-23.60
-18.00
-13.21
-9.30
-5.87
-2.40
1.23
4.64
7.14
8.16
7.66
6.17
4.45
2.99
1.67
-0.27
-3.74
-9.21
-16.29
-23.72
-29.91
-33.62
-34.51
-33.25
-31.07
-29.09
-27.83
-27.15
-26.54
-25.70
-24.88
-24.77
-26.04
-28.79
-32.28
-34.93
-35.14
-31.95
-25.53
-17.10
-8.32
-0.62
5.52
10.53
15.27
20.36
25.72
30.63
34.20
35.95
36.22
35.96
36.22
37.58
39.82
42.09
43.44
43.24
41.60
39.21
36.91
35.23
34.18
33.25
31.77
29.34
25.94
21.97
17.86
13.79
9.62
5.10
0.24
-4.46
-7.97
-9.23
-7.54
-3.13
2.86
8.72
12.94
14.55
13.57
10.56
6.51
2.23
-1.70
-4.97
-7.35
-8.79
-9.33
-9.25
-8.99
-9.05
-9.72
-10.99
-12.63
-14.29
-15.73
-16.85
-17.74
-18.49
-19.27
-20.23
-21.47
-23.03
-24.69
-26.35
-27.80
-29.09
-30.46
-32.19
-34.18
-35.91
-36.29
-34.43
-29.85
-23.00
-15.01
-7.29
-0.86
3.86
7.04
9.03
10.19
10.66
10.68
10.63
11.12
12.61
15.27
18.62
21.85
24.05
24.66
23.60
21.16
17.76
13.69
9.08
3.96
-1.51
-6.93
-11.85
-15.82
-18.61
-20.16
-20.68
-20.45
-19.85
-19.15
-18.54
-17.95
-16.99
-15.03
-11.49
-6.04
1.06
8.96
16.37
22.02
25.04
25.28
23.29
20.09
16.66
13.61
11.00
8.53
5.96
3.39
1.40
0.70
1.59
3.78
6.25
7.88
8.00
6.75
5.01
3.83
3.74
4.43
4.76
3.48
-0.24
-6.30
-13.70
-21.07
-27.12
-31.06
-32.71
-32.14
-29.54
-25.00
-18.64
-10.79
-2.17
6.19
13.19
18.06
20.61
21.32
21.06
20.73
20.86
21.53
22.39
23.04
23.30
23.38
23.71
24.66
26.19
27.75
28.48
27.56
24.61
19.87
14.10
8.15
2.55
-2.61
-7.69
-13.08
-18.94
-24.97
-30.48
-34.68
-37.00
-37.27
-35.69
-32.77
-28.97
-24.63
-19.92
-15.03
-10.26
-6.11
-3.22
-2.02
-2.56
-4.32
-6.42
-7.93
-8.35
-7.76
-6.72
-5.96
-5.92
-6.58
-7.57
-8.52
-9.40
-10.54
-12.30
-14.80
-17.57
-19.52
-19.68
-17.46
-13.09
-7.48
-1.67
3.70
8.67
13.73
19.19
24.87
30.07
33.89
35.79
35.87
34.75
33.18
31.58
29.79
27.26
23.47
18.29
12.23
6.24
1.39
-1.66
-2.81
-2.55
-1.78
-1.20
-1.12
-1.33
-1.23
-0.84
-0.67
-1.71
-4.77
-9.72
-15.22
-19.23
-19.86
-16.64
-10.62
-3.72
2.25
6.59
9.81
12.97
16.65
20.15
21.92
20.46
15.36
7.85
0.28
-5.00
-6.69
-5.50
-3.35
-2.22
-3.15
-5.52
-7.56
-7.54
-4.76
-0.44
3.18
4.02
1.35
-3.69
-8.87
-12.21
-13.04
-12.62
-13.18
-16.49
-22.74
-30.18
-36.00
-37.72
-34.23
-26.39
-16.38
-6.64
1.06
6.06
8.67
9.57
9.51
8.76
7.23
4.79
1.36
-2.84
-7.31
-11.39
-14.43
-16.21
-16.96
-17.27
-17.94
-19.44
-21.79
-24.51
-26.84
-28.25
-28.76
-28.93
-29.65
-31.62
-34.91
-38.85
-42.19
-43.58
-42.10
-37.62
-30.73
-22.51
-14.06
-6.15
0.97
7.42
13.38
18.82
23.44
26.85
28.85
29.67
29.95
30.48
31.83
34.04
36.61
38.81
39.93
39.72
38.54
36.99
35.69
34.80
33.98
32.62
30.11
26.29
21.54
16.55
12.01
8.27
5.32
3.01
1.23
0.18
0.26
1.81
4.68
8.22
11.28
12.76
11.92
8.76
4.02
-1.28
-6.23
-10.35
-13.72
-16.64
-19.38
-21.89
-23.77
-24.56
-23.97
-22.15
-19.72
-17.40
-15.74
-14.82
-14.22
-13.34
-11.84
-9.90
-8.24
-7.63
-8.41
-10.09
-11.41
-10.90
-7.62
-1.60
6.08
13.86
20.29
24.65
27.08
28.18
28.49
28.12
26.67
23.66
18.93
13.00
6.95
1.94
-1.38
-3.10
-4.04
-5.19
-7.13
-9.71
-12.09
-13.25
-12.60
-10.34
-7.38
-4.97
-4.06
-4.90
-6.91
-9.06
-10.28
-9.95
-8.05
-5.01
-1.46
2.09
5.42
8.42
11.03
13.05
14.16
14.15
13.13
11.58
10.37
10.31
11.89
14.91
18.64
22.00
24.13
24.67
23.93
22.59
21.26
20.10
18.74
16.48
12.77
7.59
1.57
-4.20
-8.62
-11.03
-11.40
-10.19
-8.09
-5.59
-2.87
0.09
3.28
6.45
9.03
10.36
10.06
8.29
5.72
3.28
1.76
1.47
2.04
2.80
2.98
2.11
0.26
-2.23
-4.93
-7.59
-10.19
-12.83
-15.56
-18.14
-20.10
-21.08
-20.98
-20.30
-19.85
-20.47
-22.51
-25.54
-28.42
-29.79
-28.61
-24.63
-18.45
-11.24
-4.21
1.84
6.67
10.42
13.27
15.28
16.21
15.91
14.51
12.58
11.02
10.66
11.80
13.97
16.06
16.83
15.51
12.13
7.56
2.98
-0.62
-2.97
-4.48
-5.80
-7.52
-9.70
-12.11
-14.40
-16.45
-18.40
-20.38
-22.17
-23.21
-22.68
-20.05
-15.44
-9.60
-3.64
1.44
5.22
7.78
9.58
10.98
12.07
12.71
12.75
12.24
11.55
11.16
11.38
12.06
12.61
12.36
10.76
7.82
4.17
0.65
-1.97
-3.50
-4.27
-4.86
-5.74
-7.01
-8.22
-8.81
-8.35
-6.72
-4.18
-1.00
2.71
6.96
11.90
17.30
22.64
27.09
29.83
30.40
28.87
25.61
21.23
16.30
11.42
7.13
3.88
2.00
1.44
1.70
2.10
2.04
1.34
0.17
-1.12
-2.33
-3.66
-5.60
-8.68
-13.07
-18.48
-24.25
-29.75
-34.64
-38.94
-42.97
-46.86
-50.35
-52.70
-52.96
-50.40
-44.98
-37.29
-28.48
-19.58
-11.24
-3.48
4.16
12.07
20.17
27.86
34.18
38.34
40.15
40.15
39.38
38.83
38.97
39.52
39.59
38.26
35.04
30.14
24.42
18.86
14.14
10.24
6.60
2.42
-2.87
-9.29
-16.23
-22.72
-27.88
-31.08
-32.12
-30.96
-27.60
-21.96
-14.00
-4.04
7.04
17.90
26.88
32.70
34.91
34.03
31.31
28.06
25.10
22.49
19.73
16.29
12.07
7.52
3.45
0.45
-1.32
-2.23
-2.81
-3.45
-4.09
-4.36
-3.88
-2.56
-0.79
0.76
1.31
0.38
-2.12
-5.82
-10.16
-14.59
-18.77
-22.50
-25.66
-27.97
-28.93
-27.93
-24.59
-19.05
-12.05
-4.86
1.24
5.38
7.48
8.28
8.77
9.81
11.60
13.61
15.02
15.26
14.32
12.81
11.25
9.89
8.50
6.70
4.50
2.57
1.87
3.10
5.85
8.77
10.24
9.28
6.22
2.45
-0.52
-1.82
-1.98
-2.30
-3.98
-7.30
-11.38
-14.66
-15.66
-13.59
-8.98
-3.04
2.77
7.26
9.96
11.10
11.30
11.25
10.90
9.87
7.63
4.10
0.12
-2.81
-3.26
-0.56
4.34
9.46
12.79
13.25
11.28
8.48
6.49
6.11
6.65
6.70
5.00
1.43
-2.92
-6.31
-7.52
-6.49
-4.80
-4.51
-7.05
-12.25
-18.29
-22.56
-22.99
-19.03
-12.01
-4.26
2.02
5.59
6.57
5.96
4.87
4.05
3.52
2.87
1.69
-0.05
-1.95
-3.37
-3.64
-2.34
0.25
3.39
6.11
7.54
7.27
5.50
2.92
0.42
-1.35
-2.17
-2.33
-2.50
-3.34
-5.25
-8.19
-11.73
-15.37
-18.68
-21.45
-23.66
-25.16
-25.64
-24.65
-21.71
-16.73
-10.15
-2.90
3.89
9.26
12.68
14.23
14.39
13.83
13.04
12.31
11.61
10.74
9.57
8.13
6.73
5.78
5.53
6.01
6.81
7.29
6.94
5.55
3.45
1.24
-0.51
-1.54
-2.10
-2.72
-3.92
-6.05
-9.05
-12.59
-16.22
-19.43
-21.82
-22.95
-22.52
-20.35
-16.48
-11.25
-5.31
0.55
5.51
8.99
10.69
10.72
9.51
7.73
5.95
4.58
3.64
2.96
2.25
1.34
0.40
-0.36
-0.76
-0.91
-1.25
-2.33
-4.49
-7.70
-11.48
-15.13
-18.12
-20.24
-21.79
-23.24
-25.17
-27.90
-31.42
-35.44
-39.48
-43.02
-45.50
-46.37
-45.07
-41.13
-34.31
-24.77
-13.20
-0.79
11.03
21.07
28.71
34.06
37.91
41.24
44.74
48.51
52.04
54.60
55.57
54.76
52.43
49.01
44.83
39.94
34.09
27.12
19.13
10.59
2.29
-5.02
-10.86
-15.25
-18.55
-21.20
-23.48
-25.32
-26.36
-26.22
-24.75
-22.12
-18.77
-15.09
-11.24
-7.09
-2.40
2.95
8.67
14.06
18.29
20.65
20.82
18.93
15.55
11.39
7.14
3.36
0.34
-1.80
-3.01
-3.33
-2.65
-0.93
1.73
4.98
8.14
10.37
11.02
9.82
7.16
3.69
0.10
-3.32
-6.76
-10.65
-15.26
-20.33
-25.03
-28.23
-28.98
-26.99
-22.72
-17.13
-11.18
-5.54
-0.28
4.72
9.47
13.56
16.23
16.72
14.83
11.15
6.92
3.55
1.92
1.98
2.84
3.24
2.27
-0.18
-3.37
-6.14
-7.57
-7.38
-6.03
-4.34
-2.97
-2.09
-1.47
-0.67
0.48
1.79
2.73
2.86
2.00
0.26
-2.07
-4.87
-8.13
-11.89
-15.90
-19.55
-21.89
-21.98
-19.21
-13.66
-6.15
2.03
9.40
14.83
17.79
18.48
17.58
15.97
14.35
12.94
11.62
10.22
8.80
7.84
7.80
8.92
10.96
13.25
15.09
16.10
16.33
16.09
15.58
14.77
13.40
11.33
8.73
6.07
3.90
2.42
1.18
-0.51
-3.34
-7.37
-12.01
-16.17
-18.76
-19.21
-17.69
-14.89
-11.65
-8.53
-5.73
-3.05
-0.34
2.33
4.45
5.44
4.91
3.03
0.55
-1.51
-2.29
-1.35
1.09
4.40
7.75
10.47
12.02
12.11
10.65
7.94
4.56
1.24
-1.39
-3.06
-4.09
-5.15
-6.88
-9.49
-12.70
-15.84
-18.22
-19.43
-19.49
-18.57
-16.82
-14.18
-10.51
-5.80
-0.41
4.81
8.81
10.69
10.16
7.63
4.21
1.15
-0.65
-0.95
-0.19
0.92
1.82
2.33
2.80
3.59
4.80
6.03
6.60
5.90
3.77
0.76
-2.12
-3.95
-4.31
-3.60
-2.81
-3.06
-5.00
-8.45
-12.40
-15.47
-16.61
-15.44
-12.41
-8.46
-4.50
-1.10
1.76
4.29
6.65
8.58
9.53
8.89
6.48
2.73
-1.27
-4.31
-5.51
-4.78
-2.79
-0.56
0.98
1.50
1.25
0.81
0.61
0.63
0.49
-0.30
-1.84
-3.82
-5.59
-6.60
-6.81
-6.84
-7.61
-9.78
-13.27
-17.09
-19.71
-19.68
-16.42
-10.44
-3.16
3.78
9.19
12.67
14.58
15.52
15.85
15.52
14.24
11.94
8.97
6.17
4.43
4.24
5.46
7.34
8.99
9.87
10.07
10.23
11.13
13.14
16.02
18.91
20.86
21.23
20.14
18.49
17.25
17.27
18.55
20.34
21.65
21.76
20.59
18.61
16.17
13.34
9.83
5.33
0.06
-5.08
-8.88
-10.46
-10.09
-8.97
-8.63
-10.04
-12.99
-16.12
-17.78
-16.92
-14.00
-10.51
-8.25
-8.41
-10.81
-14.21
-17.04
-18.12
-17.80
-17.26
-17.94
-20.65
-25.02
-29.77
-33.55
-35.71
-37.10
-39.12
-42.70
-47.31
-50.73
-50.02
-43.15
-30.36
-14.60
-0.12
9.46
12.82
11.44
8.45
6.76
7.68
10.28
12.48
12.62
10.53
7.64
6.00
6.98
10.65
15.52
19.61
21.40
20.44
17.36
13.26
9.09
5.41
2.12
-1.03
-4.25
-7.51
-10.62
-13.37
-15.63
-17.28
-18.39
-18.99
-19.04
-18.45
-17.01
-14.48
-10.64
-5.41
1.01
8.09
15.01
20.83
24.74
26.39
25.96
24.20
22.07
20.41
19.57
19.35
19.17
18.52
17.12
15.24
13.36
11.96
11.17
10.72
10.08
8.82
6.80
4.28
1.72
-0.55
-2.52
-4.56
-7.20
-10.83
-15.46
-20.55
-25.30
-28.85
-30.51
-29.99
-27.39
-23.11
-17.68
-11.66
-5.61
-0.04
4.67
8.20
10.42
11.36
11.27
10.65
10.07
10.08
10.90
12.41
14.18
15.64
16.37
16.28
15.55
14.42
13.08
11.42
9.29
6.57
3.41
0.27
-2.26
-3.77
-4.25
-4.18
-4.37
-5.58
-8.22
-12.08
-16.37
-20.04
-22.11
-22.04
-19.81
-15.85
-10.74
-5.03
0.81
6.35
11.18
14.81
16.91
17.42
16.56
14.95
13.27
12.02
11.33
10.98
10.57
9.69
8.24
6.35
4.35
2.46
0.65
-1.25
-3.60
-6.58
-10.07
-13.65
-16.78
-19.08
-20.54
-21.53
-22.67
-24.43
-26.84
-29.37
-31.08
-31.08
-28.85
-24.59
-19.01
-12.97
-7.10
-1.48
4.22
10.38
17.09
23.89
30.03
34.75
37.74
39.24
39.87
40.29
40.77
41.06
40.63
38.89
35.58
30.98
25.67
20.30
15.27
10.69
6.53
2.89
0.26
-0.58
1.10
5.49
12.04
19.52
26.45
31.65
34.64
35.68
35.39
34.31
32.58
29.97
26.14
20.98
14.77
8.26
2.23
-2.81
-6.68
-9.59
-11.89
-13.83
-15.56
-17.09
-18.49
-19.99
-21.85
-24.28
-27.34
-30.82
-34.38
-37.62
-40.35
-42.58
-44.62
-46.82
-49.40
-52.30
-55.15
-57.37
-58.51
-58.44
-57.54
-56.48
-55.91
-56.03
-56.34
-55.69
-52.86
-47.02
-38.18
-27.33
-15.97
-5.60
2.88
9.25
13.81
16.99
18.94
19.55
18.68
16.52
13.80
11.62
11.02
12.44
15.62
19.64
23.51
26.48
28.35
29.33
29.75
29.81
29.51
28.66
27.27
25.43
23.38
21.40
19.57
17.78
15.82
13.45
10.55
7.10
3.28
-0.60
-4.08
-6.60
-7.60
-6.72
-3.79
0.89
6.76
12.92
18.49
22.79
25.55
26.80
26.93
26.31
25.17
23.59
21.54
19.06
16.39
13.84
11.83
10.48
9.71
9.19
8.59
7.66
6.35
4.69
2.82
0.81
-1.23
-3.20
-4.98
-6.41
-7.43
-8.09
-8.46
-8.75
-9.17
-9.88
-10.98
-12.39
-13.86
-14.98
-15.22
-14.11
-11.42
-7.23
-2.00
3.54
8.55
12.20
13.90
13.47
11.21
7.87
4.41
1.65
0.00
-0.70
-0.96
-1.29
-1.88
-2.56
-2.92
-2.65
-1.83
-1.03
-0.83
-1.63
-3.27
-5.20
-6.69
-7.32
-7.25
-7.07
-7.59
-9.25
-12.01
-15.29
-18.37
-20.85
-22.77
-24.50
-26.26
-27.85
-28.49
-27.10
-22.95
-16.12
-7.67
0.74
7.44
11.46
12.80
12.40
11.43
10.79
10.81
11.13
11.21
10.84
10.38
10.61
12.17
15.21
19.02
22.38
24.03
23.33
20.49
16.37
11.97
7.96
4.37
0.80
-3.18
-7.62
-12.12
-15.98
-18.65
-20.12
-20.85
-21.50
-22.41
-23.26
-23.14
-20.96
-16.18
-9.14
-1.09
6.41
12.12
15.65
17.44
18.41
19.28
20.24
20.98
21.01
20.20
18.89
17.93
18.16
19.89
22.68
25.51
27.20
27.03
25.11
22.31
19.58
17.52
15.95
14.09
11.13
6.84
1.77
-3.14
-7.31
-10.86
-14.57
-19.20
-24.74
-30.13
-33.57
-33.34
-28.84
-20.71
-10.55
-0.14
9.29
17.33
24.04
29.52
33.26
34.49
32.64
27.93
21.71
16.02
12.74
12.93
15.82
19.61
22.17
22.19
19.75
16.16
12.96
11.14
10.22
8.82
5.41
-0.85
-9.68
-19.99
-30.67
-41.08
-51.79
-63.74
-77.55
-92.85
-108.01
-120.64
-128.53
-130.48
-127.22
-120.66
-112.89
-104.89
-95.89
-83.79
-66.61
-43.97
-17.99
7.43
28.26
41.94
48.13
48.15
43.75
36.30
26.25
14.05
0.88
-11.20
-19.80
-23.35
-21.76
-16.23
-8.92
-1.92
3.49
6.77
8.04
7.71
6.31
4.56
2.97
1.89
1.42
1.42
1.59
1.79
2.12
2.79
3.88
5.01
5.39
4.08
0.49
-5.19
-11.97
-18.26
-22.54
-23.88
-22.23
-18.38
-13.51
-8.77
-4.82
-1.67
1.05
3.79
6.79
9.99
13.17
16.26
19.57
23.73
29.38
36.68
45.03
53.10
59.33
62.58
62.61
60.21
56.80
53.70
51.67
50.58
49.78
48.53
46.53
44.07
41.79
40.23
39.43
38.83
37.55
34.82
30.40
24.72
18.60
12.88
8.09
4.36
1.67
0.07
-0.15
1.45
5.16
10.73
17.29
23.52
28.10
30.10
29.38
26.50
22.40
18.00
13.91
10.32
7.25
4.71
2.89
2.15
2.72
4.55
7.18
9.87
11.90
12.86
12.75
11.98
10.95
9.88
8.68
6.99
4.48
1.09
-2.87
-6.76
-9.95
-12.06
-13.23
-14.07
-15.31
-17.51
-20.63
-24.05
-26.72
-27.65
-26.35
-23.02
-18.43
-13.55
-9.13
-5.42
-2.29
0.48
2.92
4.73
5.49
5.01
3.51
1.80
0.77
1.05
2.61
4.80
6.65
7.47
7.07
5.96
4.89
4.40
4.46
4.54
3.88
2.01
-0.92
-4.09
-6.41
-7.00
-5.57
-2.50
1.26
4.72
7.10
8.23
8.47
8.58
9.41
11.55
15.14
19.84
24.97
29.76
33.52
35.71
35.91
33.82
29.29
22.50
14.05
4.98
-3.44
-10.14
-14.54
-16.70
-17.13
-16.51
-15.30
-13.66
-11.58
-9.12
-6.57
-4.51
-3.58
-4.20
-6.43
-9.85
-13.86
-17.95
-21.92
-25.89
-30.15
-34.90
-39.97
-44.73
-48.30
-49.81
-48.72
-45.06
-39.27
-32.04
-24.00
-15.55
-6.93
1.60
9.57
16.29
21.09
23.53
23.75
22.41
20.43
18.60
17.26
16.35
15.58
14.74
13.86
13.20
12.91
12.88
12.67
11.67
9.49
6.16
2.24
-1.41
-4.07
-5.60
-6.45
-7.58
-9.83
-13.57
-18.41
-23.36
-27.24
-29.12
-28.66
-26.13
-22.02
-16.83
-10.97
-4.78
1.32
6.82
11.19
14.15
15.81
16.53
16.71
16.46
15.71
14.23
12.06
9.60
7.63
6.78
7.26
8.65
10.16
10.98
10.73
9.60
8.25
7.31
7.16
7.48
7.65
7.00
5.27
2.71
0.06
-2.02
-3.21
-3.81
-4.36
-5.13
-5.84
-5.64
-3.48
1.11
7.76
15.14
21.59
25.88
27.56
26.99
25.00
22.40
19.67
16.97
14.33
11.83
9.65
7.88
6.53
5.41
4.37
3.31
2.29
1.42
0.75
0.08
-0.84
-2.27
-4.21
-6.48
-8.82
-11.10
-13.48
-16.36
-20.00
-24.33
-28.70
-32.06
-33.38
-32.06
-28.24
-22.80
-16.92
-11.67
-7.60
-4.64
-2.44
-0.67
0.62
0.98
-0.06
-2.65
-6.30
-10.00
-12.61
-13.45
-12.58
-10.76
-8.98
-8.00
-7.94
-8.35
-8.56
-8.18
-7.43
-6.98
-7.58
-9.60
-12.70
-15.96
-18.39
-19.38
-19.05
-18.09
-17.25
-16.78
-16.16
-14.38
-10.52
-4.34
3.45
11.45
18.20
22.75
24.95
25.39
24.83
23.76
22.27
20.10
17.09
13.45
9.81
6.98
5.56
5.66
6.83
8.22
9.03
8.84
7.74
6.22
4.88
4.07
3.76
3.52
2.91
1.62
-0.28
-2.41
-4.36
-5.89
-7.05
-8.00
-8.73
-8.92
-7.99
-5.45
-1.26
3.97
9.18
13.21
15.35
15.57
14.53
13.20
12.32
12.11
12.19
11.93
10.87
9.10
7.39
6.56
7.17
9.00
11.05
12.10
11.35
8.87
5.47
1.93
-1.30
-4.39
-7.80
-11.61
-15.26
-17.84
-18.64
-18.00
-17.03
-17.09
-18.76
-21.30
-22.89
-21.68
-16.75
-8.97
-0.41
6.56
10.49
11.35
10.34
9.02
8.52
8.53
8.04
5.96
1.99
-2.93
-7.05
-8.77
-7.39
-4.00
-0.64
0.74
-0.72
-4.26
-8.04
-10.36
-10.53
-9.73
-10.03
-13.19
-19.62
-27.89
-35.48
-40.02
-40.43
-37.66
-33.69
-30.40
-28.26
-26.12
-21.97
-14.33
-3.32
8.91
19.30
25.35
26.33
23.47
19.15
15.60
13.98
13.94
14.42
14.42
13.61
12.41
11.53
11.40
12.12
13.12
13.68
13.21
11.49
8.73
5.41
2.14
-0.52
-2.49
-4.02
-5.64
-7.91
-11.09
-14.92
-18.63
-21.08
-21.24
-18.63
-13.54
-7.04
-0.54
4.72
8.14
9.86
10.50
10.67
10.62
10.08
8.62
5.99
2.45
-1.17
-3.94
-5.16
-4.78
-3.46
-2.16
-1.77
-2.65
-4.45
-6.43
-7.89
-8.47
-8.40
-8.32
-8.81
-10.11
-11.90
-13.58
-14.59
-14.75
-14.33
-13.72
-13.09
-12.20
-10.42
-7.17
-2.31
3.62
9.58
14.48
17.60
18.88
18.90
18.34
17.67
16.91
15.65
13.53
10.50
7.03
3.98
2.14
1.88
2.89
4.36
5.40
5.34
4.16
2.39
0.78
-0.18
-0.50
-0.79
-1.87
-4.35
-8.20
-12.78
-17.17
-20.59
-22.69
-23.64
-23.65
-22.84
-21.12
-18.37
-14.77
-10.79
-6.91
-3.50
-0.55
2.09
4.46
6.48
7.87
8.48
8.37
7.83
7.19
6.63
6.16
5.78
5.58
5.79
6.48
7.43
8.14
8.07
7.05
5.42
3.82
2.80
2.43
2.21
1.29
-1.04
-4.99
-9.99
-15.00
-18.87
-20.76
-20.50
-18.43
-15.19
-11.29
-6.93
-2.14
3.03
8.23
12.76
15.79
16.77
15.75
13.45
10.90
9.03
8.22
8.16
8.15
7.51
6.03
4.04
2.15
0.92
0.45
0.37
0.07
-0.92
-2.67
-4.78
-6.70
-8.04
-8.87
-9.73
-11.32
-13.98
-17.38
-20.42
-21.65
-19.96
-15.05
-7.70
0.64
8.39
14.48
18.69
21.41
23.20
24.40
24.87
24.24
22.31
19.29
15.91
13.09
11.42
11.00
11.26
11.39
10.71
8.95
6.42
3.64
1.10
-0.97
-2.77
-4.64
-6.88
-9.51
-12.29
-14.82
-16.95
-18.82
-20.89
-23.55
-26.81
-30.05
-32.10
-31.74
-28.20
-21.69
-13.32
-4.74
2.56
7.72
10.75
12.26
12.94
13.16
12.88
11.87
10.03
7.72
5.73
4.88
5.57
7.60
10.14
12.24
13.17
12.79
11.44
9.63
7.72
5.68
3.18
-0.07
-4.11
-8.47
-12.39
-15.20
-16.66
-17.19
-17.62
-18.67
-20.51
-22.55
-23.69
-22.80
-19.32
-13.45
-6.07
1.72
8.90
14.80
18.98
21.24
21.49
19.91
16.98
13.50
10.30
7.96
6.65
6.14
6.04
6.09
6.20
6.53
7.27
8.43
9.76
10.90
11.48
11.30
10.37
8.98
7.41
5.91
4.53
3.24
1.86
0.19
-2.00
-4.88
-8.46
-12.44
-16.16
-18.67
-19.01
-16.53
-11.32
-4.13
3.77
11.19
17.31
21.89
24.99
26.67
26.73
24.79
20.73
14.99
8.64
3.07
-0.57
-1.81
-1.17
0.37
1.81
2.69
3.17
3.84
5.12
6.96
8.73
9.48
8.52
5.77
1.83
-2.43
-6.28
-9.50
-12.46
-15.73
-19.70
-24.24
-28.68
-32.15
-34.00
-33.96
-32.19
-29.02
-24.65
-19.09
-12.30
-4.44
3.85
11.53
17.46
20.77
21.35
19.82
17.33
15.06
13.78
13.61
14.21
15.02
15.73
16.36
17.21
18.50
20.13
21.65
22.37
21.82
19.94
17.21
14.37
12.14
10.84
10.33
10.15
9.81
9.03
7.93
6.94
6.50
6.80
7.66
8.64
9.24
9.21
8.74
8.31
8.43
9.27
10.61
11.89
12.51
12.18
11.00
9.41
7.89
6.67
5.67
4.62
3.24
1.47
-0.52
-2.48
-4.25
-5.91
-7.67
-9.69
-11.88
-13.96
-15.53
-16.35
-16.52
-16.41
-16.49
-17.04
-18.02
-19.09
-19.71
-19.54
-18.66
-17.66
-17.48
-18.94
-22.31
-26.88
-31.03
-33.01
-31.48
-26.30
-18.59
-10.18
-2.75
2.77
6.45
8.60
9.49
9.00
6.90
3.39
-0.53
-3.39
-3.94
-2.08
1.15
4.14
5.61
5.49
4.87
5.18
7.29
10.62
13.63
14.72
13.10
9.45
5.37
2.48
1.66
2.11
2.35
0.90
-2.69
-7.54
-11.94
-14.47
-14.71
-14.03
-14.32
-16.97
-21.70
-26.44
-28.30
-25.17
-16.95
-6.04
4.00
10.22
11.74
9.99
7.77
7.43
9.79
13.62
16.78
17.57
15.66
12.21
8.99
7.32
7.57
8.91
10.15
10.45
9.64
8.27
7.03
6.37
6.43
6.77
6.91
6.51
5.57
4.48
3.85
4.30
6.27
9.69
14.04
18.35
21.59
22.93
22.13
19.43
15.60
11.44
7.54
4.10
1.06
-1.75
-4.36
-6.59
-8.11
-8.65
-8.20
-7.05
-5.78
-4.95
-4.96
-5.87
-7.40
-9.08
-10.49
-11.50
-12.34
-13.38
-14.99
-17.18
-19.52
-21.36
-22.20
-21.95
-21.13
-20.59
-21.09
-22.92
-25.66
-28.31
-29.72
-29.04
-26.04
-21.07
-14.97
-8.61
-2.66
2.51
6.72
9.86
11.74
12.18
11.14
8.90
6.09
3.57
2.05
1.80
2.59
3.86
5.03
5.80
6.28
6.84
7.72
8.92
10.00
10.43
9.85
8.29
6.20
4.12
2.46
1.23
0.05
-1.54
-3.87
-6.97
-10.43
-13.65
-15.96
-16.88
-16.28
-14.34
-11.49
-8.20
-4.83
-1.63
1.30
3.79
5.57
6.35
5.93
4.38
2.20
0.09
-1.28
-1.54
-0.78
0.61
2.11
3.34
4.31
5.22
6.33
7.76
9.27
10.38
10.60
9.67
7.80
5.58
3.72
2.73
2.73
3.46
4.61
5.99
7.79
10.25
13.48
17.19
20.62
22.87
23.22
21.46
18.04
13.83
9.77
6.55
4.35
2.98
2.04
1.27
0.72
0.60
1.15
2.28
3.58
4.45
4.41
3.33
1.52
-0.48
-2.25
-3.73
-5.17
-6.98
-9.37
-12.15
-14.78
-16.67
-17.52
-17.59
-17.55
-18.25
-20.28
-23.67
-27.80
-31.67
-34.24
-34.76
-32.97
-29.16
-23.90
-17.85
-11.52
-5.31
0.43
5.26
8.64
10.09
9.45
7.10
4.00
1.34
0.07
0.52
2.29
4.46
6.16
6.97
7.08
7.12
7.63
8.71
9.91
10.62
10.33
9.04
7.27
5.68
4.68
4.16
3.60
2.32
-0.09
-3.61
-7.75
-11.87
-15.43
-18.12
-19.86
-20.63
-20.34
-18.76
-15.66
-11.00
-5.15
1.10
6.72
10.82
12.94
13.25
12.38
11.16
10.23
9.89
10.07
10.64
11.47
12.57
13.95
15.55
17.10
18.30
18.85
18.69
17.97
16.92
15.77
14.58
13.29
11.79
10.03
8.19
6.48
5.22
4.53
4.37
4.56
4.90
5.29
5.76
6.46
7.50
8.81
10.20
11.36
12.05
12.15
11.78
11.07
10.16
9.03
7.59
5.76
3.64
1.45
-0.44
-1.79
-2.51
-2.73
-2.65
-2.38
-1.96
-1.50
-1.13
-1.22
-2.10
-3.99
-6.85
-10.40
-14.34
-18.45
-22.62
-26.84
-31.05
-35.11
-38.83
-42.07
-44.70
-46.51
-47.11
-45.86
-42.11
-35.48
-26.20
-15.20
-3.95
5.87
12.94
16.58
17.00
15.14
12.20
9.34
7.20
5.81
4.86
3.95
3.02
2.36
2.44
3.55
5.50
7.62
9.13
9.49
8.77
7.59
6.69
6.52
6.92
7.24
6.61
4.58
1.31
-2.41
-5.71
-8.10
-9.73
-11.30
-13.53
-16.64
-20.07
-22.50
-22.61
-19.58
-13.59
-5.85
2.03
8.57
13.03
15.51
16.64
17.11
17.32
17.23
16.70
15.69
14.62
14.17
15.04
17.47
21.05
24.84
27.75
29.08
28.79
27.45
25.84
24.51
23.45
22.17
20.06
16.84
12.82
8.79
5.60
3.73
3.07
3.01
2.84
2.13
0.97
-0.18
-0.88
-0.91
-0.51
-0.16
-0.27
-0.91
-1.74
-2.24
-2.03
-1.16
-0.07
0.59
0.31
-1.00
-2.91
-4.80
-6.09
-6.64
-6.75
-7.03
-8.04
-9.96
-12.54
-15.36
-18.00
-20.35
-22.58
-24.90
-27.31
-29.67
-31.72
-33.52
-35.44
-37.92
-41.08
-44.37
-46.58
-46.28
-42.35
-34.66
-24.11
-12.41
-1.50
7.07
12.55
15.02
15.38
14.54
13.33
12.12
10.84
9.37
7.76
6.39
5.75
5.73
5.78
5.05
2.89
-0.45
-3.86
-5.99
-5.96
-4.28
-2.41
-2.05
-4.06
-7.87
-11.92
-14.61
-15.34
-15.15
-15.89
-19.07
-24.77
-31.24
-35.71
-35.81
-30.75
-22.19
-13.07
-6.17
-2.71
-1.75
-1.05
1.44
6.30
12.01
16.06
16.53
13.25
8.07
3.83
2.79
5.59
10.85
16.23
19.66
20.27
18.54
15.70
12.85
10.61
8.71
6.62
3.87
0.36
-3.67
-7.88
-12.06
-16.09
-20.10
-24.15
-28.11
-31.48
-33.44
-33.09
-29.72
-23.21
-14.18
-3.97
5.86
13.93
19.40
22.20
22.82
22.07
20.76
19.49
18.57
18.03
17.72
17.48
17.23
17.00
16.92
17.11
17.53
17.92
17.90
17.10
15.39
12.93
10.04
7.14
4.41
1.82
-0.82
-3.75
-7.10
-10.88
-14.96
-19.27
-23.69
-28.05
-31.95
-34.72
-35.57
-33.76
-29.00
-21.75
-13.04
-4.27
3.25
8.75
12.16
14.04
15.17
16.17
17.35
18.63
19.85
20.86
21.76
22.74
23.95
25.36
26.65
27.33
26.99
25.46
22.93
19.93
17.03
14.57
12.58
10.75
8.67
6.18
3.40
0.77
-1.26
-2.54
-3.41
-4.63
-7.03
-11.09
-16.62
-22.65
-27.77
-30.57
-30.22
-26.73
-20.89
-13.94
-7.01
-0.77
4.58
9.21
13.23
16.52
18.80
19.82
19.64
18.79
18.12
18.40
20.05
22.89
26.31
29.56
32.01
33.48
34.13
34.28
34.16
33.78
32.89
31.32
29.05
26.42
23.97
22.20
21.32
21.16
21.28
21.21
20.68
19.80
18.86
18.14
17.72
17.33
16.61
15.29
13.40
11.28
9.39
8.11
7.48
7.19
6.77
5.92
4.65
3.35
2.60
2.65
3.34
4.02
3.95
2.74
0.54
-1.91
-3.79
-4.68
-4.73
-4.59
-4.97
-6.20
-8.03
-9.80
-10.87
-11.04
-10.66
-10.47
-11.26
-13.38
-16.66
-20.51
-24.23
-27.35
-29.79
-31.84
-33.98
-36.64
-40.07
-44.18
-48.63
-52.86
-56.17
-57.85
-57.30
-54.18
-48.50
-40.59
-31.09
-20.88
-10.89
-2.05
4.93
9.74
12.58
14.22
15.80
18.44
22.85
29.02
36.24
43.28
48.83
51.81
51.60
48.09
41.71
33.31
24.03
15.11
7.63
2.27
-0.93
-2.47
-3.18
-4.00
-5.53
-7.96
-11.00
-14.10
-16.74
-18.72
-20.26
-22.00
-24.56
-28.26
-32.78
-37.17
-40.16
-40.62
-38.03
-32.56
-24.90
-16.01
-6.68
2.44
10.97
18.49
24.62
28.97
31.39
32.02
31.28
29.73
27.84
25.89
24.02
22.24
20.73
19.61
19.01
18.91
19.14
19.40
19.40
18.96
18.01
16.49
14.38
11.60
8.15
4.18
0.13
-3.53
-6.34
-8.25
-9.53
-10.85
-12.80
-15.56
-18.81
-21.77
-23.46
-23.14
-20.57
-16.06
-10.39
-4.50
0.76
4.72
7.14
8.03
7.68
6.48
4.87
3.23
1.86
0.94
0.60
0.92
1.92
3.56
5.71
8.10
10.30
11.84
12.31
11.51
9.60
6.97
4.13
1.45
-0.98
-3.37
-5.94
-8.67
-11.19
-12.72
-12.57
-10.36
-6.38
-1.51
3.17
6.77
8.91
9.82
9.95
9.75
9.35
8.62
7.43
5.91
4.58
4.18
5.25
7.72
10.87
13.56
14.70
13.86
11.37
8.18
5.34
3.49
2.60
2.11
1.27
-0.25
-2.26
-4.06
-4.96
-4.66
-3.57
-2.64
-2.92
-5.08
-9.20
-14.59
-20.29
-25.31
-29.01
-31.14
-31.69
-30.79
-28.61
-25.30
-21.11
-16.44
-11.89
-8.10
-5.55
-4.49
-4.73
-5.74
-6.89
-7.62
-7.68
-7.12
-6.18
-5.06
-3.72
-1.93
0.56
3.78
7.32
10.50
12.63
13.41
13.03
12.13
11.29
10.79
10.36
9.49
7.75
5.13
2.10
-0.71
-2.86
-4.33
-5.50
-6.82
-8.44
-9.98
-10.64
-9.62
-6.57
-1.87
3.52
8.33
11.65
13.25
13.72
13.93
14.56
15.67
16.68
16.80
15.67
13.64
11.59
10.15
9.37
8.66
7.21
4.74
1.81
-0.51
-1.35
-1.00
-0.69
-2.04
-5.95
-11.87
-18.02
-22.31
-23.43
-21.69
-18.52
-15.56
-13.61
-12.14
-9.77
-5.25
1.69
9.57
16.18
19.60
19.14
15.80
11.79
9.19
9.20
11.12
13.26
13.89
12.25
9.10
6.13
4.90
5.96
8.10
9.41
8.31
4.57
-0.46
-4.59
-6.19
-5.05
-2.92
-2.29
-5.04
-11.35
-19.50
-26.91
-31.54
-32.91
-32.33
-31.97
-33.33
-36.45
-39.78
-41.14
-38.94
-32.87
-24.31
-15.30
-7.64
-2.21
1.16
3.20
4.59
5.77
6.55
6.67
6.02
4.84
3.66
3.09
3.48
5.00
7.35
9.98
12.28
13.68
13.88
12.96
11.29
9.43
7.84
6.66
5.64
4.30
2.09
-1.25
-5.56
-10.28
-14.67
-18.08
-20.13
-20.81
-20.26
-18.71
-16.29
-13.00
-8.87
-4.14
0.69
4.94
7.99
9.49
9.56
8.70
7.57
6.62
6.03
5.62
5.16
4.50
3.70
3.10
2.98
3.47
4.38
5.33
5.91
5.84
5.10
3.96
2.67
1.39
-0.03
-1.96
-4.82
-8.79
-13.60
-18.41
-22.15
-23.78
-22.79
-19.32
-14.12
-8.22
-2.57
2.31
6.30
9.51
11.96
13.41
13.57
12.22
9.58
6.33
3.38
1.49
0.93
1.36
2.04
2.21
1.39
-0.35
-2.65
-5.05
-7.34
-9.63
-12.20
-15.34
-19.12
-23.31
-27.55
-31.59
-35.41
-39.19
-43.04
-46.76
-49.65
-50.66
-48.86
-43.86
-36.17
-27.21
-18.81
-12.71
-9.89
-10.33
-13.18
-17.21
-21.39
-25.23
-28.88
-32.93
-37.93
-44.15
-51.37
-59.07
-66.57
-73.36
-79.18
-84.03
-88.28
-92.55
-97.73
-104.97
-115.29
-129.16
-146.00
-163.83
-179.49
-189.21
-189.76
-179.40
-158.35
-128.62
-92.99
-53.96
-12.95
29.68
73.74
118.32
161.11
198.74
227.93
246.85
255.95
257.78
255.86
253.11
250.83
248.73
245.79
241.42
236.19
231.49
228.66
227.84
227.67
225.80
220.04
209.30
194.06
175.83
156.09
135.46
113.48
89.17
61.87
32.07
1.54
-27.03
-51.11
-68.99
-80.36
-86.16
-88.02
-87.60
-86.11
-84.16
-82.03
-79.80
-77.60
-75.56
-73.61
-71.43
-68.58
-64.62
-59.47
-53.55
-47.69
-42.75
-39.34
-37.51
-36.81
-36.42
-35.59
-34.09
-32.20
-30.56
-29.86
-30.36
-31.76
-33.34
-34.31
-34.31
-33.52
-32.74
-32.92
-34.80
-38.66
-44.13
-50.39
-56.29
-60.61
-62.26
-60.44
-54.86
-45.86
-34.46
-22.06
-10.28
-0.48
6.53
10.61
12.23
12.19
11.36
10.45
9.89
9.81
10.17
10.87
11.74
12.81
13.98
15.26
16.52
17.53
17.98
17.60
16.27
14.09
11.19
7.80
4.12
0.32
-3.45
-7.05
-10.49
-13.94
-17.87
-22.64
-28.27
-34.06
-38.64
-40.41
-38.27
-32.14
-23.18
-13.31
-4.40
2.39
6.83
9.42
10.75
11.19
10.55
8.55
5.08
0.58
-4.16
-8.22
-11.10
-12.90
-14.40
-16.57
-20.24
-25.66
-32.51
-40.08
-47.70
-54.91
-61.78
-68.67
-76.16
-84.75
-94.94
-106.93
-120.51
-134.69
-147.49
-156.07
-157.41
-149.16
-130.49
-102.22
-66.41
-25.57
17.87
61.69
103.68
141.39
172.23
194.20
206.49
209.77
206.06
197.93
187.66
176.71
165.80
155.23
145.41
137.04
131.11
128.49
129.41
133.24
138.50
143.28
145.84
145.12
140.96
133.77
124.09
112.25
98.18
81.72
62.82
41.92
19.82
-2.62
-24.65
-45.84
-65.90
-84.41
-100.59
-113.26
-121.25
-123.98
-121.86
-116.33
-109.48
-103.22
-98.55
-95.39
-92.78
-89.59
-85.22
-79.82
-74.20
-69.19
-65.12
-61.65
-57.96
-53.34
-47.66
-41.53
-36.07
-32.37
-31.09
-32.17
-34.89
-38.29
-41.48
-44.03
-45.80
-46.86
-47.26
-46.89
-45.71
-43.84
-41.68
-39.85
-38.80
-38.74
-39.33
-39.87
-39.56
-37.80
-34.56
-30.27
-25.59
-21.15
-17.12
-13.21
-8.87
-3.69
2.23
8.16
12.94
15.58
15.70
13.88
11.29
9.13
8.04
7.68
6.99
4.90
0.99
-4.05
-8.79
-11.57
-11.15
-6.96
0.98
12.40
26.86
43.72
61.46
77.90
90.48
97.26
98.08
94.85
91.07
90.43
94.96
104.22
115.46
124.93
129.68
128.69
122.95
114.65
105.47
95.93
85.41
73.12
59.21
45.19
33.29
25.35
21.40
19.62
17.12
11.40
1.66
-10.96
-24.05
-35.03
-42.71
-47.37
-50.42
-53.41
-57.08
-61.09
-64.31
-65.47
-64.31
-61.44
-58.14
-55.67
-54.65
-55.00
-56.37
-58.56
-62.11
-67.86
-76.25
-86.57
-96.66
-103.29
-103.14
-93.99
-75.99
-51.76
-25.91
-3.69
10.62
14.99
9.98
-1.69
-16.37
-30.19
-39.44
-40.55
-30.23
-6.29
31.20
78.98
130.48
177.31
211.69
228.65
227.39
211.06
185.11
155.57
127.30
103.28
84.52
70.48
59.62
49.92
39.51
27.27
13.00
-2.58
-18.24
-32.97
-46.42
-58.87
-70.90
-82.53
-93.10
-101.40
-106.39
-107.98
-107.13
-105.37
-103.82
-102.50
-100.31
-95.66
-87.47
-75.89
-62.29
-48.71
-36.99
-28.02
-21.74
-17.42
-14.41
-12.61
-12.51
-14.80
-19.68
-26.31
-32.94
-37.54
-38.74
-36.54
-32.23
-27.69
-24.40
-22.57
-21.21
-18.63
-13.48
-5.47
4.37
14.00
21.22
24.34
22.68
16.63
7.49
-3.04
-13.04
-20.88
-25.40
-26.20
-23.82
-19.83
-16.39
-15.57
-18.02
-22.25
-24.63
-20.48
-6.40
17.74
48.10
77.91
100.30
111.08
110.25
101.31
89.18
77.61
67.76
58.28
46.62
30.34
7.95
-20.67
-54.28
-90.03
-123.50
-149.37
-162.59
-159.79
-140.40
-106.66
-62.88
-14.48
33.09
74.63
105.86
123.75
127.01
116.32
93.87
62.39
24.34
-18.49
-64.72
-112.56
-159.39
-202.06
-237.49
-263.59
-279.54
-285.83
-283.71
-274.89
-261.03
-243.43
-222.95
-199.92
-174.35
-146.41
-116.70
-85.97
-54.87
-23.71
6.96
35.66
59.49
74.72
78.32
69.88
52.58
32.41
16.23
9.17
13.25
27.43
48.87
74.57
102.53
131.96
162.80
194.81
226.64
255.18
275.97
284.41
277.97
257.76
228.55
196.60
166.57
139.19
111.34
78.83
39.98
-1.92
-39.50
-64.75
-73.23
-66.44
-50.96
-35.14
-25.20
-22.96
-26.10
-30.55
-33.08
-32.77
-30.81
-29.08
-28.55
-28.58
-27.22
-22.27
-12.48
1.85
19.04
36.85
53.28
67.23
78.59
87.78
95.19
100.56
103.04
101.52
95.24
84.47
70.59
55.75
42.24
31.58
24.22
19.54
16.30
13.25
9.51
4.75
-1.03
-7.66
-14.87
-22.35
-29.47
-35.41
-39.15
-39.87
-37.24
-31.47
-23.31
-13.76
-3.79
5.63
13.70
19.77
23.49
24.93
24.81
24.30
24.83
27.43
32.42
39.24
46.64
53.21
57.82
59.95
59.64
57.29
53.42
48.60
43.48
38.77
35.36
34.14
35.91
41.02
49.39
60.40
73.03
85.99
97.98
107.76
114.39
117.19
115.94
110.91
102.88
93.01
82.62
72.84
64.40
57.37
51.33
45.65
39.77
33.42
26.68
19.80
13.02
6.43
0.05
-6.12
-11.89
-16.80
-20.28
-21.84
-21.33
-19.10
-15.93
-12.82
-10.58
-9.56
-9.60
-10.07
-10.19
-9.28
-6.99
-3.30
1.46
6.78
12.14
17.16
21.79
26.22
30.80
35.85
41.39
47.07
52.30
56.37
58.77
59.35
58.45
56.81
55.36
54.91
55.89
58.16
60.94
63.03
63.12
60.23
54.09
45.10
34.18
22.26
9.83
-3.21
-17.38
-33.18
-50.63
-69.10
-87.35
-103.89
-117.34
-126.58
-130.88
-129.86
-123.62
-112.94
-99.27
-84.50
-70.55
-58.88
-50.23
-44.78
-42.54
-43.52
-47.68
-54.70
-63.72
-73.57
-83.16
-92.18
-101.16
-111.28
-123.68
-138.86
-156.49
-175.65
-195.24
-214.31
-231.97
-247.16
-258.56
-264.70
-264.31
-256.77
-242.36
-222.31
-198.61
-173.69
-149.98
-129.40
-112.76
-99.38
-86.93
-71.84
-50.27
-19.21
22.26
72.38
126.85
179.99
226.59
263.65
291.28
312.05
329.09
343.96
355.44
359.90
352.98
331.52
294.49
243.33
181.81
116.27
55.72
10.46
-10.81
-5.00
22.95
60.92
94.04
110.41
105.13
80.71
44.58
5.94
-26.53
-45.53
-45.83
-25.49
12.48
59.67
104.39
135.98
149.01
145.03
130.70
113.68
99.13
88.10
78.70
68.26
55.01
38.80
20.67
2.32
-14.31
-27.60
-36.61
-41.23
-41.99
-39.62
-34.45
-26.22
-14.55
0.08
15.69
28.90
36.14
35.29
26.81
13.54
-0.57
-12.55
-21.50
-28.64
-36.20
-45.58
-56.29
-66.20
-72.52
-73.69
-70.08
-63.82
-57.70
-53.67
-52.09
-52.07
-52.24
-51.98
-51.44
-51.06
-50.74
-49.54
-46.21
-40.12
-32.11
-24.40
-19.55
-19.01
-22.41
-27.73
-32.54
-35.30
-35.77
-35.04
-34.53
-35.25
-37.42
-40.46
-43.18
-43.79
-40.24
-30.99
-15.83
3.51
23.27
38.90
46.79
45.82
37.87
26.62
15.70
6.90
-0.42
-8.47
-19.40
-33.89
-50.84
-68.16
-84.14
-98.34
-111.71
-125.83
-141.94
-160.21
-179.82
-199.36
-217.31
-232.30
-242.99
-247.75
-244.82
-233.03
-212.63
-186.16
-158.41
-135.15
-121.21
-118.52
-125.24
-136.43
-145.99
-149.06
-143.77
-131.51
-115.82
-100.27
-86.76
-74.83
-62.19
-46.16
-24.98
1.49
31.86
63.92
95.32
123.81
147.20
163.03
168.86
162.76
143.95
113.31
73.35
27.75
-19.10
-62.49
-97.55
-119.82
-126.60
-118.24
-99.01
-76.00
-56.25
-43.44
-36.02
-28.28
-14.17
8.86
37.89
66.12
86.49
95.18
93.01
83.89
71.91
59.09
45.22
29.30
11.54
-5.93
-19.48
-25.22
-20.25
-3.59
23.49
57.28
92.25
122.29
142.64
151.66
151.47
147.35
145.72
151.55
166.48
188.05
210.58
227.12
231.41
219.51
190.12
144.45
85.77
19.17
-48.45
-108.88
-153.81
-176.98
-176.17
-154.23
-118.17
-76.92
-38.47
-7.67
14.14
28.60
39.10
49.79
64.62
86.33
115.21
148.20
179.00
199.72
203.56
187.48
153.55
108.11
59.45
14.86
-21.51
-49.11
-70.02
-87.22
-103.07
-118.69
-134.14
-149.06
-163.21
-176.41
-188.25
-197.71
-203.16
-202.97
-196.49
-184.60
-169.74
-154.93
-142.48
-132.99
-125.34
-117.81
-109.72
-102.35
-98.71
-101.87
-113.12
-130.81
-150.71
-167.72
-177.90
-179.65
-173.43
-160.66
-142.44
-119.22
-91.46
-60.69
-30.00
-3.51
14.91
23.01
20.77
10.40
-4.57
-20.25
-33.21
-41.11
-42.98
-39.22
-31.37
-21.58
-11.83
-3.60
2.17
4.77
3.41
-2.41
-11.85
-21.90
-27.44
-22.75
-4.23
27.18
65.25
100.17
122.17
125.26
109.36
79.88
44.97
12.30
-13.32
-30.37
-39.67
-42.86
-41.35
-36.22
-28.54
-19.57
-10.66
-2.63
4.57
11.90
20.66
31.63
44.76
59.20
73.90
88.30
102.76
118.39
135.98
154.89
172.47
184.09
184.67
170.77
142.27
103.08
60.22
22.06
-4.36
-15.37
-11.55
2.93
21.79
38.78
49.13
50.46
42.73
27.87
9.16
-9.31
-23.59
-30.69
-29.67
-22.04
-11.42
-2.09
2.51
1.19
-4.89
-13.04
-20.74
-26.51
-30.04
-31.73
-32.10
-31.29
-29.38
-26.60
-23.75
-21.85
-21.60
-23.02
-25.29
-26.96
-26.58
-23.28
-17.35
-10.13
-3.67
-0.04
-0.86
-6.84
-17.74
-32.32
-48.34
-62.39
-70.02
-66.10
-46.36
-9.06
43.52
104.80
165.02
214.10
244.68
254.23
245.29
224.07
197.81
172.62
152.35
138.68
131.88
131.44
136.07
143.57
150.82
154.33
151.30
140.40
122.07
98.20
71.11
43.04
15.77
-9.33
-31.12
-48.72
-61.85
-70.92
-76.84
-80.49
-82.36
-82.27
-79.80
-74.88
-68.25
-61.38
-55.95
-53.10
-52.95
-54.54
-56.41
-57.34
-56.99
-56.04
-55.74
-57.23
-60.80
-65.75
-70.56
-73.80
-74.71
-73.44
-71.03
-68.64
-67.09
-66.49
-66.43
-66.40
-66.26
-66.30
-67.18
-69.31
-72.63
-76.28
-78.90
-79.00
-75.46
-67.81
-56.34
-41.87
-25.56
-8.53
8.16
23.66
37.12
47.71
54.67
57.52
56.19
51.22
43.58
34.42
24.78
15.45
6.99
0.02
-4.69
-6.27
-4.14
1.57
9.79
18.65
26.09
30.61
31.75
30.13
26.91
23.00
18.59
13.09
5.78
-3.40
-13.33
-21.82
-26.48
-25.88
-20.24
-11.58
-2.68
4.00
7.45
8.42
8.57
9.38
11.13
12.61
12.00
8.11
1.28
-6.63
-13.49
-17.95
-20.11
-21.20
-22.49
-24.34
-26.09
-26.75
-26.21
-25.51
-26.42
-30.24
-36.90
-44.77
-51.58
-55.68
-57.36
-58.58
-61.67
-67.80
-75.48
-80.55
-77.79
-63.11
-36.39
-1.59
34.77
66.44
90.27
106.97
119.60
131.13
141.74
149.19
150.58
144.95
134.65
124.32
118.45
118.94
123.51
127.36
125.63
115.93
99.41
79.84
61.49
47.25
37.16
29.12
20.39
9.21
-4.22
-17.99
-29.61
-37.07
-39.96
-39.19
-36.30
-32.65
-28.85
-24.81
-20.16
-14.54
-8.15
-1.44
4.95
10.46
14.85
18.11
20.43
22.25
23.79
25.18
26.31
26.91
26.79
25.96
24.68
23.45
22.61
22.15
21.61
20.15
16.94
11.52
4.04
-4.79
-14.09
-23.23
-32.17
-41.29
-50.99
-61.03
-70.14
-76.31
-77.49
-72.55
-61.87
-47.39
-31.75
-17.30
-5.39
3.81
10.81
16.09
19.67
21.10
20.06
16.80
12.44
8.63
6.88
7.79
10.85
14.53
17.16
17.61
15.82
12.74
9.71
7.76
7.03
6.66
5.30
1.72
-4.64
-13.36
-23.27
-32.83
-40.50
-45.15
-46.08
-43.03
-36.19
-26.01
-13.35
0.62
14.41
26.43
35.24
39.83
39.95
36.25
30.00
22.80
16.15
11.02
7.88
6.67
7.05
8.55
10.55
12.43
13.52
13.27
11.40
7.93
3.30
-1.95
-7.38
-12.95
-19.04
-26.33
-35.27
-45.58
-55.92
-64.11
-67.75
-65.16
-56.08
-41.91
-25.13
-8.42
6.14
17.59
25.86
31.21
33.83
33.62
30.60
25.23
18.72
12.85
9.32
9.08
11.86
16.26
20.40
22.66
22.32
19.74
15.88
11.72
7.78
3.79
-0.91
-7.05
-14.97
-24.49
-34.97
-45.47
-54.91
-62.07
-65.72
-64.75
-58.45
-46.91
-31.13
-13.02
5.06
20.88
32.90
40.43
43.64
43.36
40.63
36.48
31.81
27.31
23.56
21.03
19.98
20.47
22.17
24.33
26.06
26.48
25.20
22.32
18.44
14.39
10.70
7.29
3.46
-1.88
-9.61
-19.84
-31.56
-42.74
-50.94
-54.13
-51.37
-43.14
-30.97
-16.97
-2.99
9.73
20.59
29.33
35.68
39.23
39.67
37.12
32.36
26.84
22.22
19.82
20.15
22.72
26.40
29.82
31.90
32.19
30.80
28.15
24.68
20.63
16.01
10.75
4.90
-1.39
-7.95
-14.72
-21.84
-29.35
-36.85
-43.28
-46.86
-45.78
-38.86
-26.39
-10.18
6.93
22.11
33.52
40.66
44.09
44.81
43.61
40.84
36.74
31.83
27.09
23.81
22.99
24.87
28.60
32.67
35.46
35.87
33.71
29.57
24.38
18.99
13.82
8.78
3.49
-2.41
-9.10
-16.47
-24.43
-32.74
-41.05
-48.63
-54.25
-56.28
-53.24
-44.37
-30.39
-13.21
4.49
20.25
32.52
41.01
46.18
48.68
48.75
46.37
41.61
35.20
28.52
23.34
20.99
21.75
24.68
28.08
30.32
30.61
29.18
27.02
25.12
23.96
23.11
21.64
18.69
13.94
7.71
0.71
-6.54
-13.90
-21.59
-29.68
-37.51
-43.58
-45.85
-42.56
-33.06
-18.20
-0.23
17.96
33.71
45.23
51.75
53.41
50.96
45.46
38.14
30.29
23.11
17.54
14.05
12.69
13.19
15.22
18.44
22.47
26.66
30.12
31.84
31.17
28.08
23.34
18.20
13.74
10.49
8.15
5.86
2.63
-2.21
-8.79
-16.65
-24.93
-32.51
-38.22
-40.94
-39.83
-34.56
-25.41
-13.32
0.20
13.43
24.69
32.68
36.76
36.97
34.12
29.48
24.51
20.38
17.74
16.57
16.50
17.04
17.89
18.97
20.20
21.31
21.79
21.10
18.94
15.51
11.46
7.62
4.58
2.42
0.60
-1.74
-5.37
-10.73
-17.61
-25.35
-32.90
-39.11
-42.91
-43.49
-40.43
-33.73
-23.90
-11.93
0.91
13.12
23.32
30.48
34.13
34.42
32.05
28.04
23.40
18.89
14.85
11.34
8.26
5.59
3.50
2.26
2.05
2.79
4.07
5.29
5.93
5.71
4.74
3.29
1.58
-0.36
-2.79
-6.06
-10.41
-15.88
-22.11
-28.66
-34.94
-40.26
-43.87
-45.00
-42.90
-37.10
-27.65
-15.35
-1.61
11.76
22.97
30.76
34.72
35.26
33.54
30.73
27.78
25.00
22.20
19.14
15.91
13.01
11.20
10.67
11.03
11.27
10.39
7.99
4.59
1.23
-1.11
-2.47
-3.70
-6.00
-10.16
-15.99
-22.39
-28.15
-32.61
-36.24
-39.94
-44.27
-48.64
-51.24
-49.81
-42.96
-30.98
-16.46
-2.83
6.92
11.59
12.18
11.05
10.36
11.02
11.96
11.39
8.03
2.27
-3.81
-7.51
-7.11
-2.70
3.44
8.27
9.50
6.68
1.26
-4.40
-8.41
-10.12
-10.50
-11.23
-13.74
-18.60
-25.35
-32.97
-40.39
-46.69
-51.41
-54.10
-54.31
-51.58
-45.73
-37.00
-26.27
-14.68
-3.64
5.73
12.68
16.92
18.61
18.21
16.34
13.82
11.40
9.68
9.01
9.36
10.35
11.47
12.20
12.35
11.94
11.10
9.86
8.12
5.62
2.24
-1.82
-5.97
-9.63
-12.50
-14.87
-17.52
-21.32
-26.61
-32.81
-38.46
-41.73
-41.17
-36.20
-27.39
-16.16
-4.29
6.65
15.69
22.44
26.93
29.28
29.60
27.93
24.50
19.83
14.88
10.77
8.33
7.88
8.98
10.76
12.18
12.57
11.79
10.14
8.11
5.97
3.71
1.08
-2.24
-6.39
-11.17
-16.20
-21.13
-25.83
-30.35
-34.75
-38.78
-41.72
-42.37
-39.60
-32.83
-22.47
-9.97
2.68
13.57
21.53
26.35
28.54
28.86
27.85
25.58
21.98
17.14
11.64
6.58
3.12
1.95
2.90
4.96
6.68
6.90
5.15
1.87
-2.00
-5.54
-8.35
-10.78
-13.53
-17.34
-22.56
-28.95
-35.84
-42.44
-48.07
-52.12
-53.99
-52.92
-48.11
-38.95
-25.60
-9.20
8.17
24.05
36.29
43.72
46.32
45.09
41.44
36.63
31.48
26.33
21.29
16.53
12.40
9.44
8.08
8.37
9.92
11.93
13.53
14.13
13.66
12.52
11.27
10.22
9.22
7.66
4.88
0.54
-5.12
-11.40
-17.44
-22.64
-26.75
-29.81
-31.81
-32.39
-30.97
-26.95
-20.20
-11.35
-1.78
6.84
13.09
16.26
16.52
14.70
11.80
8.61
5.50
2.48
-0.47
-3.21
-5.35
-6.42
-6.15
-4.69
-2.62
-0.75
0.14
-0.33
-2.08
-4.62
-7.35
-9.86
-12.12
-14.50
-17.51
-21.50
-26.47
-31.90
-37.01
-40.96
-43.15
-43.29
-41.42
-37.75
-32.45
-25.74
-17.96
-9.68
-1.72
4.98
9.64
11.91
12.02
10.64
8.58
6.48
4.61
2.92
1.29
-0.22
-1.27
-1.34
-0.09
2.33
5.25
7.69
8.80
8.26
6.49
4.40
2.93
2.48
2.68
2.63
1.42
-1.40
-5.57
-10.35
-14.79
-18.10
-19.79
-19.57
-17.21
-12.67
-6.19
1.48
9.19
15.68
20.02
21.94
21.89
20.70
19.13
17.58
16.08
14.54
13.07
12.09
12.17
13.66
16.42
19.56
21.95
22.61
21.26
18.34
14.86
11.67
9.16
6.83
3.84
-0.55
-6.49
-13.42
-20.29
-26.10
-30.27
-32.85
-34.15
-34.29
-33.00
-29.73
-24.01
-16.05
-6.87
1.91
8.69
12.45
13.09
11.24
7.98
4.27
0.82
-1.99
-3.95
-4.93
-4.91
-4.12
-2.96
-1.99
-1.61
-2.04
-3.18
-4.88
-6.94
-9.39
-12.27
-15.58
-19.15
-22.64
-25.80
-28.64
-31.36
-34.27
-37.33
-40.02
-41.32
-40.02
-35.33
-27.26
-16.75
-5.43
4.95
13.08
18.48
21.42
22.61
22.71
22.13
20.99
19.34
17.51
16.10
15.83
17.14
19.88
23.31
26.29
27.85
27.58
25.79
23.36
21.22
19.90
19.28
18.79
17.73
15.81
13.29
10.87
9.27
8.73
8.92
9.07
8.43
6.68
4.15
1.63
-0.08
-0.59
-0.14
0.51
0.49
-0.78
-3.31
-6.52
-9.60
-11.96
-13.44
-14.48
-15.82
-18.10
-21.43
-25.44
-29.42
-32.76
-35.34
-37.50
-39.88
-42.95
-46.90
-51.58
-56.81
-62.64
-69.27
-76.69
-84.27
-90.56
-93.62
-91.78
-84.49
-72.69
-58.58
-44.77
-33.24
-24.71
-18.63
-13.80
-9.24
-4.85
-1.27
0.59
0.39
-1.26
-2.73
-2.34
1.02
7.20
14.86
22.22
27.86
31.31
32.95
33.27
32.48
30.30
26.25
20.34
13.34
6.37
0.29
-5.07
-10.69
-17.63
-25.93
-34.17
-39.81
-40.39
-34.66
-23.39
-8.83
6.08
18.86
28.18
33.83
36.39
36.67
34.93
31.18
25.45
18.16
10.50
4.18
0.69
0.75
3.29
6.24
7.38
5.48
1.05
-3.99
-7.54
-8.50
-7.74
-7.48
-10.00
-16.42
-25.84
-35.68
-42.93
-45.37
-42.96
-37.19
-30.21
-23.46
-16.81
-9.00
1.13
13.45
25.67
34.51
37.40
33.99
26.68
19.51
16.06
17.88
23.66
30.38
35.08
36.43
35.06
32.85
31.50
31.75
32.84
33.33
32.08
28.83
24.19
19.16
14.31
9.74
4.79
-1.14
-8.13
-15.38
-21.35
-24.36
-23.17
-17.42
-7.96
3.53
15.03
24.74
31.63
35.47
36.73
36.19
34.56
32.20
29.23
25.73
21.92
18.33
15.59
14.15
14.00
14.61
15.04
14.39
12.11
8.29
3.56
-1.22
-5.39
-8.77
-11.74
-15.09
-19.55
-25.46
-32.43
-39.33
-44.58
-46.64
-44.50
-38.09
-28.25
-16.54
-4.61
6.12
14.79
21.06
24.84
26.17
25.17
22.24
18.21
14.31
11.85
11.77
14.26
18.68
23.85
28.55
32.02
34.19
35.51
36.52
37.55
38.43
38.66
37.58
34.78
30.34
24.80
18.99
13.78
9.82
7.51
6.93
7.97
10.44
13.97
17.98
21.69
24.25
24.93
23.36
19.71
14.64
9.03
3.71
-0.78
-4.28
-6.84
-8.60
-9.68
-10.18
-10.29
-10.38
-11.02
-12.83
-16.15
-20.89
-26.44
-31.89
-36.52
-40.12
-43.26
-47.03
-52.45
-59.94
-68.87
-77.54
-83.72
-85.34
-81.17
-71.23
-56.68
-39.45
-21.62
-4.94
9.32
20.39
27.80
31.30
30.92
27.13
21.00
14.14
8.31
4.94
4.64
7.08
11.12
15.35
18.56
20.21
20.36
19.48
18.05
16.26
14.00
10.99
7.00
2.07
-3.63
-9.85
-16.40
-23.04
-29.27
-34.15
-36.35
-34.50
-27.86
-16.72
-2.54
12.47
25.98
36.32
42.79
45.71
45.93
44.40
41.74
38.31
34.36
30.30
26.77
24.50
23.85
24.54
25.61
25.81
24.17
20.44
15.23
9.71
5.00
1.56
-1.00
-3.68
-7.63
-13.49
-21.00
-28.96
-35.62
-39.18
-38.44
-33.07
-23.65
-11.52
1.71
14.53
25.73
34.50
40.28
42.76
41.86
37.85
31.41
23.74
16.29
10.42
6.99
6.13
7.23
9.20
10.93
11.57
10.81
8.72
5.77
2.45
-0.72
-3.38
-5.43
-7.04
-8.74
-11.28
-15.34
-21.33
-28.95
-37.10
-44.00
-47.63
-46.35
-39.57
-28.07
-13.85
0.56
12.91
21.90
27.37
29.95
30.44
29.32
26.69
22.68
17.80
13.19
10.14
9.60
11.62
15.31
19.27
22.27
23.60
23.29
21.68
19.16
15.95
12.12
7.80
3.28
-1.24
-5.73
-10.67
-16.68
-24.19
-32.86
-41.40
-47.70
-49.66
-45.86
-36.39
-22.69
-7.08
8.15
21.42
32.18
40.43
46.32
49.65
50.04
47.36
42.24
36.15
31.03
28.45
29.00
32.04
36.08
39.55
41.48
41.69
40.65
38.99
37.28
35.67
34.11
32.49
30.69
28.64
26.38
23.96
21.60
19.57
18.09
17.19
16.58
15.75
14.28
12.07
9.48
7.16
5.70
5.21
5.30
5.19
4.18
1.97
-1.16
-4.51
-7.40
-9.51
-11.07
-12.67
-14.90
-18.01
-21.64
-25.07
-27.59
-28.86
-29.15
-29.19
-29.79
-31.44
-34.07
-37.12
-39.92
-42.01
-43.40
-44.53
-45.99
-48.27
-51.56
-55.82
-60.89
-66.54
-72.39
-77.70
-81.25
-81.50
-77.03
-67.03
-51.89
-33.32
-13.89
3.56
16.81
24.81
27.79
26.98
23.98
20.19
16.57
13.61
11.63
10.95
11.99
15.05
19.96
26.00
31.91
36.34
38.30
37.46
34.25
29.56
24.29
18.98
13.74
8.34
2.60
-3.40
-9.29
-14.59
-19.08
-22.95
-26.70
-30.76
-35.02
-38.63
-40.18
-38.26
-32.14
-22.22
-9.95
2.61
13.56
21.71
26.80
29.22
29.59
28.44
26.05
22.62
18.52
14.46
11.42
10.20
11.06
13.50
16.36
18.31
18.43
16.60
13.63
10.54
8.21
6.79
5.64
3.83
0.77
-3.36
-7.59
-10.87
-12.42
-12.08
-10.19
-7.13
-3.03
2.17
8.36
14.69
19.80
22.21
21.08
16.82
11.00
5.57
2.02
0.51
0.21
-0.10
-1.05
-2.31
-2.83
-1.74
1.05
4.22
6.01
5.06
1.27
-4.04
-8.90
-11.79
-12.35
-11.84
-12.09
-14.51
-19.30
-25.23
-30.48
-33.64
-34.50
-34.64
-36.30
-41.28
-49.64
-59.37
-67.08
-69.50
-64.88
-54.04
-39.67
-24.96
-12.19
-1.94
6.52
14.13
21.06
26.21
28.00
25.44
18.99
10.62
2.95
-1.88
-2.91
-0.72
3.21
7.34
10.64
12.76
13.87
14.26
14.27
13.86
12.86
11.05
8.30
4.71
0.58
-3.61
-7.39
-10.60
-13.47
-16.50
-20.23
-24.75
-29.55
-33.46
-34.99
-32.98
-27.01
-17.73
-6.61
4.54
14.20
21.49
26.28
28.96
30.03
29.85
28.52
26.11
22.83
19.19
15.95
13.89
13.42
14.45
16.37
18.35
19.67
20.03
19.64
18.96
18.41
18.11
17.78
17.03
15.55
13.45
11.24
9.56
8.87
9.18
9.98
10.56
10.34
9.19
7.50
5.89
4.84
4.42
4.18
3.61
2.29
0.26
-2.01
-4.01
-5.41
-6.33
-7.18
-8.46
-10.39
-12.83
-15.21
-16.97
-17.80
-17.87
-17.77
-18.22
-19.78
-22.52
-25.89
-29.13
-31.50
-32.75
-33.22
-33.66
-34.90
-37.51
-41.47
-46.42
-51.58
-56.12
-59.19
-59.95
-57.66
-51.88
-42.53
-30.18
-15.96
-1.50
11.50
21.70
28.41
31.70
32.34
31.33
29.58
27.61
25.50
23.14
20.52
17.86
15.78
14.89
15.51
17.45
19.97
22.16
23.26
22.96
21.57
19.56
17.36
15.01
12.18
8.38
3.40
-2.47
-8.56
-14.13
-18.70
-22.23
-25.01
-27.20
-28.50
-28.18
-25.31
-19.36
-10.63
-0.29
9.85
18.07
23.21
25.05
24.25
21.88
18.95
16.07
13.36
10.75
8.19
5.96
4.64
4.73
6.30
8.91
11.61
13.40
13.64
12.31
9.99
7.42
5.14
3.23
1.34
-0.91
-3.60
-6.24
-7.91
-7.77
-5.48
-1.47
3.08
6.74
8.40
7.71
5.23
2.03
-0.81
-2.70
-3.76
-4.59
-5.86
-7.93
-10.64
-13.46
-15.89
-17.72
-19.10
-20.32
-21.66
-23.04
-24.10
-24.52
-24.23
-23.51
-22.96
-23.15
-24.39
-26.47
-28.89
-31.14
-33.08
-35.06
-37.83
-42.13
-48.09
-54.90
-60.87
-63.87
-62.24
-55.40
-44.20
-30.50
-16.44
-3.66
6.97
15.38
21.68
25.84
27.59
26.75
23.59
19.03
14.42
11.03
9.60
10.09
11.83
13.99
15.83
16.98
17.34
16.91
15.64
13.39
10.08
5.73
0.57
-4.86
-10.11
-14.84
-19.10
-23.26
-27.75
-32.59
-37.15
-40.21
-40.48
-37.15
-30.28
-20.85
-10.19
0.46
10.22
18.57
24.89
28.57
29.02
26.19
20.84
14.51
8.94
5.46
4.44
5.35
7.19
9.04
10.41
11.30
11.80
12.01
11.58
10.08
7.18
2.89
-2.42
-8.21
-14.16
-20.18
-26.51
-33.18
-39.73
-45.02
-47.50
-45.78
-39.23
-28.28
-14.51
0.03
13.29
23.82
30.86
34.25
34.21
31.21
25.95
19.37
12.58
6.67
2.41
0.18
-0.03
1.57
4.68
8.94
13.75
18.28
21.46
22.38
20.57
16.24
10.20
3.41
-3.37
-9.90
-16.35
-23.05
-29.96
-36.38
-40.99
-42.35
-39.46
-32.23
-21.69
-9.59
2.12
12.04
19.57
24.89
28.45
30.56
31.13
29.88
26.71
22.13
17.30
13.57
12.04
12.90
15.38
18.12
19.74
19.47
17.36
14.02
10.17
6.20
1.96
-2.93
-8.77
-15.43
-22.40
-29.15
-35.46
-41.57
-47.87
-54.37
-60.25
-63.90
-63.43
-57.57
-46.42
-31.57
-15.64
-1.26
9.78
16.97
20.94
22.72
23.21
22.80
21.55
19.56
17.28
15.58
15.49
17.62
21.86
27.32
32.57
36.25
37.57
36.52
33.72
30.03
26.07
22.05
17.75
12.87
7.32
1.29
-4.90
-11.14
-17.61
-24.62
-32.14
-39.34
-44.57
-45.71
-41.18
-30.65
-15.41
1.98
18.59
32.19
41.80
47.72
50.91
52.25
52.11
50.39
46.99
42.23
37.08
33.04
31.18
31.97
34.72
38.01
40.25
40.47
38.54
35.12
30.85
26.04
20.53
13.99
6.55
-0.99
-7.47
-11.91
-14.52
-16.60
-19.94
-25.91
-34.44
-43.75
-51.19
-54.33
-52.41
-46.29
-37.89
-28.90
-19.91
-10.38
0.36
12.30
23.62
31.80
34.72
32.04
25.73
19.23
15.73
16.71
21.01
25.96
29.01
29.16
27.56
26.53
27.97
32.20
37.28
40.21
38.56
31.77
21.52
10.70
2.02
-3.23
-5.70
-7.13
-9.25
-12.98
-18.15
-24.07
-30.09
-35.82
-41.33
-46.42
-50.31
-51.77
-49.43
-42.55
-31.42
-17.36
-2.49
10.96
21.19
27.16
28.70
26.41
21.48
15.45
9.90
6.08
4.68
5.65
8.40
12.00
15.53
18.38
20.25
21.04
20.80
19.51
17.22
14.09
10.40
6.61
3.10
0.01
-2.72
-5.36
-8.02
-10.42
-11.80
-11.13
-7.53
-0.79
8.42
18.59
27.97
35.12
39.32
40.72
40.01
37.93
35.06
31.69
28.07
24.50
21.53
19.83
19.92
21.87
25.28
29.28
32.95
35.56
36.88
37.15
36.84
36.27
35.37
33.72
30.79
26.32
20.67
14.75
9.55
5.75
3.34
1.69
-0.01
-2.23
-4.96
-7.72
-10.00
-11.75
-13.49
-16.20
-20.84
-27.90
-37.14
-47.47
-57.14
-64.23
-67.03
-64.56
-56.74
-44.54
-29.68
-14.22
-0.04
11.48
19.56
23.97
24.93
22.91
18.75
13.57
8.62
5.06
3.63
4.44
6.96
10.35
13.76
16.73
19.15
21.13
22.69
23.51
23.09
20.95
17.01
11.75
6.06
0.83
-3.41
-6.74
-9.69
-12.92
-16.86
-21.51
-26.50
-31.25
-35.19
-37.76
-38.40
-36.51
-31.59
-23.39
-12.30
0.59
13.65
25.05
33.33
37.81
38.64
36.72
33.20
29.14
25.29
22.03
19.55
17.95
17.36
17.85
19.33
21.45
23.68
25.42
26.24
25.99
24.85
23.24
21.60
20.20
19.06
17.99
16.78
15.37
13.92
12.83
12.45
12.90
13.94
14.99
15.45
14.89
13.30
11.08
8.81
6.95
5.68
4.79
3.89
2.70
1.16
-0.51
-1.99
-3.13
-4.08
-5.21
-6.93
-9.43
-12.61
-16.07
-19.43
-22.55
-25.63
-29.07
-33.20
-37.98
-42.99
-47.57
-51.32
-54.30
-57.16
-60.86
-66.13
-72.96
-80.34
-86.37
-88.90
-86.18
-77.61
-63.93
-46.99
-29.14
-12.47
1.69
12.72
20.44
24.82
25.74
23.34
18.20
11.66
5.52
1.54
0.72
2.92
7.03
11.49
14.99
16.88
17.08
15.92
13.78
10.97
7.80
4.76
2.22
0.38
-1.14
-3.18
-6.72
-12.32
-19.75
-27.86
-35.09
-39.89
-41.33
-39.14
-33.70
-25.78
-16.36
-6.41
3.07
11.29
17.46
21.11
22.02
20.32
16.54
11.61
6.60
2.54
-0.00
-1.00
-0.90
-0.35
0.11
0.37
0.48
0.62
0.61
0.02
-1.63
-4.49
-8.37
-12.69
-16.96
-21.04
-25.18
-29.71
-34.47
-38.52
-40.36
-38.44
-32.01
-21.43
-8.29
5.28
17.31
26.47
32.21
34.60
34.00
30.96
26.03
19.90
13.42
7.51
2.90
0.07
-0.93
-0.39
1.11
2.89
4.31
4.90
4.38
2.77
0.30
-2.74
-6.03
-9.49
-13.32
-17.94
-23.86
-31.26
-39.68
-47.82
-53.77
-55.58
-52.06
-43.25
-30.58
-16.30
-2.73
8.50
16.82
22.49
26.01
27.66
27.33
24.81
20.26
14.61
9.38
6.16
5.84
8.21
11.94
15.22
16.55
15.40
12.33
8.41
4.67
1.44
-1.75
-5.75
-11.30
-18.56
-27.01
-35.79
-43.95
-50.65
-55.19
-56.77
-54.61
-48.13
-37.35
-23.16
-7.30
8.00
20.72
29.51
34.05
35.00
33.59
31.15
28.80
27.19
26.61
27.10
28.63
31.19
34.69
38.85
43.09
46.62
48.66
48.77
47.00
43.90
40.23
36.66
33.50
30.67
27.98
25.41
23.30
22.23
22.67
24.60
27.41
29.91
30.94
29.79
26.54
22.15
17.84
14.72
13.25
13.12
13.66
14.15
14.24
13.87
12.98
11.39
8.82
5.05
0.33
-4.59
-8.74
-11.29
-12.15
-11.89
-11.48
-11.83
-13.35
-15.94
-19.16
-22.64
-26.26
-30.15
-34.50
-39.42
-44.78
-50.28
-55.59
-60.30
-64.64
-69.13
-74.66
-82.06
-91.30
-100.95
-108.33
-110.28
-104.91
-92.34
-74.80
-55.57
-37.42
-21.53
-7.68
4.84
15.64
23.32
26.19
23.77
17.74
11.52
8.56
10.65
16.70
23.71
28.46
29.39
27.29
24.60
23.69
25.43
28.27
29.49
26.77
19.66
10.07
1.15
-4.39
-5.62
-4.03
-2.33
-2.96
-6.86
-13.27
-20.51
-27.05
-32.06
-35.62
-37.85
-38.43
-36.42
-30.86
-21.41
-8.91
4.97
17.95
28.17
34.59
37.15
36.50
33.65
29.70
25.75
22.64
20.96
20.93
22.24
24.27
26.24
27.59
28.13
28.04
27.63
27.03
26.05
24.25
21.17
16.64
10.91
4.55
-1.78
-7.54
-12.34
-15.77
-17.30
-16.30
-12.20
-4.88
5.10
16.45
27.53
36.74
43.01
46.05
46.30
44.66
41.97
38.93
35.88
33.02
30.60
29.00
28.64
29.69
31.90
34.53
36.58
37.23
36.14
33.59
30.35
27.17
24.39
21.85
18.96
15.20
10.42
5.07
-0.02
-4.04
-6.63
-8.16
-9.48
-11.50
-14.71
-18.86
-23.17
-26.76
-29.23
-30.87
-32.55
-35.37
-40.15
-47.00
-55.23
-63.42
-69.77
-72.39
-69.88
-61.59
-47.95
-30.37
-10.98
7.85
24.04
36.12
43.35
45.79
44.10
39.46
33.40
27.51
23.15
21.09
21.42
23.64
26.86
30.17
32.88
34.59
35.19
34.61
32.84
29.89
25.79
20.83
15.48
10.27
5.64
1.79
-1.40
-4.17
-6.78
-9.28
-11.48
-13.19
-14.50
-15.84
-17.94
-21.41
-26.30
-31.72
-35.99
-37.26
-34.15
-26.45
-15.23
-2.46
9.70
19.66
26.70
30.91
32.76
32.66
30.81
27.32
22.50
17.06
12.14
8.85
7.93
9.35
12.31
15.57
18.02
19.02
18.72
17.71
16.65
15.84
14.96
13.34
10.37
5.88
0.43
-4.86
-8.78
-10.41
-9.40
-5.97
-0.62
6.03
13.43
21.03
28.10
33.77
37.18
37.69
35.27
30.54
24.68
18.99
14.58
11.96
11.10
11.52
12.63
13.95
15.27
16.42
17.27
17.54
16.83
14.81
11.36
6.77
1.63
-3.27
-7.27
-10.13
-12.11
-13.79
-15.87
-18.73
-22.18
-25.68
-28.52
-30.30
-31.13
-31.60
-32.53
-34.58
-38.05
-42.97
-49.14
-56.20
-63.50
-69.88
-73.70
-73.19
-67.00
-55.00
-38.54
-20.13
-2.72
11.26
20.56
25.21
26.16
24.62
21.61
17.74
13.37
8.98
5.23
3.04
3.11
5.64
9.99
14.87
18.87
21.02
21.10
19.61
17.28
14.62
11.68
8.18
3.90
-0.89
-5.54
-9.31
-11.85
-13.40
-14.60
-16.24
-18.75
-22.10
-25.93
-29.74
-33.02
-35.17
-35.43
-32.99
-27.28
-18.31
-6.97
5.15
16.04
24.08
28.42
29.22
27.40
24.23
20.73
17.48
14.49
11.57
8.75
6.42
5.24
5.80
8.11
11.61
15.20
17.74
18.59
17.75
15.68
13.00
10.12
7.27
4.43
1.62
-1.14
-3.87
-6.84
-10.43
-14.99
-20.49
-26.38
-31.59
-34.86
-35.16
-32.10
-25.96
-17.60
-8.06
1.68
10.84
18.75
24.82
28.47
29.36
27.55
23.67
18.85
14.33
11.12
9.59
9.48
10.16
10.93
11.43
11.70
11.99
12.48
12.98
12.95
11.70
8.76
4.27
-1.07
-6.29
-10.56
-13.62
-15.79
-17.82
-20.32
-23.56
-27.39
-31.49
-35.63
-39.73
-43.73
-47.17
-49.07
-48.08
-43.04
-33.66
-20.81
-6.48
6.99
17.66
24.52
27.63
27.71
25.65
22.14
17.66
12.64
7.72
3.71
1.46
1.47
3.69
7.41
11.57
15.01
16.89
16.87
15.18
12.38
9.14
5.86
2.67
-0.56
-4.04
-7.77
-11.53
-15.02
-18.09
-21.02
-24.39
-28.88
-34.68
-41.19
-46.98
-50.21
-49.32
-43.68
-33.87
-21.45
-8.41
3.54
13.40
20.85
25.99
29.03
30.00
28.89
25.91
21.71
17.43
14.33
13.38
14.80
18.00
21.82
25.05
27.01
27.79
27.95
28.17
28.63
28.92
28.28
26.26
22.99
19.33
16.07
13.74
12.20
10.91
9.48
8.06
7.18
7.38
8.37
9.29
9.00
6.93
3.59
0.40
-1.15
-0.34
2.10
4.48
5.07
3.11
-0.76
-4.90
-7.65
-8.15
-7.20
-6.41
-7.33
-10.49
-14.99
-19.08
-21.23
-21.04
-19.87
-19.83
-22.59
-28.35
-35.52
-41.58
-44.42
-43.41
-40.02
-36.77
-35.95
-38.50
-43.73
-49.90
-55.37
-59.22
-61.77
-63.54
-64.43
-63.29
-58.20
-47.66
-31.61
-11.93
7.82
23.93
33.86
37.13
35.22
30.56
25.42
21.31
18.53
16.88
16.01
15.87
16.58
18.26
20.76
23.79
26.75
29.06
30.26
30.06
28.45
25.60
21.91
17.93
14.01
10.24
6.40
2.08
-3.06
-9.12
-15.81
-22.61
-28.90
-34.16
-37.95
-39.85
-39.42
-36.27
-30.23
-21.53
-10.93
0.33
10.79
19.10
24.39
26.40
25.49
22.47
18.23
13.59
9.09
5.05
1.70
-0.74
-2.01
-1.82
-0.11
2.85
6.44
9.72
11.81
12.09
10.49
7.51
3.97
0.58
-2.32
-4.93
-7.84
-11.64
-16.56
-22.30
-27.99
-32.45
-34.50
-33.31
-28.50
-20.31
-9.52
2.70
14.96
25.95
34.57
40.16
42.63
42.38
40.28
37.42
34.79
32.86
31.44
29.68
26.55
21.30
13.96
5.44
-2.84
-9.59
-14.17
-16.80
-18.30
-19.63
-21.34
-23.46
-25.71
-27.86
-30.13
-33.15
-37.62
-43.95
-51.69
-59.48
-65.42
-67.70
-65.26
-58.25
-47.87
-35.88
-23.95
-13.09
-3.71
4.14
10.29
14.23
15.36
13.38
8.77
2.90
-2.40
-5.48
-5.59
-3.13
0.66
4.20
6.35
6.72
5.63
3.71
1.44
-1.11
-4.26
-8.34
-13.47
-19.37
-25.57
-31.60
-37.16
-42.06
-45.94
-48.06
-47.46
-43.08
-34.50
-22.23
-7.83
6.52
18.70
27.29
31.95
33.30
32.45
30.48
28.07
25.51
22.97
20.66
19.12
18.95
20.52
23.70
27.77
31.71
34.54
35.75
35.35
33.80
31.66
29.28
26.72
23.85
20.61
17.24
14.37
12.90
13.54
16.54
21.35
26.78
31.36
33.87
33.79
31.42
27.56
23.15
18.86
14.95
11.49
8.48
6.09
4.57
4.01
4.20
4.56
4.47
3.43
1.38
-1.33
-4.16
-6.70
-8.84
-10.93
-13.51
-17.00
-21.46
-26.50
-31.36
-35.40
-38.41
-40.91
-43.93
-48.65
-55.73
-64.94
-74.91
-83.44
-88.14
-87.12
-79.60
-66.06
-48.19
-28.28
-8.75
8.43
21.97
31.27
36.30
37.56
35.88
32.35
28.15
24.32
21.57
20.25
20.40
21.81
24.14
26.97
29.82
32.12
33.37
33.16
31.31
27.92
23.32
18.02
12.53
7.31
2.60
-1.57
-5.47
-9.40
-13.73
-18.54
-23.73
-28.75
-32.71
-34.49
-33.02
-27.63
-18.50
-6.73
5.81
17.07
25.45
30.25
31.80
31.05
29.07
26.66
24.14
21.68
19.50
18.10
18.06
19.82
23.22
27.50
31.39
33.71
33.88
32.08
29.12
25.97
23.20
20.77
18.07
14.39
9.46
3.67
-1.93
-6.10
-7.80
-6.52
-2.37
4.03
11.78
19.89
27.32
33.16
36.76
37.91
36.85
34.23
30.81
27.27
23.94
20.94
18.35
16.41
15.48
15.85
17.41
19.57
21.37
21.93
20.88
18.58
15.85
13.53
11.91
10.60
8.76
5.62
0.97
-4.63
-10.09
-14.38
-17.05
-18.42
-19.47
-21.32
-24.79
-30.06
-36.59
-43.25
-48.68
-51.44
-50.42
-44.95
-34.99
-21.12
-4.52
13.10
29.73
43.28
51.97
54.76
51.67
43.86
33.40
22.64
13.54
7.23
3.84
2.75
3.08
4.09
5.38
6.76
8.04
8.85
8.66
7.01
3.81
-0.45
-4.86
-8.43
-10.58
-11.32
-11.24
-11.14
-11.56
-12.68
-14.38
-16.51
-19.16
-22.50
-26.45
-30.41
-33.24
-33.61
-30.61
-24.29
-15.75
-6.75
1.00
6.40
9.21
9.88
9.17
7.65
5.65
3.24
0.54
-2.07
-3.96
-4.42
-3.06
-0.07
3.71
7.03
8.76
8.29
5.81
2.16
-1.66
-5.02
-7.84
-10.67
-14.18
-18.80
-24.48
-30.68
-36.68
-41.80
-45.52
-47.47
-47.31
-44.71
-39.38
-31.21
-20.65
-8.60
3.62
14.56
23.14
28.97
32.26
33.67
33.59
32.21
29.60
26.09
22.61
20.53
21.04
24.43
29.50
34.09
36.03
34.22
29.35
23.52
19.21
18.09
19.96
23.19
25.57
25.43
22.55
17.96
13.31
9.86
7.49
5.29
2.15
-2.34
-7.41
-11.44
-12.89
-11.03
-6.66
-1.38
3.16
6.07
7.53
8.34
9.05
9.47
8.37
4.43
-2.79
-12.05
-20.62
-25.38
-24.34
-17.64
-7.85
1.34
6.68
6.61
1.54
-6.92
-17.17
-28.20
-39.96
-52.55
-65.62
-78.25
-89.25
-97.88
-104.20
-108.73
-112.14
-114.44
-114.81
-112.00
-104.82
-92.79
-76.26
-56.21
-34.14
-11.67
9.46
27.54
41.29
50.07
54.18
54.82
53.60
51.92
50.65
49.90
49.41
48.86
48.18
47.60
47.38
47.57
48.01
48.32
48.19
47.49
46.16
44.07
40.89
36.10
29.27
20.28
9.56
-2.05
-13.45
-23.54
-31.46
-36.53
-38.25
-36.38
-30.86
-21.99
-10.46
2.76
16.54
29.67
41.13
50.16
56.41
59.88
60.80
59.33
55.38
48.63
38.92
26.59
12.92
-0.11
-10.37
-16.27
-17.51
-15.16
-11.15
-7.59
-5.90
-6.61
-9.33
-13.22
-17.55
-22.01
-26.63
-31.87
-38.14
-45.60
-53.93
-62.19
-68.99
-72.73
-71.96
-65.81
-54.08
-37.41
-17.13
4.92
26.51
45.25
58.96
65.98
65.78
59.12
48.11
35.69
24.74
17.30
13.98
14.04
15.98
18.20
19.68
20.16
19.93
19.38
18.67
17.62
15.97
13.66
11.07
8.86
7.64
7.56
8.13
8.30
6.85
2.89
-3.73
-12.27
-21.29
-29.02
-33.87
-34.86
-31.82
-25.36
-16.59
-6.74
3.06
11.99
19.40
24.79
27.80
28.23
26.28
22.62
18.22
14.10
10.93
8.88
7.70
6.95
6.38
6.05
6.17
6.85
7.81
8.41
7.88
5.75
2.15
-2.26
-6.59
-10.18
-12.85
-15.01
-17.37
-20.50
-24.60
-29.32
-33.89
-37.31
-38.67
-37.34
-33.14
-26.40
-17.81
-8.35
0.91
9.01
15.20
18.92
20.02
18.58
15.11
10.41
5.42
1.05
-2.12
-3.86
-4.38
-4.10
-3.48
-2.85
-2.37
-2.11
-2.14
-2.60
-3.57
-5.01
-6.66
-8.07
-8.88
-9.09
-9.20
-10.03
-12.43
-16.75
-22.54
-28.57
-33.17
-34.81
-32.61
-26.63
-17.80
-7.54
2.77
12.19
20.25
26.76
31.52
34.10
33.98
30.82
25.02
17.60
10.09
3.90
-0.12
-1.99
-2.28
-1.83
-1.31
-1.16
-1.58
-2.61
-4.16
-5.93
-7.40
-8.07
-7.77
-6.93
-6.55
-7.81
-11.54
-17.76
-25.53
-33.27
-39.22
-41.87
-40.34
-34.51
-25.01
-13.11
-0.39
11.44
21.07
27.57
30.68
30.63
28.03
23.69
18.56
13.51
9.38
6.55
5.08
4.72
5.10
5.85
6.76
7.60
8.10
7.78
6.19
3.12
-1.21
-6.22
-11.10
-15.38
-19.02
-22.60
-26.86
-32.34
-38.86
-45.47
-50.57
-52.53
-50.07
-42.87
-31.70
-18.11
-4.09
8.53
18.51
25.33
29.21
30.67
30.34
28.65
25.94
22.43
18.55
14.90
12.23
11.17
11.91
14.05
16.63
18.47
18.69
16.99
13.81
10.03
6.50
3.64
1.25
-1.25
-4.49
-8.80
-14.04
-19.71
-25.15
-29.71
-32.86
-34.09
-32.89
-28.86
-21.84
-12.18
-0.76
11.00
21.47
29.17
33.13
33.23
30.09
24.95
19.19
13.89
9.74
6.90
5.31
4.90
5.65
7.51
10.16
12.93
14.88
15.14
13.27
9.50
4.61
-0.42
-4.90
-8.63
-12.01
-15.70
-20.26
-25.77
-31.71
-37.01
-40.40
-40.84
-37.83
-31.52
-22.65
-12.31
-1.54
8.75
17.88
25.32
30.55
33.10
32.70
29.53
24.33
18.31
12.83
8.93
7.02
6.83
7.59
8.45
8.77
8.30
7.12
5.39
3.20
0.55
-2.52
-5.81
-8.93
-11.50
-13.46
-15.25
-17.62
-21.25
-26.16
-31.41
-35.10
-35.29
-30.69
-21.39
-8.90
4.48
16.53
25.84
31.99
34.98
34.99
32.09
26.41
18.68
10.31
3.13
-1.34
-2.85
-2.30
-1.30
-1.21
-2.36
-3.98
-4.86
-4.12
-1.99
0.45
1.80
1.12
-1.66
-5.90
-10.74
-15.40
-19.80
-23.96
-27.91
-31.22
-33.03
-32.17
-27.80
-19.65
-8.90
2.53
12.39
19.01
21.92
21.95
20.50
18.80
16.98
14.37
10.19
4.51
-1.42
-5.49
-6.00
-2.65
2.92
8.06
10.45
9.31
5.80
2.19
0.49
1.32
3.20
3.75
0.98
-5.33
-13.38
-20.14
-22.86
-20.28
-13.46
-4.83
3.07
8.85
12.70
15.86
19.54
24.07
28.41
30.96
30.40
26.57
20.47
13.86
8.36
5.02
3.82
4.06
4.80
5.19
4.73
3.32
1.14
-1.39
-3.99
-6.50
-9.05
-11.96
-15.52
-19.86
-24.89
-30.25
-35.48
-40.09
-43.54
-45.21
-44.40
-40.53
-33.35
-23.15
-10.82
2.23
14.43
24.33
30.91
33.73
33.00
29.53
24.49
19.13
14.50
11.12
9.00
7.78
7.02
6.43
5.93
5.50
5.08
4.37
3.04
0.87
-2.08
-5.45
-8.84
-12.12
-15.56
-19.73
-25.06
-31.48
-38.09
-43.33
-45.48
-43.34
-36.68
-26.43
-14.23
-1.96
8.91
17.57
23.74
27.39
28.45
26.83
22.66
16.51
9.56
3.37
-0.72
-2.03
-0.85
1.74
4.43
6.20
6.77
6.62
6.46
6.77
7.41
7.59
6.33
2.84
-2.91
-10.07
-17.16
-22.49
-24.63
-22.89
-17.32
-8.76
1.56
12.32
22.33
30.66
36.61
39.63
39.44
36.00
29.74
21.61
12.89
4.89
-1.34
-5.32
-7.04
-6.85
-5.24
-2.57
0.76
4.30
7.50
9.63
10.03
8.26
4.28
-1.50
-8.43
-15.80
-23.00
-29.52
-34.79
-38.04
-38.42
-35.14
-27.90
-17.27
-4.70
7.74
17.99
24.61
27.10
26.03
22.52
17.78
12.68
7.66
2.85
-1.64
-5.52
-8.37
-9.87
-10.09
-9.53
-9.00
-9.33
-11.00
-13.97
-17.84
-22.16
-26.75
-31.80
-37.61
-44.16
-50.65
-55.50
-56.70
-52.61
-42.71
-27.96
-10.63
6.39
20.54
30.22
35.04
35.55
32.73
27.65
21.20
14.22
7.52
1.95
-1.73
-3.21
-2.70
-0.99
0.88
1.93
1.59
-0.20
-3.06
-6.56
-10.50
-15.03
-20.66
-27.77
-36.23
-44.96
-52.11
-55.49
-53.42
-45.37
-32.27
-16.23
0.12
14.52
25.47
32.45
35.60
35.40
32.43
27.42
21.31
15.30
10.66
8.36
8.68
11.15
14.69
18.06
20.32
21.05
20.40
18.74
16.36
13.19
8.83
2.76
-5.32
-15.10
-25.49
-34.82
-41.16
-42.94
-39.33
-30.48
-17.44
-1.73
14.83
30.57
44.02
53.96
59.63
60.87
58.23
52.91
46.41
40.25
35.55
32.84
32.18
33.31
35.72
38.76
41.61
43.46
43.79
42.55
40.29
37.92
36.28
35.73
36.00
36.45
36.46
35.80
34.68
33.51
32.45
31.25
29.12
25.35
19.71
12.85
6.04
0.69
-2.36
-3.21
-2.95
-3.02
-4.47
-7.45
-11.26
-14.72
-17.00
-18.01
-18.50
-19.57
-22.07
-26.05
-30.90
-35.61
-39.38
-41.97
-43.72
-45.34
-47.58
-51.02
-56.11
-63.00
-71.33
-79.91
-86.72
-89.21
-85.11
-73.47
-55.20
-32.99
-10.35
9.53
24.65
34.45
39.37
40.18
37.54
32.10
24.82
17.20
11.12
8.29
9.45
14.05
20.30
26.00
29.34
29.55
27.03
22.90
18.35
14.12
10.30
6.54
2.44
-2.18
-7.22
-12.45
-17.65
-22.55
-26.79
-29.61
-30.00
-26.87
-19.68
-8.84
4.24
17.35
28.23
35.25
37.89
36.69
32.86
27.72
22.23
16.91
12.04
7.94
5.09
4.07
5.19
8.20
12.15
15.74
17.78
17.63
15.41
11.90
8.12
4.83
2.19
-0.21
-3.23
-7.72
-14.08
-22.03
-30.48
-37.82
-42.27
-42.42
-37.72
-28.62
-16.50
-3.22
9.39
19.86
27.34
31.46
32.23
29.92
25.10
18.67
11.83
5.90
1.92
0.38
1.11
3.38
6.27
8.99
10.98
12.01
11.92
10.65
8.15
4.62
0.46
-3.72
-7.38
-10.38
-13.12
-16.44
-21.16
-27.46
-34.46
-40.23
-42.52
-39.55
-30.92
-17.86
-2.76
11.77
23.71
32.15
36.78
37.71
35.07
29.09
20.62
11.28
3.21
-1.70
-2.82
-0.92
2.27
4.98
6.33
6.52
6.44
6.84
7.56
7.73
6.36
3.03
-1.73
-6.72
-10.92
-14.06
-17.37
-22.52
-30.57
-40.95
-51.04
-57.13
-56.05
-46.62
-30.84
-12.69
3.46
14.82
21.12
24.14
26.13
28.44
30.29
29.92
25.87
18.44
9.99
3.92
2.84
7.26
14.80
21.73
24.71
22.46
16.24
8.89
3.16
0.28
-0.74
-2.10
-5.81
-12.49
-21.12
-29.79
-36.91
-41.80
-45.03
-47.35
-48.87
-48.67
-45.23
-37.27
-24.76
-8.95
7.67
22.54
33.70
40.31
42.58
41.40
37.94
33.45
28.97
25.27
22.84
21.77
21.81
22.46
23.18
23.63
23.63
23.20
22.28
20.79
18.48
15.16
10.80
5.69
0.21
-5.22
-10.21
-14.37
-17.20
-18.00
-16.05
-10.88
-2.62
7.78
18.74
28.44
35.32
38.54
38.11
34.75
29.61
23.83
18.30
13.55
9.82
7.28
6.01
6.11
7.50
9.79
12.18
13.74
13.70
11.81
8.44
4.48
0.85
-1.96
-4.07
-6.12
-8.85
-12.62
-17.24
-21.94
-25.85
-28.38
-29.56
-30.03
-30.78
-32.81
-36.76
-42.61
-49.74
-56.91
-62.52
-64.92
-62.73
-55.26
-42.78
-26.47
-8.36
9.20
23.96
34.31
39.55
39.93
36.47
30.75
24.42
18.91
15.22
13.76
14.45
16.72
19.84
23.07
25.80
27.69
28.57
28.33
26.94
24.43
20.90
16.65
12.05
7.50
3.28
-0.50
-3.86
-6.85
-9.57
-12.07
-14.54
-17.35
-20.98
-25.75
-31.44
-37.10
-41.07
-41.49
-37.05
-27.61
-14.46
0.00
13.19
23.13
29.05
31.46
31.47
30.19
28.28
25.94
23.26
20.52
18.42
17.88
19.54
23.35
28.46
33.49
37.04
38.24
37.03
34.11
30.44
26.80
23.41
19.98
16.01
11.28
6.16
1.54
-1.52
-2.26
-0.65
2.58
6.33
9.52
11.56
12.41
12.41
11.97
11.27
10.25
8.72
6.60
4.08
1.66
-0.09
-0.85
-0.64
0.06
0.62
0.44
-0.72
-2.69
-5.06
-7.42
-9.57
-11.61
-13.77
-16.25
-18.99
-21.72
-24.21
-26.35
-28.32
-30.49
-33.11
-36.22
-39.51
-42.44
-44.61
-45.88
-46.68
-47.76
-49.97
-53.79
-58.97
-64.41
-68.37
-69.07
-65.22
-56.55
-43.84
-28.69
-12.94
1.80
14.40
24.17
30.75
33.94
33.79
30.65
25.32
18.93
12.68
7.62
4.39
3.18
3.85
5.98
9.05
12.48
15.63
17.91
18.82
18.07
15.68
11.98
7.55
3.10
-0.78
-3.86
-6.35
-8.91
-12.39
-17.40
-23.98
-31.52
-38.71
-43.99
-45.96
-43.80
-37.38
-27.43
-15.24
-2.52
9.04
18.05
23.78
26.23
26.08
24.25
21.56
18.41
14.86
10.90
6.77
3.14
0.87
0.50
1.96
4.35
6.45
7.14
6.07
3.61
0.63
-2.13
-4.39
-6.66
-9.73
-14.24
-20.30
-27.46
-34.82
-41.50
-46.61
-49.50
-49.55
-46.18
-39.07
-28.45
-15.24
-1.03
12.35
23.30
30.86
34.84
35.54
33.47
29.06
22.87
15.64
8.44
2.51
-1.16
-2.14
-0.88
1.54
3.89
5.31
5.57
4.97
4.01
3.00
1.82
0.18
-2.24
-5.41
-9.04
-12.78
-16.60
-20.91
-26.28
-32.92
-40.22
-46.54
-49.70
-47.84
-40.29
-28.02
-13.29
1.10
12.89
20.95
25.33
26.84
26.34
24.40
21.21
16.93
12.12
7.74
5.00
4.73
7.03
11.01
15.15
17.93
18.44
16.76
13.74
10.48
7.70
5.39
2.91
-0.52
-5.33
-11.37
-18.01
-24.58
-30.76
-36.55
-41.89
-46.32
-48.69
-47.56
-41.79
-31.32
-17.43
-2.42
11.16
21.33
27.26
29.32
28.62
26.39
23.58
20.69
17.92
15.47
13.73
13.26
14.54
17.62
21.90
26.26
29.44
30.45
29.07
25.81
21.61
17.35
13.51
9.99
6.32
2.06
-3.05
-8.93
-15.36
-22.06
-28.74
-35.00
-40.00
-42.53
-41.26
-35.22
-24.42
-10.07
5.57
19.85
30.48
36.24
37.15
34.34
29.42
23.90
18.72
14.20
10.33
7.13
4.92
4.32
5.63
8.68
12.50
15.58
16.62
15.13
11.64
7.47
3.74
1.06
-0.74
-2.25
-3.78
-5.15
-5.96
-6.06
-6.40
-8.38
-13.26
-21.02
-29.79
-36.41
-37.87
-32.75
-22.23
-9.32
2.57
11.20
16.39
19.54
22.39
25.84
28.89
29.77
27.01
20.69
12.71
5.97
2.75
3.69
7.04
10.09
10.65
8.28
4.61
2.16
2.84
6.76
11.79
14.96
14.04
8.66
0.44
-8.09
-14.98
-19.73
-23.47
-27.65
-32.85
-38.09
-41.14
-39.75
-32.89
-21.28
-7.30
6.24
17.24
24.91
29.69
32.61
34.53
35.89
36.50
36.11
34.68
32.54
30.30
28.53
27.51
27.28
27.51
27.76
27.61
26.78
25.21
23.07
20.81
19.04
18.32
18.95
20.79
23.29
25.67
27.22
27.60
26.89
25.45
23.66
21.71
19.54
16.97
14.01
10.94
8.32
6.66
6.09
6.22
6.15
4.94
2.01
-2.55
-7.91
-13.08
-17.28
-20.39
-23.00
-26.01
-30.12
-35.42
-41.29
-46.72
-50.89
-53.46
-54.80
-55.70
-57.14
-59.86
-64.29
-70.49
-78.20
-86.77
-95.04
-101.43
-104.10
-101.49
-92.74
-78.19
-59.35
-38.54
-18.41
-1.15
11.84
20.14
24.17
24.85
23.28
20.46
17.20
14.24
12.18
11.57
12.77
15.69
19.70
23.75
26.63
27.44
25.88
22.37
17.87
13.32
9.31
5.85
2.43
-1.55
-6.58
-12.70
-19.55
-26.49
-32.79
-37.62
-40.19
-39.75
-35.73
-27.99
-16.95
-3.63
10.48
23.68
34.40
41.51
44.50
43.51
39.35
33.21
26.39
20.02
14.89
11.38
9.56
9.31
10.43
12.55
15.16
17.54
18.99
19.01
17.52
14.82
11.52
8.14
4.86
1.37
-2.98
-8.85
-16.46
-25.36
-34.26
-41.41
-45.07
-44.05
-38.16
-28.22
-15.76
-2.47
10.25
21.47
30.64
37.26
40.80
40.85
37.39
31.16
23.60
16.52
11.45
9.10
9.26
10.97
13.06
14.64
15.29
15.07
14.25
13.08
11.60
9.65
7.01
3.49
-0.90
-6.09
-12.00
-18.63
-25.98
-33.83
-41.45
-47.56
-50.45
-48.65
-41.50
-29.60
-14.79
0.40
13.61
23.36
29.34
32.07
32.36
30.80
27.63
22.96
17.20
11.29
6.49
3.92
3.93
5.93
8.59
10.45
10.56
8.85
6.08
3.26
1.11
-0.31
-1.61
-3.63
-7.04
-11.98
-18.03
-24.46
-30.44
-35.28
-38.40
-39.18
-37.06
-31.56
-22.69
-11.12
1.68
13.85
23.57
29.69
31.96
30.95
27.65
23.12
18.18
13.43
9.33
6.37
4.89
4.95
6.22
8.00
9.49
10.15
9.84
8.87
7.65
6.39
4.83
2.32
-1.87
-8.13
-16.19
-24.92
-32.68
-37.60
-38.42
-34.58
-26.58
-15.61
-3.27
8.96
19.85
28.62
34.70
37.82
38.00
35.63
31.56
26.96
22.96
20.42
19.45
19.69
20.51
21.38
22.05
22.54
22.86
22.82
21.92
19.61
15.63
10.18
3.92
-2.25
-7.63
-11.91
-15.44
-18.89
-23.05
-28.45
-35.07
-42.20
-48.48
-52.21
-51.86
-46.57
-36.52
-22.99
-8.06
6.04
17.52
25.50
29.95
31.44
30.72
28.42
24.97
20.79
16.45
12.73
10.47
10.19
11.88
14.92
18.22
20.76
21.84
21.38
19.86
17.86
15.84
13.84
11.55
8.64
5.00
0.89
-3.17
-6.78
-9.89
-13.00
-16.78
-21.62
-27.11
-31.93
-34.19
-32.21
-25.32
-14.24
-0.91
12.26
23.26
31.06
35.77
38.12
38.89
38.51
37.03
34.48
31.17
27.94
25.86
25.73
27.72
31.14
34.76
37.38
38.36
37.82
36.54
35.32
34.59
34.17
33.41
31.80
29.31
26.59
24.69
24.53
26.34
29.55
32.99
35.45
36.22
35.34
33.44
31.30
29.41
27.71
25.72
22.90
18.98
14.29
9.64
5.96
3.95
3.78
5.04
6.99
8.85
10.12
10.60
10.32
9.36
7.76
5.46
2.49
-0.93
-4.42
-7.56
-9.99
-11.60
-12.55
-13.16
-13.73
-14.52
-15.68
-17.38
-19.83
-23.09
-27.06
-31.33
-35.24
-38.23
-40.02
-40.93
-41.82
-43.84
-47.97
-54.56
-63.02
-71.74
-78.31
-80.31
-75.91
-64.70
-47.84
-27.78
-7.49
10.50
24.81
34.83
40.70
42.72
41.21
36.76
30.51
24.13
19.39
17.24
17.59
19.49
21.68
23.44
24.93
26.78
29.41
32.22
33.79
32.49
27.42
19.03
9.01
-0.62
-8.26
-13.78
-17.90
-21.69
-25.65
-29.39
-31.97
-32.76
-32.03
-31.52
-33.14
-37.81
-44.52
-50.26
-51.38
-45.44
-32.55
-15.77
0.43
12.21
18.00
18.91
17.62
16.69
17.26
18.58
19.00
17.35
13.73
9.60
6.87
6.82
9.61
13.97
18.12
20.51
20.41
18.07
14.37
10.30
6.69
3.79
1.38
-1.05
-4.05
-8.04
-13.11
-19.14
-25.71
-32.36
-38.51
-43.49
-46.56
-46.92
-43.99
-37.66
-28.49
-17.73
-7.08
1.79
7.65
10.05
9.38
6.60
3.04
-0.09
-1.90
-1.99
-0.42
2.38
5.77
9.08
11.70
13.17
13.14
11.54
8.43
4.18
-0.64
-5.29
-9.08
-11.60
-12.91
-13.52
-14.21
-15.68
-18.33
-22.12
-26.60
-31.12
-35.01
-37.56
-38.12
-36.09
-31.05
-23.00
-12.46
-0.57
11.09
20.90
27.53
30.40
29.69
26.30
21.48
16.43
12.00
8.59
6.25
4.96
4.69
5.54
7.57
10.60
14.04
17.08
18.78
18.47
15.96
11.64
6.38
1.21
-3.04
-6.04
-8.02
-9.66
-11.79
-15.03
-19.40
-24.28
-28.56
-30.82
-29.86
-24.99
-16.37
-5.00
7.45
19.09
28.17
33.51
34.64
31.89
26.25
19.12
12.12
6.68
3.68
3.25
4.80
7.28
9.59
10.95
11.06
9.90
7.60
4.31
0.18
-4.51
-9.28
-13.54
-16.77
-18.83
-20.00
-20.90
-22.32
-24.78
-28.35
-32.42
-35.81
-37.13
-35.29
-29.92
-21.60
-11.67
-1.65
7.22
14.36
19.77
23.71
26.25
27.24
26.47
23.95
20.24
16.37
13.44
12.14
12.49
13.79
15.00
15.27
14.29
12.44
10.48
9.10
8.57
8.51
8.18
6.70
3.65
-0.81
-6.05
-11.27
-15.90
-19.82
-23.33
-26.83
-30.67
-34.92
-39.54
-44.43
-49.54
-54.56
-58.79
-61.06
-59.93
-54.22
-43.67
-29.19
-12.80
2.96
15.76
24.18
27.96
27.87
25.21
21.35
17.28
13.59
10.56
8.39
7.32
7.61
9.35
12.26
15.61
18.52
20.15
20.11
18.48
15.74
12.41
8.84
5.04
0.85
-3.87
-8.97
-14.07
-18.57
-22.06
-24.53
-26.54
-28.95
-32.53
-37.40
-42.73
-46.72
-47.36
-43.13
-33.77
-20.48
-5.45
8.98
21.20
30.56
37.25
41.63
43.77
43.44
40.50
35.33
29.03
23.03
18.61
16.38
16.12
17.16
18.81
20.66
22.51
24.13
25.06
24.69
22.51
18.49
13.15
7.35
1.86
-3.02
-7.45
-11.93
-16.82
-22.28
-28.07
-33.88
-39.37
-44.41
-48.73
-51.71
-52.36
-49.64
-42.85
-32.29
-19.32
-6.21
4.67
11.67
14.34
13.38
10.30
6.56
3.14
0.25
-2.36
-4.93
-7.30
-8.93
-9.07
-7.30
-3.76
0.70
4.86
7.65
8.56
7.64
5.49
2.90
0.59
-1.05
-2.02
-2.54
-3.12
-4.41
-7.02
-11.39
-17.44
-24.53
-31.39
-36.43
-38.17
-35.76
-29.19
-19.30
-7.45
4.80
16.04
25.17
31.48
34.57
34.41
31.33
26.05
19.59
13.07
7.39
3.15
0.46
-0.83
-0.97
-0.14
1.60
4.12
7.06
9.82
11.63
11.88
10.40
7.53
3.97
0.35
-3.03
-6.45
-10.49
-15.76
-22.40
-29.87
-36.96
-42.14
-44.02
-41.75
-35.36
-25.67
-14.01
-1.78
9.78
19.79
27.64
32.88
35.21
34.53
31.09
25.66
19.38
13.54
9.21
6.91
6.58
7.58
9.05
10.21
10.61
10.11
8.80
6.79
4.09
0.65
-3.48
-8.07
-12.73
-17.09
-21.08
-24.96
-29.28
-34.50
-40.58
-46.75
-51.57
-53.42
-51.02
-44.01
-33.00
-19.47
-5.17
8.30
19.81
28.74
34.79
37.87
37.96
35.42
30.97
25.78
21.20
18.31
17.58
18.75
20.97
23.23
24.75
25.36
25.16
24.49
23.42
21.68
18.88
14.83
9.76
4.23
-1.37
-7.00
-13.01
-19.88
-27.61
-35.55
-42.52
-47.20
-48.91
-47.54
-43.42
-36.89
-27.99
-16.61
-2.97
11.94
26.07
36.99
42.68
42.43
37.20
29.22
21.13
15.16
12.05
11.50
12.56
14.37
16.62
19.49
23.19
27.58
31.53
33.63
32.74
28.71
22.62
16.37
11.73
9.64
9.22
8.64
5.92
-0.07
-8.94
-19.02
-28.20
-34.90
-38.87
-40.67
-40.92
-39.56
-35.53
-27.55
-15.15
0.52
16.47
29.17
35.96
36.30
31.97
25.95
21.06
18.81
18.88
20.01
20.93
21.19
21.16
21.55
22.74
24.59
26.19
26.47
24.68
20.65
14.88
8.28
1.86
-3.53
-7.61
-10.62
-13.23
-16.27
-20.39
-25.87
-32.36
-38.91
-44.14
-46.59
-45.08
-39.13
-29.12
-16.26
-2.19
11.43
23.25
32.44
38.55
41.33
40.77
37.16
31.28
24.43
18.19
13.93
12.34
13.20
15.62
18.47
20.92
22.75
24.13
25.29
26.10
25.98
24.23
20.41
14.81
8.37
2.37
-2.24
-5.18
-7.01
-8.73
-11.36
-15.49
-21.05
-27.45
-33.71
-38.66
-41.19
-40.44
-35.99
-28.07
-17.47
-5.60
5.95
15.65
22.39
25.62
25.46
22.56
18.04
13.13
8.92
6.15
5.05
5.51
7.16
9.61
12.57
15.73
18.72
21.02
22.01
21.24
18.54
14.20
8.93
3.62
-1.05
-4.74
-7.63
-10.14
-12.79
-15.96
-19.69
-23.78
-27.80
-31.19
-33.26
-33.23
-30.36
-24.22
-14.84
-2.98
9.95
22.19
32.00
38.16
40.31
38.88
35.02
30.07
25.32
21.68
19.58
19.11
20.12
22.36
25.59
29.45
33.42
36.85
39.02
39.41
37.84
34.56
30.17
25.38
20.82
16.86
13.57
10.84
8.54
6.67
5.39
4.86
5.10
5.94
6.95
7.66
7.71
7.04
5.96
4.85
4.08
3.71
3.48
2.96
1.77
-0.23
-2.85
-5.78
-8.75
-11.72
-14.82
-18.19
-21.84
-25.54
-28.93
-31.76
-34.08
-36.26
-38.77
-41.93
-45.66
-49.42
-52.43
-54.06
-54.20
-53.41
-52.89
-54.07
-58.04
-64.95
-73.65
-81.86
-86.74
-85.82
-77.82
-63.14
-43.70
-22.27
-1.63
16.07
29.63
38.61
43.15
43.66
40.80
35.53
29.09
22.88
18.08
15.34
14.64
15.44
16.91
18.38
19.56
20.40
20.91
20.93
20.06
17.83
14.03
8.92
3.16
-2.44
-7.30
-11.32
-14.92
-18.74
-23.31
-28.75
-34.68
-40.24
-44.30
-45.73
-43.68
-37.81
-28.45
-16.62
-3.82
8.24
18.06
24.74
27.96
28.15
26.15
22.97
19.63
16.89
15.24
14.75
15.17
16.05
16.88
17.42
17.56
17.41
17.08
16.49
15.45
13.77
11.37
8.42
5.07
1.53
-1.94
-4.95
-6.76
-6.44
-3.25
2.92
11.21
20.02
27.49
32.27
33.85
32.60
29.21
24.33
18.25
11.21
3.71
-3.25
-8.41
-10.70
-9.90
-6.71
-2.64
0.75
2.43
2.36
1.26
0.13
-0.42
-0.38
-0.44
-1.46
-4.00
-8.00
-12.78
-17.41
-21.05
-23.30
-24.31
-24.68
-25.28
-26.94
-30.32
-35.54
-42.00
-48.21
-52.17
-51.85
-45.96
-34.58
-19.27
-2.54
12.91
25.07
32.96
36.68
36.83
34.15
29.17
22.44
14.78
7.35
1.58
-1.38
-1.09
1.90
6.33
10.66
13.72
15.07
14.93
13.88
12.38
10.57
8.27
5.34
1.87
-1.68
-4.67
-6.72
-7.96
-9.12
-11.18
-14.89
-20.22
-26.14
-30.88
-32.57
-30.03
-23.23
-13.39
-2.44
7.68
15.61
20.84
23.55
24.15
22.92
19.94
15.29
9.34
2.97
-2.55
-6.01
-6.70
-4.77
-1.15
2.86
6.07
7.85
8.19
7.56
6.37
4.78
2.62
-0.42
-4.45
-9.15
-13.93
-18.24
-21.92
-25.29
-28.95
-33.21
-37.64
-41.04
-41.77
-38.51
-30.91
-19.91
-7.40
4.47
13.96
20.27
23.46
24.10
22.86
20.19
16.33
11.58
6.52
2.07
-0.81
-1.43
0.19
3.31
6.77
9.49
10.81
10.77
9.81
8.44
6.86
4.96
2.47
-0.78
-4.60
-8.57
-12.29
-15.76
-19.40
-23.85
-29.42
-35.56
-40.75
-42.81
-39.95
-31.51
-18.58
-3.69
10.13
20.49
26.39
28.27
27.04
23.60
18.40
11.71
4.22
-2.64
-7.11
-7.81
-4.85
0.24
5.24
8.26
8.84
7.93
7.10
7.48
8.83
9.86
9.12
5.94
0.92
-4.41
-8.65
-11.28
-13.46
-16.97
-23.14
-31.75
-40.62
-46.52
-46.58
-39.71
-27.60
-13.62
-1.37
6.92
11.30
13.51
15.60
18.55
21.41
22.20
19.37
13.08
5.55
0.02
-0.93
3.36
11.08
19.08
24.47
25.92
23.98
20.36
16.69
13.84
11.37
8.30
3.89
-1.87
-8.27
-14.32
-19.35
-23.23
-26.69
-30.65
-35.82
-42.15
-48.65
-53.63
-55.19
-51.85
-43.28
-30.42
-15.28
-0.34
12.25
21.24
26.45
28.57
28.63
27.48
25.61
23.22
20.44
17.64
15.45
14.55
15.37
17.78
21.08
24.20
26.16
26.42
24.95
22.25
18.90
15.31
11.60
7.59
3.11
-1.78
-6.72
-11.08
-14.42
-16.81
-18.84
-21.58
-25.86
-31.81
-38.44
-43.83
-45.84
-42.94
-34.88
-22.85
-8.95
4.50
15.87
24.47
30.44
34.32
36.54
37.31
36.63
34.76
32.27
30.15
29.35
30.38
33.00
36.25
38.86
39.79
38.67
35.97
32.68
29.72
27.56
25.93
24.13
21.42
17.55
12.88
8.16
4.10
0.95
-1.63
-4.30
-7.76
-12.38
-18.06
-24.50
-31.33
-38.17
-44.49
-49.44
-51.78
-50.14
-43.56
-32.14
-17.24
-1.20
13.33
24.26
30.64
32.72
31.64
28.80
25.36
22.03
19.11
16.79
15.31
14.96
16.03
18.51
22.02
25.78
28.84
30.38
30.00
27.82
24.42
20.56
16.80
13.32
9.96
6.43
2.60
-1.37
-5.08
-8.22
-10.85
-13.38
-16.33
-19.83
-23.34
-25.59
-24.99
-20.46
-11.90
-0.45
11.90
22.94
31.04
35.54
36.76
35.59
33.00
29.71
26.04
22.21
18.46
15.32
13.47
13.44
15.38
18.87
22.96
26.58
28.83
29.43
28.60
26.90
24.85
22.62
20.05
16.90
13.10
8.93
5.02
1.92
-0.16
-1.53
-2.79
-4.54
-6.97
-9.73
-12.16
-13.78
-14.65
-15.54
-17.64
-22.11
-29.38
-38.85
-48.83
-57.03
-61.28
-60.13
-53.35
-41.85
-27.41
-12.09
2.31
14.44
23.51
29.15
31.29
30.23
26.59
21.39
15.88
11.27
8.35
7.32
7.79
8.97
10.11
10.79
11.04
11.17
11.42
11.76
11.70
10.54
7.70
3.07
-2.82
-8.99
-14.41
-18.44
-20.97
-22.37
-23.19
-24.05
-25.45
-27.86
-31.59
-36.59
-42.22
-47.10
-49.45
-47.65
-40.98
-30.06
-16.63
-3.00
8.82
17.66
23.29
26.25
27.22
26.84
25.45
23.30
20.73
18.26
16.53
16.07
16.97
18.89
21.17
23.12
24.44
25.25
25.90
26.73
27.58
27.94
27.17
24.96
21.60
17.92
14.88
13.05
12.33
12.15
11.77
10.86
9.59
8.57
8.34
9.05
10.23
11.11
11.05
9.90
8.06
6.19
4.75
3.82
2.92
1.54
-0.62
-3.39
-6.33
-8.96
-11.13
-12.97
-14.81
-16.86
-19.07
-21.15
-22.88
-24.21
-25.37
-26.75
-28.68
-31.24
-34.31
-37.65
-41.13
-44.70
-48.39
-52.11
-55.70
-59.07
-62.37
-66.13
-70.98
-77.07
-83.56
-88.50
-89.30
-83.73
-71.02
-52.40
-30.88
-10.09
6.86
18.38
24.50
26.40
25.44
22.73
18.83
14.15
9.25
5.05
2.62
2.75
5.48
10.03
15.07
19.21
21.57
22.07
21.29
20.08
18.99
18.08
16.88
14.71
11.14
6.33
0.94
-4.22
-8.62
-12.37
-16.23
-21.13
-27.62
-35.22
-42.41
-47.05
-47.26
-42.12
-32.17
-19.08
-5.05
7.98
18.81
26.99
32.50
35.39
35.62
33.24
28.60
22.61
16.60
11.95
9.60
9.67
11.53
14.16
16.58
18.16
18.79
18.60
17.69
15.89
12.92
8.63
3.21
-2.59
-7.82
-11.71
-14.15
-15.75
-17.66
-20.94
-26.08
-32.62
-39.20
-44.07
-45.68
-43.11
-36.36
-26.22
-14.05
-1.26
10.79
21.10
28.97
33.97
36.04
35.56
33.27
30.11
26.90
24.07
21.69
19.64
17.96
16.94
17.05
18.57
21.33
24.60
27.26
28.31
27.08
23.53
18.18
11.99
5.83
0.44
-3.91
-7.44
-10.65
-14.07
-18.03
-22.60
-28.06
-34.42
-41.32
-47.64
-51.34
-49.99
-42.02
-27.61
-9.39
8.56
22.26
29.47
30.49
27.67
23.83
20.89
18.84
16.53
12.77
7.55
2.32
-0.81
-0.28
3.94
9.78
14.30
15.13
11.60
5.13
-1.65
-6.36
-8.09
-8.07
-8.56
-11.50
-17.37
-24.83
-31.60
-35.91
-37.40
-37.47
-38.13
-40.52
-43.97
-46.11
-44.13
-36.35
-23.12
-6.97
8.67
20.88
28.25
31.12
30.85
29.01
26.75
24.41
21.94
19.24
16.46
14.07
12.59
12.36
13.37
15.09
16.73
17.34
16.24
13.14
8.30
2.44
-3.52
-8.79
-13.00
-16.24
-19.07
-22.12
-25.97
-30.85
-36.54
-42.45
-47.60
-50.83
-50.98
-47.13
-38.99
-26.96
-12.22
3.44
18.12
30.10
38.21
42.05
41.84
38.40
32.86
26.44
20.25
15.13
11.49
9.46
8.87
9.37
10.63
12.27
13.85
14.92
14.96
13.67
10.96
7.14
2.79
-1.51
-5.39
-8.91
-12.53
-16.84
-22.39
-29.37
-37.45
-45.76
-52.98
-57.56
-58.08
-53.67
-44.35
-31.11
-15.64
0.02
14.03
25.07
32.44
36.04
36.22
33.69
29.47
24.67
20.31
17.12
15.30
14.66
14.78
15.28
16.02
16.99
18.16
19.26
19.74
18.97
16.55
12.50
7.39
2.03
-2.85
-6.92
-10.39
-13.84
-17.99
-23.36
-30.03
-37.50
-44.78
-50.53
-53.31
-51.91
-45.78
-35.13
-21.02
-5.14
10.57
24.34
34.81
41.35
43.98
43.43
40.88
37.66
34.95
33.50
33.48
34.64
36.50
38.66
40.88
43.11
45.27
47.10
48.22
48.25
46.98
44.57
41.48
38.31
35.46
33.11
31.15
29.36
27.60
25.95
24.62
23.78
23.33
22.92
22.00
20.12
17.17
13.48
9.77
6.83
5.17
4.80
5.20
5.55
5.14
3.73
1.62
-0.54
-2.11
-2.88
-3.11
-3.35
-4.15
-5.66
-7.70
-9.83
-11.68
-13.11
-14.27
-15.50
-17.08
-19.18
-21.77
-24.73
-28.00
-31.60
-35.59
-39.99
-44.70
-49.45
-53.88
-57.83
-61.54
-65.74
-71.39
-79.07
-88.35
-97.34
-103.01
-102.19
-92.85
-75.12
-51.43
-25.71
-1.99
16.88
29.83
37.20
40.04
39.31
35.65
29.70
22.51
15.61
10.77
9.25
11.34
16.19
22.18
27.62
31.42
33.34
33.92
33.86
33.59
32.93
31.22
27.78
22.38
15.57
8.51
2.44
-1.88
-4.53
-6.45
-8.80
-12.57
-18.10
-25.05
-32.54
-39.34
-44.04
-45.21
-41.63
-32.73
-18.99
-2.13
15.21
30.25
40.88
46.33
47.13
44.63
40.36
35.43
30.47
25.80
21.76
18.77
17.30
17.55
19.33
21.83
24.07
25.18
24.84
23.30
21.21
19.15
17.30
15.20
12.15
7.70
2.08
-3.87
-8.95
-12.44
-14.47
-16.14
-18.96
-24.07
-31.50
-39.99
-47.25
-50.92
-49.26
-41.86
-29.75
-14.91
0.31
13.83
24.28
31.04
34.18
34.15
31.57
27.18
21.71
15.89
10.49
6.25
3.79
3.47
5.21
8.54
12.58
16.29
18.80
19.58
18.55
16.01
12.43
8.19
3.51
-1.58
-7.02
-12.62
-18.03
-22.82
-26.77
-30.05
-33.26
-36.96
-41.28
-45.47
-47.98
-46.86
-40.79
-29.69
-15.02
0.62
14.46
24.49
30.02
31.63
30.55
27.96
24.50
20.22
15.04
9.24
3.67
-0.41
-1.90
-0.41
3.47
8.25
12.29
14.31
13.94
11.69
8.51
5.24
2.19
-0.84
-4.33
-8.61
-13.62
-19.00
-24.39
-29.72
-35.27
-41.34
-47.73
-53.36
-56.44
-54.99
-47.84
-35.28
-19.21
-2.53
11.85
21.98
27.37
28.83
27.67
25.11
21.79
17.88
13.47
9.03
5.41
3.67
4.47
7.69
12.33
16.80
19.66
20.14
18.34
15.07
11.21
7.30
3.25
-1.34
-6.81
-13.03
-19.32
-24.86
-29.23
-32.75
-36.44
-41.30
-47.46
-53.69
-57.47
-56.14
-48.00
-33.38
-14.66
4.62
21.22
33.25
40.43
43.44
43.09
39.94
34.37
27.13
19.60
13.60
10.66
11.12
14.08
17.84
20.80
22.23
22.46
22.28
22.24
22.01
20.66
17.20
11.28
3.58
-4.50
-11.49
-16.29
-19.05
-20.73
-22.70
-26.16
-31.61
-38.48
-45.45
-50.79
-53.39
-52.83
-49.38
-43.49
-35.27
-24.42
-10.84
4.84
20.36
32.71
39.24
39.04
33.68
26.54
21.19
19.66
21.42
24.25
25.72
24.73
22.19
20.15
20.44
23.53
27.77
30.51
29.59
24.49
16.65
8.58
2.50
-0.70
-1.94
-3.01
-5.41
-9.53
-14.57
-19.25
-22.79
-25.29
-27.91
-31.83
-37.39
-43.50
-47.89
-48.08
-42.48
-31.05
-15.61
0.99
15.88
27.03
33.74
36.51
36.45
34.88
32.74
30.64
28.92
27.85
27.66
28.60
30.78
34.12
38.28
42.59
46.30
48.64
49.13
47.74
44.83
41.09
37.18
33.51
30.20
27.11
24.06
21.06
18.32
16.22
15.08
15.01
15.78
16.89
17.79
18.08
17.74
17.08
16.50
16.19
16.00
15.46
14.05
11.58
8.28
4.85
1.99
0.13
-0.82
-1.35
-2.10
-3.52
-5.68
-8.15
-10.33
-11.62
-11.74
-10.80
-9.28
-7.81
-6.92
-6.84
-7.46
-8.45
-9.44
-10.29
-11.11
-12.26
-14.14
-16.93
-20.53
-24.63
-28.90
-33.14
-37.32
-41.51
-45.72
-49.86
-53.93
-58.28
-63.61
-70.70
-79.73
-89.64
-97.95
-101.33
-96.80
-83.04
-61.15
-34.44
-7.26
16.41
34.08
45.20
50.54
51.41
48.97
43.93
36.90
28.76
20.87
14.94
12.39
13.73
18.27
24.27
29.68
32.87
33.30
31.56
28.90
26.51
24.92
23.82
22.33
19.61
15.31
9.89
4.30
-0.45
-3.82
-5.99
-7.66
-9.69
-12.63
-16.59
-21.33
-26.58
-32.22
-38.14
-43.90
-48.47
-50.31
-47.78
-39.96
-27.27
-11.49
4.67
18.56
28.36
33.59
34.88
33.39
30.18
25.92
20.95
15.58
10.42
6.29
4.07
4.16
6.36
9.79
13.24
15.65
16.42
15.55
13.49
10.70
7.51
3.87
-0.36
-5.27
-10.57
-15.66
-19.79
-22.46
-23.75
-24.36
-25.51
-28.36
-33.48
-40.38
-47.38
-52.16
-52.46
-47.00
-35.99
-21.10
-4.89
10.08
21.99
29.97
34.01
34.50
31.92
26.79
19.89
12.32
5.51
0.74
-1.32
-0.89
1.06
3.27
4.82
5.58
6.08
7.14
9.20
12.02
14.61
15.74
14.46
10.53
4.48
-2.68
-9.91
-16.53
-22.38
-27.78
-33.25
-39.30
-46.08
-53.30
-60.12
-65.27
-67.36
-65.24
-58.34
-46.98
-32.24
-15.85
0.13
13.78
23.60
28.81
29.54
26.82
22.19
17.40
13.80
12.06
12.10
13.48
15.63
18.16
20.72
23.05
24.85
25.84
25.90
25.20
23.99
22.51
20.62
18.02
14.33
9.58
4.20
-0.98
-5.29
-8.63
-11.68
-15.58
-21.38
-29.29
-38.36
-46.58
-51.59
-51.36
-45.22
-33.88
-19.19
-3.43
11.40
24.07
33.96
40.93
44.78
45.31
42.53
37.03
30.05
23.35
18.56
16.64
17.57
20.45
24.01
27.14
29.13
29.75
28.99
27.02
23.94
19.90
15.05
9.58
3.63
-2.61
-8.87
-14.76
-19.84
-23.93
-27.25
-30.55
-34.91
-41.03
-48.79
-56.82
-62.78
-64.19
-59.37
-48.22
-32.28
-14.23
3.13
17.66
28.41
35.29
38.73
39.06
36.49
31.31
24.24
16.55
9.89
5.68
4.64
6.50
10.12
14.11
17.38
19.50
20.69
21.41
21.92
21.97
20.87
17.88
12.76
6.02
-1.17
-7.48
-12.00
-14.75
-16.52
-18.61
-22.18
-27.78
-35.05
-42.83
-49.46
-53.12
-52.38
-46.43
-35.42
-20.44
-3.25
14.10
29.71
42.17
50.69
55.01
55.36
52.44
47.32
41.35
35.88
32.01
30.25
30.52
32.28
34.86
37.69
40.41
42.76
44.50
45.29
44.85
43.01
39.90
35.92
31.49
26.96
22.45
17.98
13.65
9.85
7.23
6.40
7.57
10.33
13.68
16.42
17.67
17.18
15.38
12.99
10.64
8.60
6.67
4.53
2.04
-0.61
-2.88
-4.18
-4.22
-3.23
-1.89
-1.11
-1.55
-3.30
-5.74
-7.98
-9.12
-8.86
-7.59
-6.11
-5.19
-5.28
-6.29
-8.26
-11.23
-15.46
-21.02
-27.45
-33.75
-38.77
-41.93
-43.88
-46.26
-50.99
-59.23
-70.54
-82.82
-92.93
-97.76
-95.37
-85.30
-68.76
-47.93
-25.39
-3.50
15.83
31.35
41.84
46.56
45.28
38.65
28.45
17.27
7.78
1.84
-0.47
-0.38
0.38
0.62
0.50
1.14
3.71
8.44
13.79
17.36
17.06
12.34
4.60
-3.51
-9.52
-12.27
-12.73
-12.98
-15.14
-20.16
-27.50
-35.63
-42.85
-47.86
-50.18
-49.58
-45.75
-38.20
-26.57
-11.24
6.35
23.92
38.75
48.64
52.47
50.46
43.94
34.77
24.87
15.91
8.92
4.35
2.15
1.87
2.84
4.31
5.60
6.26
5.94
4.42
1.53
-2.80
-8.34
-14.64
-20.90
-26.29
-30.30
-32.99
-35.05
-37.57
-41.43
-46.71
-52.44
-56.73
-57.43
-53.02
-43.20
-29.16
-13.07
2.58
15.77
25.44
31.47
34.31
34.61
32.81
29.28
24.44
18.99
13.94
10.35
8.99
9.99
12.73
16.17
19.10
20.63
20.45
18.71
15.81
12.14
7.89
3.16
-1.94
-7.07
-11.76
-15.57
-18.46
-20.90
-23.77
-27.82
-33.17
-38.92
-43.18
-43.79
-39.18
-29.10
-14.83
1.23
16.44
28.84
37.62
42.97
45.56
46.03
44.63
41.44
36.67
31.01
25.56
21.49
19.52
19.62
20.94
22.28
22.55
21.16
18.20
14.20
9.77
5.34
0.93
-3.59
-8.42
-13.58
-18.84
-23.99
-29.05
-34.40
-40.57
-47.72
-55.20
-61.34
-63.75
-60.36
-50.34
-34.69
-16.07
2.16
17.08
27.12
32.29
33.73
32.89
31.04
28.96
27.19
26.30
27.00
29.95
35.34
42.67
50.67
57.66
62.11
63.22
61.10
56.75
51.50
46.50
42.24
38.54
34.86
30.82
26.51
22.62
20.01
19.27
20.35
22.49
24.60
25.71
25.46
24.11
22.33
20.74
19.59
18.64
17.42
15.49
12.80
9.70
6.76
4.50
3.14
2.54
2.35
2.16
1.67
0.84
-0.31
-1.71
-3.42
-5.51
-8.05
-10.92
-13.86
-16.49
-18.60
-20.31
-22.06
-24.41
-27.73
-31.93
-36.43
-40.49
-43.62
-45.92
-48.16
-51.53
-57.17
-65.50
-75.78
-86.01
-93.32
-94.86
-88.68
-74.59
-54.25
-30.75
-7.52
12.55
27.70
37.31
41.49
40.71
35.73
27.71
18.37
9.85
4.19
2.63
5.12
10.38
16.48
21.64
24.95
26.47
26.92
27.01
26.90
26.14
24.06
20.15
14.59
7.96
1.17
-5.10
-10.51
-15.05
-18.79
-21.88
-24.60
-27.46
-31.13
-36.05
-41.90
-47.43
-50.60
-49.40
-42.63
-30.58
-14.95
1.64
16.62
28.04
34.99
37.55
36.47
32.68
27.14
20.70
14.11
8.09
3.46
0.92
0.97
3.36
7.24
11.30
14.23
15.35
14.79
13.19
11.30
9.40
7.19
4.18
0.12
-4.72
-9.66
-14.12
-18.06
-22.07
-26.94
-32.91
-39.08
-43.54
-44.04
-39.02
-28.35
-13.60
2.59
17.43
29.00
36.53
40.42
41.57
40.91
38.95
35.84
31.69
26.82
21.84
17.60
14.85
14.04
14.98
16.97
18.98
19.97
19.15
16.21
11.30
5.00
-1.90
-8.64
-14.61
-19.57
-23.66
-27.35
-31.21
-35.69
-40.89
-46.39
-51.29
-54.39
-54.49
-50.61
-42.39
-30.17
-15.04
1.31
16.87
29.66
38.21
41.81
40.72
36.02
29.29
22.15
15.84
11.13
8.22
7.05
7.43
9.10
11.70
14.62
17.08
18.21
17.39
14.49
9.92
4.58
-0.54
-4.66
-7.57
-9.67
-11.83
-15.01
-19.84
-26.30
-33.55
-40.20
-44.62
-45.49
-42.05
-34.40
-23.29
-9.91
4.36
18.13
30.15
39.40
45.19
47.24
45.86
41.91
36.67
31.48
27.45
25.14
24.50
25.09
26.40
28.06
29.90
31.84
33.74
35.26
35.90
35.33
33.47
30.71
27.66
24.94
22.90
21.48
20.45
19.54
18.70
18.11
17.96
18.27
18.73
18.82
18.04
16.21
13.57
10.67
8.01
5.79
3.85
1.83
-0.56
-3.30
-6.06
-8.34
-9.91
-10.92
-11.95
-13.69
-16.59
-20.57
-24.96
-28.73
-31.03
-31.55
-30.79
-29.95
-30.30
-32.68
-36.96
-41.96
-46.27
-48.78
-49.35
-48.95
-49.04
-50.87
-54.96
-61.12
-68.96
-77.93
-87.04
-94.48
-97.30
-92.24
-77.20
-52.66
-22.48
7.45
31.35
45.80
50.87
49.36
44.90
40.09
35.41
30.04
23.29
15.68
9.22
6.31
8.29
14.62
22.53
28.61
30.39
27.55
21.93
16.46
13.37
13.14
14.01
13.41
9.55
2.45
-5.82
-12.41
-15.36
-14.55
-12.17
-11.28
-14.23
-21.27
-30.30
-37.79
-40.40
-36.26
-25.92
-11.73
3.25
16.42
26.44
33.14
36.99
38.67
38.29
35.74
30.93
24.23
16.66
9.68
4.72
2.77
3.81
6.93
10.71
13.69
14.97
14.43
12.56
10.22
8.13
6.51
5.18
3.61
1.30
-2.03
-6.29
-11.10
-15.98
-20.46
-24.01
-26.15
-26.26
-23.80
-18.40
-10.14
0.32
11.73
22.48
31.01
36.13
37.33
34.86
29.61
22.85
15.90
9.86
5.38
2.65
1.57
1.82
3.04
4.87
6.91
8.66
9.53
9.02
6.79
2.83
-2.41
-8.21
-13.79
-18.55
-22.26
-25.06
-27.32
-29.42
-31.62
-34.07
-36.95
-40.54
-45.06
-50.31
-55.36
-58.52
-57.67
-51.24
-38.90
-22.00
-3.32
13.87
26.83
34.18
36.06
33.66
28.56
22.06
14.96
7.85
1.38
-3.49
-5.60
-4.06
1.22
9.25
18.11
25.60
29.94
30.34
27.14
21.39
14.29
6.70
-1.03
-8.90
-16.82
-24.41
-30.99
-35.97
-39.17
-41.03
-42.40
-43.87
-45.27
-45.40
-42.46
-35.00
-22.74
-6.99
9.62
24.19
34.50
39.85
40.92
39.21
36.17
32.67
28.93
25.00
21.15
18.25
17.38
19.41
24.34
31.13
38.03
43.24
45.63
45.13
42.66
39.52
36.73
34.60
32.74
30.51
27.48
23.74
19.95
16.87
14.91
13.93
13.26
12.24
10.47
8.15
5.99
4.71
4.70
5.79
7.30
8.39
8.49
7.53
5.94
4.33
3.14
2.35
1.47
-0.17
-3.03
-7.09
-11.77
-16.13
-19.36
-21.09
-21.59
-21.64
-22.13
-23.69
-26.36
-29.65
-32.90
-35.64
-37.89
-40.06
-42.72
-46.37
-51.17
-57.19
-64.42
-72.70
-81.47
-89.30
-94.00
-93.04
-84.51
-68.14
-45.67
-20.47
3.47
22.83
35.82
42.29
43.31
40.41
35.03
28.39
21.52
15.47
11.37
10.12
12.11
16.89
23.15
29.18
33.37
34.82
33.58
30.35
26.19
21.86
17.63
13.31
8.54
3.16
-2.62
-8.16
-12.80
-16.19
-18.65
-21.08
-24.63
-29.96
-36.72
-43.41
-47.90
-48.17
-43.17
-33.27
-20.03
-5.62
7.88
18.94
26.69
30.81
31.46
29.14
24.72
19.35
14.23
10.41
8.54
8.85
11.17
15.02
19.72
24.53
28.61
31.29
31.97
30.42
26.73
21.32
14.81
7.89
1.07
-5.32
-11.46
-17.70
-24.44
-31.82
-39.54
-46.72
-52.20
-54.74
-53.49
-48.12
-38.88
-26.54
-12.29
2.52
16.41
28.09
36.45
40.86
41.25
38.17
32.57
25.76
19.05
13.70
10.56
10.02
11.84
15.19
18.82
21.50
22.34
21.22
18.63
15.44
12.33
9.49
6.49
2.66
-2.54
-9.15
-16.72
-24.51
-31.67
-37.38
-40.84
-41.21
-37.74
-30.09
-18.58
-4.47
10.31
23.57
33.45
38.93
39.97
37.31
32.15
25.69
18.98
12.74
7.37
3.22
0.52
-0.56
-0.04
1.79
4.31
6.59
7.66
6.80
3.79
-0.99
-6.65
-12.16
-16.82
-20.41
-23.27
-26.07
-29.45
-33.80
-39.14
-45.21
-51.51
-57.20
-61.15
-62.03
-58.63
-50.24
-37.13
-20.72
-3.27
12.67
24.98
32.48
35.15
33.90
30.15
25.36
20.67
16.76
13.95
12.31
11.86
12.57
14.32
16.75
19.21
20.80
20.69
18.46
14.27
8.84
3.18
-1.81
-5.79
-8.94
-11.88
-15.30
-19.70
-25.12
-31.28
-37.61
-43.37
-47.78
-49.89
-48.79
-43.77
-34.55
-21.71
-6.59
8.83
22.43
32.57
38.47
40.37
39.39
36.89
34.17
31.97
30.51
29.70
29.41
29.70
30.60
31.85
32.86
32.89
31.33
28.17
24.07
19.98
16.65
14.24
12.27
10.01
7.01
3.30
-0.64
-4.29
-7.46
-10.52
-14.16
-18.92
-24.73
-30.67
-35.13
-36.25
-32.42
-23.36
-10.00
5.47
20.33
32.25
40.03
43.72
44.34
42.86
39.88
35.64
30.39
24.96
20.70
18.97
20.36
23.92
27.72
29.66
28.73
25.50
21.67
18.90
17.80
17.30
15.48
10.85
3.32
-5.48
-13.05
-17.41
-17.99
-16.40
-15.26
-17.03
-22.73
-31.51
-41.01
-48.54
-52.01
-50.77
-45.34
-36.74
-25.96
-13.66
-0.32
13.31
26.18
36.73
43.61
46.11
44.45
39.79
33.79
28.09
23.99
22.02
22.03
23.35
25.05
26.32
26.56
25.60
23.69
21.15
18.18
14.74
10.57
5.40
-0.80
-7.62
-14.19
-19.51
-22.80
-23.89
-23.27
-21.93
-20.95
-21.06
-22.40
-24.70
-27.44
-30.05
-32.00
-32.69
-31.34
-27.18
-19.66
-8.87
4.29
18.22
30.99
40.99
47.24
49.58
48.52
44.91
39.70
33.78
27.91
22.79
19.02
17.10
17.27
19.42
22.99
27.07
30.62
32.75
32.88
30.94
27.26
22.36
16.70
10.58
4.17
-2.35
-8.65
-14.17
-18.29
-20.61
-21.28
-21.04
-21.06
-22.47
-25.89
-31.07
-36.78
-41.24
-42.65
-39.86
-32.74
-22.20
-9.82
2.69
13.90
22.95
29.33
32.81
33.27
30.71
25.48
18.45
10.91
4.31
-0.21
-2.17
-1.96
-0.47
1.29
2.58
3.19
3.29
3.15
2.87
2.18
0.70
-1.89
-5.63
-10.13
-14.82
-19.19
-23.01
-26.47
-30.05
-34.23
-39.20
-44.53
-49.12
-51.48
-50.27
-44.76
-35.25
-23.04
-10.00
2.04
11.71
18.33
21.84
22.52
20.71
16.84
11.51
5.60
0.15
-3.79
-5.53
-4.92
-2.36
1.35
5.36
8.99
11.75
13.29
13.34
11.64
8.06
2.73
-3.86
-10.94
-17.72
-23.64
-28.61
-33.01
-37.53
-42.73
-48.71
-54.65
-59.03
-59.99
-55.99
-46.58
-32.68
-16.33
-0.11
13.81
24.10
30.43
33.12
32.72
29.74
24.73
18.50
12.28
7.54
5.48
6.52
10.03
14.56
18.43
20.38
20.03
17.85
14.66
11.20
7.74
4.13
0.09
-4.59
-9.71
-14.90
-19.83
-24.46
-29.13
-34.33
-40.26
-46.46
-51.68
-54.19
-52.37
-45.42
-33.77
-18.99
-3.28
11.26
23.27
32.22
38.11
41.08
41.11
38.14
32.40
24.72
16.45
9.19
4.12
1.69
1.52
2.74
4.47
6.22
7.93
9.72
11.60
13.23
13.96
13.14
10.41
5.91
0.33
-5.32
-10.09
-13.21
-14.33
-13.38
-10.54
-5.99
-0.10
6.64
13.45
19.38
23.51
25.21
24.40
21.63
17.70
13.48
9.59
6.46
4.40
3.71
4.56
6.78
9.62
11.99
12.87
11.90
9.52
6.87
5.00
4.32
4.28
3.72
1.65
-2.14
-6.94
-11.46
-14.64
-16.11
-16.63
-17.53
-20.12
-25.10
-32.33
-40.76
-48.94
-55.13
-57.87
-56.04
-49.06
-37.07
-21.05
-2.65
15.96
32.56
45.32
53.10
55.72
53.82
48.57
41.43
33.71
26.53
20.63
16.42
14.01
13.27
13.73
14.90
16.27
17.52
18.45
18.88
18.58
17.22
14.49
10.31
4.97
-0.86
-6.32
-10.70
-13.70
-15.50
-16.75
-18.20
-20.46
-23.67
-27.24
-30.06
-30.79
-28.31
-22.27
-13.16
-2.24
8.95
19.09
27.43
33.73
38.09
40.59
41.22
39.83
36.53
31.84
26.65
21.97
18.61
16.84
16.52
17.19
18.40
19.76
21.02
21.85
21.88
20.67
17.99
14.05
9.49
5.22
1.94
-0.24
-1.96
-4.36
-8.56
-15.08
-23.38
-31.89
-38.56
-41.43
-39.35
-32.28
-21.17
-7.74
6.03
18.39
28.02
34.20
36.63
35.25
30.17
21.71
10.72
-1.38
-12.71
-21.50
-26.61
-27.97
-26.49
-23.68
-21.02
-19.53
-19.66
-21.37
-24.29
-27.91
-31.49
-34.25
-35.49
-34.92
-32.78
-29.86
-27.29
-26.14
-27.02
-29.84
-33.75
-37.21
-38.49
-36.18
-29.72
-19.61
-7.18
5.88
18.12
28.61
36.88
42.69
45.75
45.75
42.61
36.77
29.36
21.85
15.65
11.60
9.84
10.15
12.37
16.69
23.58
32.98
44.12
55.43
65.15
72.10
76.20
78.23
79.18
79.35
78.37
75.46
70.15
62.67
53.99
45.12
36.67
28.49
20.06
11.02
1.58
-7.50
-15.15
-20.56
-23.38
-24.22
-24.05
-23.86
-24.27
-25.12
-25.71
-25.35
-23.70
-21.42
-19.56
-19.03
-20.06
-21.92
-23.35
-23.49
-22.20
-20.60
-20.12
-21.63
-24.82
-28.10
-29.46
-27.57
-22.45
-15.87
-10.14
-7.01
-6.74
-8.06
-8.96
-7.91
-4.62
-0.33
3.08
4.14
2.47
-1.21
-5.65
-9.91
-13.78
-17.96
-23.37
-30.67
-39.86
-50.36
-61.22
-71.56
-80.59
-88.01
-93.82
-98.37
-102.29
-106.28
-110.73
-115.43
-119.37
-121.28
-120.25
-116.44
-111.35
-107.46
-107.33
-112.63
-123.38
-137.99
-153.78
-167.85
-177.81
-182.35
-181.40
-175.98
-167.93
-159.52
-152.81
-149.05
-147.99
-147.66
-144.75
-135.56
-117.21
-88.73
-51.53
-8.85
35.40
78.12
118.08
155.92
192.91
228.98
261.43
285.11
294.49
286.40
262.11
227.35
190.19
157.75
133.64
117.32
105.65
95.34
84.86
74.73
66.55
61.22
58.18
55.63
51.57
45.01
36.43
27.46
20.07
15.47
13.49
12.83
11.66
8.71
3.78
-2.09
-7.20
-10.08
-10.28
-8.57
-6.57
-5.91
-7.50
-11.03
-15.30
-18.95
-21.20
-22.29
-23.16
-24.83
-27.55
-30.62
-32.64
-32.46
-29.84
-25.69
-21.64
-19.00
-18.13
-18.06
-16.87
-12.49
-3.35
11.06
30.25
52.86
76.92
100.12
120.34
135.94
146.23
151.57
153.12
152.46
151.11
150.17
150.19
150.99
151.67
150.83
146.81
138.15
123.84
103.42
76.96
44.96
8.63
-29.74
-66.71
-98.11
-120.15
-130.92
-131.15
-124.17
-114.66
-106.92
-103.53
-104.74
-109.00
-113.86
-116.74
-115.55
-108.86
-96.06
-77.64
-55.46
-32.53
-12.28
2.66
11.41
15.26
17.06
19.92
25.72
34.42
44.06
51.71
54.67
51.49
42.37
28.93
13.56
-1.46
-14.70
-25.78
-35.50
-45.36
-57.13
-72.27
-91.33
-113.58
-136.72
-156.94
-169.69
-170.86
-158.29
-132.81
-98.23
-60.26
-24.64
4.49
25.38
38.42
45.30
48.06
48.43
47.66
46.54
45.50
44.61
43.60
42.06
39.68
36.55
33.17
30.35
28.89
29.05
30.43
31.79
31.33
27.43
19.43
8.24
-3.67
-13.18
-17.94
-17.37
-12.78
-6.64
-1.30
1.91
2.84
2.03
0.08
-2.56
-5.44
-7.81
-8.66
-7.15
-3.18
2.46
8.36
13.19
16.36
18.29
20.06
22.99
27.99
34.96
42.59
48.63
50.72
47.48
39.27
28.29
17.51
9.15
3.53
-0.90
-6.47
-14.39
-23.76
-31.65
-34.88
-31.78
-23.37
-12.80
-3.57
2.43
5.78
9.18
15.62
26.75
42.03
59.18
75.26
87.47
93.58
92.01
82.28
65.63
45.40
26.56
14.11
11.20
17.64
30.23
44.32
55.91
62.87
64.99
62.75
56.43
45.80
30.87
12.63
-6.74
-24.57
-38.87
-49.28
-57.02
-64.28
-72.89
-83.45
-94.89
-105.02
-111.58
-113.39
-111.05
-106.82
-103.59
-103.84
-108.59
-117.09
-127.14
-135.93
-140.79
-140.16
-133.97
-123.59
-111.09
-98.11
-84.84
-69.83
-50.55
-24.94
7.22
43.79
80.77
113.71
139.01
154.63
160.22
156.64
145.83
130.53
114.07
99.74
90.04
86.06
87.46
93.00
101.43
111.88
123.88
136.88
149.76
160.73
167.75
169.07
163.62
151.11
131.64
105.41
72.60
33.77
-9.51
-54.25
-96.10
-130.33
-153.23
-163.37
-162.13
-153.13
-140.85
-129.05
-119.75
-113.00
-107.70
-102.56
-96.65
-89.55
-80.98
-70.57
-57.93
-43.06
-26.89
-11.24
1.73
10.30
14.01
13.85
11.81
9.98
9.67
11.03
13.14
14.71
14.70
12.81
9.46
5.48
1.57
-2.08
-5.75
-9.92
-14.73
-19.72
-23.76
-25.49
-24.03
-19.49
-13.18
-7.11
-3.38
-3.18
-6.48
-12.09
-18.19
-23.13
-26.00
-26.89
-26.67
-26.36
-26.64
-27.56
-28.62
-29.11
-28.48
-26.46
-23.04
-18.24
-12.05
-4.55
3.96
12.72
20.62
26.50
29.69
30.35
29.48
28.46
28.36
29.36
30.70
31.07
29.21
24.73
18.30
11.25
5.08
0.74
-1.72
-2.78
-3.08
-2.85
-1.91
-0.25
1.87
3.69
4.38
3.61
1.89
0.30
-0.07
0.85
2.29
2.97
2.02
-0.34
-2.85
-4.03
-3.03
-0.45
2.23
3.41
2.39
-0.23
-2.93
-4.23
-3.33
-0.95
1.56
2.80
2.22
0.39
-1.44
-2.18
-1.37
0.01
0.44
-1.37
-5.65
-11.29
-16.34
-19.17
-19.16
-17.57
-16.52
-17.98
-22.66
-29.51
-36.29
-40.68
-41.32
-38.57
-33.94
-29.15
-25.11
-21.58
-17.51
-11.94
-4.58
3.62
11.09
16.27
18.32
17.38
14.32
10.31
6.50
3.48
1.46
0.36
-0.07
-0.03
0.36
1.08
2.29
3.88
5.56
6.84
7.12
6.09
3.85
0.91
-1.93
-4.09
-5.49
-6.58
-8.17
-10.84
-14.61
-18.68
-21.69
-22.36
-20.01
-15.00
-8.56
-2.21
2.79
5.93
7.44
7.94
7.95
7.60
6.65
4.84
2.20
-0.77
-3.19
-4.26
-3.63
-1.57
1.04
3.18
4.08
3.66
2.47
1.37
1.05
1.71
2.92
3.90
3.90
2.61
0.29
-2.49
-5.11
-7.23
-8.89
-10.23
-11.26
-11.65
-10.77
-8.08
-3.45
2.54
8.68
13.61
16.28
16.39
14.51
11.61
8.61
6.00
3.68
1.34
-1.22
-3.72
-5.45
-5.66
-4.04
-0.95
2.59
5.42
6.73
6.38
4.98
3.44
2.51
2.41
2.72
2.76
1.93
0.08
-2.46
-5.08
-7.27
-8.80
-9.80
-10.38
-10.50
-9.76
-7.59
-3.61
1.98
8.34
14.10
18.06
19.53
18.68
16.40
13.78
11.61
10.06
8.78
7.23
5.14
2.69
0.52
-0.72
-0.73
0.19
1.21
1.36
0.04
-2.70
-6.05
-8.85
-10.17
-9.71
-7.99
-5.99
-4.71
-4.73
-6.01
-8.18
-10.89
-13.94
-17.36
-20.99
-24.25
-26.14
-25.42
-21.31
-13.87
-4.16
6.10
15.18
21.86
25.79
27.39
27.41
26.46
24.76
22.18
18.59
14.17
9.53
5.64
3.35
2.98
4.14
5.93
7.36
7.90
7.75
7.67
8.44
10.32
12.86
14.92
15.38
13.74
10.46
6.82
4.26
3.68
5.08
7.54
9.79
10.96
10.94
10.45
10.48
11.64
13.74
15.87
16.91
16.22
14.03
11.36
9.33
8.59
8.86
9.17
8.44
6.10
2.46
-1.50
-4.69
-6.52
-7.11
-7.10
-7.21
-7.78
-8.65
-9.27
-9.20
-8.48
-7.66
-7.55
-8.80
-11.47
-14.94
-18.23
-20.52
-21.63
-22.14
-23.02
-25.00
-28.10
-31.45
-33.76
-33.87
-31.36
-26.57
-20.38
-13.70
-7.22
-1.30
3.79
7.72
10.02
10.37
8.78
5.74
2.20
-0.80
-2.46
-2.46
-0.98
1.38
3.94
6.23
8.04
9.60
11.07
12.55
13.90
14.83
15.10
14.80
14.27
13.98
14.13
14.57
14.87
14.49
13.11
10.82
7.89
4.56
0.87
-3.33
-8.00
-12.70
-16.45
-17.96
-16.27
-11.19
-3.55
5.01
12.73
18.36
21.48
22.56
22.42
21.87
21.31
20.77
20.13
19.35
18.46
17.70
17.26
17.28
17.69
18.32
18.89
19.14
18.80
17.77
16.04
13.76
11.25
8.81
6.61
4.65
2.68
0.46
-2.05
-4.58
-6.51
-7.27
-6.55
-4.60
-2.20
-0.22
0.70
0.49
-0.29
-0.90
-0.82
-0.07
0.80
1.03
0.20
-1.58
-3.62
-5.06
-5.41
-4.80
-3.90
-3.54
-4.17
-5.61
-6.97
-7.30
-6.05
-3.39
-0.21
2.33
3.32
2.54
0.51
-1.87
-3.86
-5.27
-6.52
-8.29
-11.16
-15.11
-19.56
-23.69
-26.88
-29.08
-30.62
-31.90
-32.85
-32.71
-30.33
-24.86
-16.37
-6.11
3.79
11.21
14.88
14.81
12.13
8.41
4.86
1.90
-0.75
-3.54
-6.58
-9.37
-10.98
-10.62
-8.10
-4.03
0.46
4.30
6.94
8.61
10.03
11.85
14.15
16.36
17.58
17.15
15.04
11.92
8.83
6.54
5.09
3.88
2.04
-1.00
-5.00
-8.85
-11.18
-10.85
-7.52
-1.90
4.57
10.21
13.79
14.92
13.95
11.82
9.43
7.26
5.36
3.48
1.51
-0.29
-1.49
-1.64
-0.73
0.74
2.00
2.44
1.93
0.93
0.04
-0.33
-0.37
-0.77
-2.26
-5.17
-9.07
-12.71
-14.87
-14.78
-12.75
-10.03
-8.15
-8.11
-9.75
-11.83
-13.08
-12.64
-10.60
-7.65
-4.36
-0.80
3.36
8.43
13.66
17.62
18.68
16.09
10.58
4.25
-0.49
-1.99
-0.39
2.82
5.63
6.59
5.44
3.02
0.58
-0.94
-1.79
-2.83
-5.09
-8.98
-13.88
-18.46
-21.41
-22.11
-21.50
-21.27
-22.92
-26.79
-31.44
-34.36
-33.23
-27.10
-17.27
-6.59
2.02
6.90
8.26
7.69
6.95
7.09
7.78
8.03
6.96
4.45
1.32
-1.19
-1.99
-0.47
3.05
7.80
12.77
17.07
20.12
21.63
21.66
20.60
18.82
16.62
14.17
11.38
8.19
4.57
0.70
-3.09
-6.47
-9.38
-11.92
-14.38
-16.88
-19.08
-20.23
-19.28
-15.49
-8.82
-0.16
8.89
16.64
21.84
24.10
23.97
22.47
20.52
18.55
16.41
13.64
9.94
5.46
1.00
-2.47
-4.18
-3.93
-2.24
-0.02
1.91
3.11
3.78
4.39
5.30
6.52
7.58
7.91
7.19
5.63
3.99
3.10
3.55
5.30
7.68
9.94
11.46
12.17
12.48
12.96
13.95
15.25
16.28
16.36
15.14
12.81
10.09
7.85
6.62
6.41
6.62
6.43
5.26
3.07
0.46
-1.81
-3.21
-3.81
-4.19
-5.07
-6.83
-9.25
-11.56
-12.90
-12.85
-11.58
-9.91
-8.75
-8.79
-10.20
-12.61
-15.36
-17.81
-19.41
-19.88
-18.99
-16.54
-12.32
-6.29
1.16
9.20
16.56
21.88
24.23
23.46
20.26
16.00
12.09
9.52
8.51
8.69
9.42
10.20
10.92
11.90
13.45
15.59
17.82
19.28
19.04
16.65
12.30
6.88
1.49
-3.01
-6.30
-8.62
-10.50
-12.37
-14.33
-16.16
-17.60
-18.57
-19.18
-19.67
-20.12
-20.28
-19.62
-17.52
-13.69
-8.40
-2.52
2.71
6.21
7.45
6.72
4.91
3.11
2.03
1.76
1.83
1.63
0.83
-0.41
-1.49
-1.80
-1.20
-0.05
0.91
0.96
-0.19
-2.23
-4.39
-5.87
-6.18
-5.39
-4.07
-3.03
-2.91
-4.01
-6.10
-8.68
-11.17
-13.08
-14.13
-14.24
-13.39
-11.58
-8.73
-4.95
-0.52
4.00
7.79
10.15
10.72
9.72
7.88
6.18
5.40
5.77
6.99
8.43
9.52
10.06
10.26
10.51
11.02
11.69
12.05
11.62
10.15
7.77
4.93
2.09
-0.60
-3.37
-6.79
-11.31
-17.00
-23.28
-28.91
-32.62
-33.46
-31.27
-26.71
-20.98
-15.18
-9.94
-5.29
-0.93
3.35
7.29
10.30
11.84
11.74
10.50
8.98
7.96
7.87
8.55
9.55
10.50
11.22
11.78
12.25
12.53
12.39
11.63
10.26
8.64
7.20
6.25
5.73
5.22
4.15
2.03
-1.29
-5.52
-10.07
-14.06
-16.77
-17.64
-16.44
-13.32
-8.73
-3.18
2.63
8.06
12.41
15.06
15.71
14.45
11.84
8.82
6.28
4.78
4.39
4.67
5.14
5.44
5.50
5.53
5.74
6.20
6.77
7.17
7.07
6.34
4.90
2.89
0.51
-1.93
-4.16
-6.17
-8.12
-10.55
-14.09
-19.04
-25.11
-31.29
-36.09
-38.21
-37.04
-32.95
-27.14
-20.97
-15.41
-10.79
-6.77
-2.90
1.00
4.62
7.30
8.55
8.29
7.11
6.11
6.28
8.10
11.26
14.68
17.14
17.75
16.39
13.83
11.14
9.18
8.06
7.15
5.54
2.63
-1.46
-5.84
-9.46
-11.66
-12.56
-13.06
-14.28
-17.02
-21.30
-26.37
-31.12
-34.50
-35.86
-35.05
-32.19
-27.47
-21.08
-13.08
-3.82
5.95
15.11
22.34
26.62
27.57
25.72
22.30
18.67
15.93
14.48
14.08
14.20
14.45
14.88
15.91
17.94
20.99
24.54
27.61
29.29
29.18
27.62
25.42
23.34
21.64
19.92
17.33
13.24
7.62
1.25
-4.50
-8.31
-9.40
-7.81
-4.28
0.22
4.92
9.56
14.13
18.66
22.80
25.80
26.88
25.68
22.66
19.06
16.35
15.54
16.58
18.58
20.21
20.48
19.33
17.65
16.54
16.81
18.36
20.22
21.10
20.16
17.35
13.46
9.25
5.24
1.36
-2.68
-6.85
-10.53
-12.81
-13.00
-11.49
-9.60
-8.96
-10.63
-14.35
-18.64
-21.63
-22.05
-20.12
-17.25
-15.27
-15.43
-17.85
-21.58
-25.44
-28.55
-31.24
-34.25
-38.04
-42.04
-44.46
-43.04
-36.29
-24.28
-9.39
4.94
15.59
21.12
22.23
21.11
20.07
20.41
21.46
21.63
19.48
14.92
9.43
5.40
4.73
7.89
13.23
18.17
20.41
19.18
15.56
11.78
9.89
10.71
13.18
15.21
14.87
11.47
5.97
0.43
-3.21
-3.95
-2.44
-0.29
0.79
-0.05
-2.47
-5.37
-7.58
-8.49
-8.55
-8.78
-10.18
-13.13
-17.16
-21.07
-23.44
-22.98
-19.42
-13.30
-5.99
0.91
6.16
9.24
10.47
10.71
10.78
11.12
11.59
11.75
11.21
9.99
8.54
7.58
7.69
9.01
11.10
13.24
14.70
15.14
14.64
13.66
12.70
11.88
11.01
9.56
7.08
3.48
-0.81
-4.91
-8.02
-9.71
-10.24
-10.42
-11.27
-13.52
-17.21
-21.59
-25.42
-27.38
-26.70
-23.40
-18.17
-12.08
-6.07
-0.66
4.03
8.04
11.29
13.37
13.87
12.54
9.66
6.03
2.75
0.67
0.06
0.54
1.33
1.68
1.27
0.47
-0.08
0.27
1.71
3.75
5.56
6.31
5.70
4.17
2.61
1.88
2.29
3.41
4.35
4.22
2.57
-0.35
-3.89
-7.38
-10.47
-13.09
-15.22
-16.65
-16.86
-15.20
-11.34
-5.54
1.21
7.52
12.08
14.11
13.64
11.43
8.48
5.65
3.31
1.34
-0.58
-2.58
-4.41
-5.45
-5.15
-3.34
-0.47
2.58
4.84
5.80
5.54
4.65
3.76
3.24
2.99
2.47
1.23
-0.88
-3.53
-5.98
-7.56
-8.07
-7.96
-8.20
-9.72
-12.91
-17.21
-21.21
-23.25
-22.18
-17.88
-11.25
-3.81
3.06
8.64
13.04
16.69
19.87
22.31
23.32
22.21
18.85
13.95
8.91
5.15
3.44
3.65
4.87
5.98
6.31
5.87
5.27
5.12
5.63
6.43
6.74
5.91
3.73
0.63
-2.52
-4.91
-6.11
-6.37
-6.41
-7.09
-8.98
-12.08
-15.76
-19.09
-21.17
-21.53
-20.15
-17.36
-13.53
-8.84
-3.28
3.10
9.91
16.39
21.55
24.53
25.04
23.44
20.68
17.75
15.32
13.50
11.92
10.10
7.77
5.13
2.77
1.29
0.94
1.45
2.05
1.91
0.55
-1.85
-4.53
-6.59
-7.41
-7.05
-6.10
-5.39
-5.49
-6.41
-7.69
-8.81
-9.55
-10.15
-11.14
-12.78
-14.75
-16.14
-15.70
-12.66
-7.11
-0.12
6.71
11.97
14.93
15.79
15.41
14.67
14.01
13.30
11.96
9.53
5.99
1.92
-1.74
-4.17
-5.00
-4.48
-3.26
-1.96
-0.90
0.05
1.13
2.46
3.82
4.79
4.89
4.02
2.42
0.50
-1.45
-3.43
-5.66
-8.39
-11.69
-15.28
-18.82
-21.83
-24.04
-25.18
-25.07
-23.41
-20.02
-14.84
-8.26
-0.94
6.01
11.54
14.92
15.99
15.17
13.29
11.17
9.39
8.09
7.12
6.27
5.47
4.80
4.51
4.74
5.48
6.52
7.50
8.09
8.06
7.28
5.81
3.83
1.64
-0.38
-1.92
-2.86
-3.36
-3.89
-4.97
-6.94
-9.67
-12.57
-14.79
-15.58
-14.61
-12.14
-8.70
-4.89
-1.02
2.97
7.14
11.39
15.18
17.62
17.93
15.85
11.88
7.15
2.95
0.17
-1.01
-1.10
-0.85
-0.81
-0.97
-0.84
0.18
2.32
5.20
7.91
9.45
9.22
7.38
4.65
1.93
-0.23
-1.83
-3.27
-4.99
-6.97
-8.71
-9.31
-8.07
-4.96
-0.62
3.79
7.16
8.86
9.02
8.38
7.78
7.71
8.10
8.38
7.91
6.38
4.06
1.74
0.22
-0.13
0.39
0.99
0.79
-0.64
-3.01
-5.51
-7.29
-7.94
-7.73
-7.39
-7.72
-8.99
-10.80
-12.31
-12.79
-12.02
-10.54
-9.32
-9.33
-10.96
-13.82
-16.91
-19.11
-19.58
-18.14
-15.20
-11.46
-7.60
-3.98
-0.64
2.53
5.48
7.85
9.14
8.91
7.12
4.26
1.13
-1.49
-3.25
-4.26
-4.84
-5.19
-5.08
-3.93
-1.18
3.14
8.30
12.97
15.91
16.38
14.59
11.68
8.92
7.28
6.95
7.30
7.32
6.26
3.93
0.83
-2.56
-5.90
-9.09
-12.17
-14.70
-15.80
-14.45
-10.10
-3.49
3.65
9.20
11.74
11.23
9.03
6.93
6.19
6.58
6.84
5.54
2.06
-2.83
-7.38
-9.83
-9.24
-6.39
-3.01
-0.85
-0.73
-2.10
-3.43
-3.25
-0.90
2.67
5.76
6.81
5.29
2.12
-0.93
-2.29
-1.44
0.35
1.08
-0.88
-5.65
-11.62
-16.16
-17.16
-14.06
-8.52
-3.36
-1.03
-2.40
-6.28
-10.30
-12.29
-11.27
-8.07
-4.51
-2.35
-2.37
-4.17
-6.66
-8.74
-9.79
-10.07
-10.25
-10.94
-12.44
-14.55
-16.85
-18.96
-20.61
-22.09
-23.81
-26.19
-29.33
-32.83
-35.74
-36.84
-35.02
-29.85
-21.72
-11.98
-2.43
5.24
10.02
11.89
11.66
10.56
9.56
9.00
8.53
7.59
5.85
3.54
1.53
0.78
1.76
4.24
7.24
9.61
10.52
9.84
8.16
6.25
4.63
3.35
1.88
-0.39
-3.81
-8.26
-13.06
-17.34
-20.35
-21.74
-21.62
-20.36
-18.31
-15.62
-12.10
-7.50
-1.78
4.63
10.80
15.64
18.27
18.47
16.82
14.33
12.05
10.51
9.56
8.73
7.56
5.96
4.41
3.48
3.54
4.40
5.28
5.28
3.83
1.04
-2.30
-5.12
-6.76
-7.27
-7.52
-8.62
-11.27
-15.25
-19.24
-21.55
-20.85
-16.87
-10.54
-3.53
2.64
7.16
10.29
12.75
15.23
17.69
19.38
19.36
17.13
13.06
8.45
4.80
3.21
3.85
5.92
8.22
9.78
10.22
9.93
9.58
9.68
10.27
10.81
10.62
9.20
6.60
3.37
0.23
-2.27
-4.09
-5.54
-7.01
-8.48
-9.48
-9.09
-6.58
-1.88
4.25
10.41
15.10
17.40
17.23
15.32
12.65
9.98
7.63
5.43
3.16
0.91
-0.91
-1.59
-0.63
1.95
5.45
8.67
10.54
10.38
8.39
5.48
2.76
1.04
0.42
0.27
-0.35
-2.21
-5.48
-9.65
-13.91
-17.51
-20.03
-21.40
-21.71
-20.96
-18.94
-15.43
-10.41
-4.36
1.88
7.18
10.64
11.86
11.18
9.52
8.03
7.64
8.70
10.89
13.50
15.80
17.46
18.71
20.13
22.16
24.85
27.67
29.82
30.69
30.25
29.08
27.99
27.57
27.89
28.42
28.41
27.34
25.18
22.51
20.07
18.31
17.18
16.10
14.33
11.47
7.79
4.24
1.95
1.60
3.03
5.20
6.68
6.42
4.26
1.00
-2.05
-3.86
-4.23
-3.80
-3.67
-4.57
-6.58
-9.04
-11.09
-12.20
-12.54
-12.79
-13.63
-15.34
-17.56
-19.51
-20.58
-20.73
-20.56
-21.05
-22.88
-26.01
-29.53
-31.95
-31.94
-28.91
-23.34
-16.54
-10.08
-5.10
-1.83
0.13
1.54
2.90
4.05
4.46
3.56
1.26
-1.79
-4.65
-6.39
-6.60
-5.46
-3.55
-1.38
0.72
2.70
4.51
5.99
6.86
6.90
6.13
4.93
3.75
2.93
2.38
1.69
0.32
-2.10
-5.62
-9.86
-14.25
-18.03
-20.57
-21.44
-20.49
-17.87
-14.06
-9.63
-5.20
-1.10
2.46
5.42
7.72
9.19
9.54
8.65
6.69
4.29
2.39
1.83
2.98
5.51
8.42
10.60
11.25
10.34
8.49
6.56
5.03
3.82
2.24
-0.46
-4.62
-9.94
-15.61
-20.75
-24.82
-27.77
-29.88
-31.24
-31.64
-30.43
-26.93
-20.93
-12.94
-4.20
3.75
9.64
12.93
13.88
13.42
12.54
11.89
11.52
11.07
10.15
8.73
7.32
6.76
7.66
9.98
12.92
15.19
15.65
13.84
10.20
5.87
2.06
-0.54
-2.06
-3.26
-5.11
-8.29
-12.78
-17.97
-22.89
-26.71
-28.92
-29.49
-28.56
-26.25
-22.54
-17.27
-10.54
-2.84
4.83
11.22
15.28
16.58
15.54
13.29
11.18
10.17
10.54
11.83
13.26
14.15
14.40
14.33
14.43
14.88
15.39
15.22
13.67
10.52
6.25
1.81
-1.88
-4.41
-6.12
-7.74
-10.20
-13.83
-18.40
-23.21
-27.50
-30.70
-32.64
-33.38
-33.00
-31.34
-28.03
-22.66
-15.13
-5.91
3.86
12.80
19.62
23.70
25.25
25.07
24.12
23.07
22.08
21.01
19.74
18.44
17.66
17.88
19.22
21.14
22.60
22.70
20.92
17.58
13.68
10.25
7.97
6.79
6.02
4.84
2.80
0.05
-2.69
-5.11
-7.35
-10.19
-14.54
-20.72
-27.92
-34.50
-38.60
-39.42
-37.28
-33.34
-28.74
-23.70
-17.48
-9.11
1.65
13.38
23.68
30.14
31.64
28.93
24.21
20.03
18.11
18.39
19.73
20.71
20.60
19.74
19.22
19.91
21.98
24.20
24.85
22.66
17.53
10.83
4.71
0.90
-0.13
0.31
-0.02
-2.87
-8.51
-15.51
-21.51
-24.68
-24.54
-22.57
-21.11
-22.20
-26.45
-32.76
-38.75
-41.85
-40.18
-33.46
-22.82
-10.33
1.80
11.88
19.09
23.55
25.97
26.92
26.66
25.05
21.91
17.42
12.43
8.16
5.83
6.09
8.60
12.22
15.48
17.23
17.06
15.45
13.55
12.44
12.71
14.17
16.00
17.14
16.80
14.87
11.95
8.84
6.27
4.41
2.79
0.69
-2.51
-6.99
-12.38
-18.16
-23.88
-29.42
-34.76
-39.68
-43.31
-44.35
-41.39
-33.75
-21.97
-7.88
5.92
17.03
23.94
26.50
25.76
23.30
20.52
18.33
16.92
16.24
16.14
16.67
18.11
20.60
23.91
27.34
29.81
30.41
28.70
25.03
20.51
16.40
13.59
12.20
11.54
10.58
8.50
5.15
1.08
-2.85
-6.01
-8.35
-10.39
-12.82
-16.09
-20.09
-24.20
-27.75
-30.54
-32.85
-35.34
-38.50
-42.04
-44.76
-44.80
-40.54
-31.31
-17.93
-2.54
12.17
23.97
31.71
35.47
36.20
34.97
32.53
29.15
24.97
20.31
15.87
12.67
11.50
12.56
15.32
18.65
21.37
22.74
22.78
22.28
22.21
23.20
25.14
27.16
28.07
27.01
23.93
19.74
15.78
13.17
12.30
12.63
13.08
12.74
11.35
9.41
7.83
7.28
7.77
8.59
8.77
7.67
5.41
2.86
1.18
1.06
2.41
4.35
5.70
5.70
4.29
2.22
0.46
-0.33
-0.12
0.50
0.80
0.31
-0.83
-1.97
-2.40
-1.79
-0.41
0.97
1.53
0.80
-1.04
-3.26
-4.98
-5.69
-5.47
-5.02
-5.20
-6.57
-9.05
-11.92
-14.26
-15.46
-15.48
-14.91
-14.60
-15.26
-17.17
-20.11
-23.69
-27.59
-31.64
-35.73
-39.50
-42.22
-42.78
-40.19
-33.95
-24.54
-13.36
-2.36
6.61
12.47
15.07
15.14
13.74
11.73
9.51
7.04
4.14
0.86
-2.36
-4.63
-5.23
-3.86
-0.94
2.49
5.25
6.61
6.57
5.83
5.19
5.09
5.20
4.63
2.49
-1.53
-6.69
-11.68
-15.04
-16.03
-14.94
-12.89
-11.15
-10.59
-11.17
-12.36
-13.37
-13.78
-13.50
-12.61
-10.96
-8.21
-3.98
1.74
8.38
14.84
20.05
23.37
24.84
24.98
24.48
23.86
23.24
22.55
21.61
20.22
18.30
15.73
12.62
8.98
4.98
0.93
-2.91
-6.35
-9.25
-11.67
-13.67
-15.60
-17.73
-20.28
-23.26
-26.44
-29.33
-31.56
-33.02
-34.18
-35.66
-37.95
-40.86
-43.52
-44.51
-42.67
-37.60
-29.90
-20.98
-12.47
-5.57
-0.81
1.95
3.15
3.44
3.29
3.10
3.08
3.34
3.80
4.35
4.91
5.61
6.63
8.13
9.99
11.78
12.78
12.44
10.58
7.55
4.03
0.69
-2.12
-4.49
-6.84
-9.54
-12.74
-16.21
-19.41
-21.73
-22.77
-22.37
-20.70
-17.95
-14.31
-9.81
-4.37
1.92
8.63
14.90
19.63
21.91
21.39
18.49
14.29
10.07
6.79
4.83
3.94
3.56
3.22
2.80
2.66
3.18
4.50
6.27
7.78
8.25
7.33
5.30
2.96
1.22
0.48
0.42
0.11
-1.51
-5.00
-9.98
-15.18
-19.01
-20.19
-18.36
-14.08
-8.58
-3.09
1.75
5.99
10.05
14.26
18.36
21.51
22.75
21.44
17.83
12.99
8.28
4.86
3.18
2.91
3.32
3.77
4.03
4.29
4.85
5.75
6.58
6.68
5.50
2.99
-0.22
-3.14
-4.85
-5.16
-4.68
-4.66
-6.22
-9.75
-14.57
-19.11
-21.71
-21.34
-18.07
-12.90
-7.22
-2.10
2.26
6.14
10.09
14.22
18.01
20.54
20.91
18.85
14.87
9.79
4.63
0.22
-2.91
-4.32
-3.60
-0.58
4.42
10.24
15.18
17.60
16.72
12.98
7.89
3.30
0.51
-0.26
0.18
0.55
-0.26
-2.65
-6.33
-10.47
-13.87
-15.81
-15.80
-13.88
-10.45
-5.98
-0.87
4.65
10.48
15.93
20.00
21.67
20.37
16.63
12.04
8.50
7.43
8.65
10.78
11.98
11.16
8.62
5.87
4.66
5.94
9.01
12.20
13.72
12.69
9.62
5.91
3.05
1.81
1.49
0.90
-1.00
-4.18
-7.32
-8.48
-6.19
-0.35
7.19
13.70
16.85
15.84
11.80
7.06
3.79
3.13
4.56
6.70
8.17
8.38
7.60
6.63
5.99
5.95
6.15
6.09
5.47
4.17
2.45
0.55
-1.28
-2.75
-3.91
-4.93
-6.18
-8.05
-10.80
-14.40
-18.50
-22.52
-25.96
-28.71
-30.97
-33.23
-35.82
-38.60
-40.83
-41.31
-38.98
-33.39
-25.06
-15.38
-6.09
1.40
6.39
9.13
10.39
10.97
11.29
11.20
10.29
8.27
5.34
2.29
0.17
-0.24
1.18
3.78
6.41
7.96
7.93
6.57
4.63
2.89
1.73
0.90
-0.15
-1.85
-4.17
-6.46
-7.91
-8.09
-7.22
-6.20
-6.07
-7.36
-9.70
-11.81
-12.15
-9.68
-4.38
2.62
9.66
15.30
18.86
20.67
21.64
22.53
23.52
24.10
23.49
21.23
17.64
13.83
11.09
10.28
11.35
13.36
15.05
15.40
14.18
12.02
9.90
8.67
8.55
9.09
9.48
9.05
7.62
5.65
3.89
2.95
2.99
3.57
4.04
3.82
2.80
1.41
0.23
-0.24
0.03
0.56
0.67
-0.16
-2.03
-4.41
-6.70
-8.34
-9.24
-9.84
-10.70
-12.28
-14.59
-17.13
-19.31
-20.67
-21.22
-21.41
-21.84
-22.86
-24.43
-26.08
-27.26
-27.76
-27.91
-28.57
-30.71
-34.77
-40.36
-46.06
-50.06
-50.76
-47.41
-40.44
-31.17
-21.23
-11.94
-3.87
2.97
8.77
13.49
16.69
17.85
16.71
13.72
10.00
6.94
5.61
6.33
8.56
11.17
13.03
13.50
12.66
11.07
9.32
7.64
5.71
2.94
-1.15
-6.43
-12.10
-17.07
-20.53
-22.39
-23.31
-24.24
-25.78
-27.68
-28.83
-27.92
-24.03
-17.30
-8.84
-0.28
6.90
11.98
15.09
16.76
17.50
17.33
15.93
13.03
8.83
4.21
0.53
-1.00
0.09
3.22
7.03
9.94
10.83
9.54
6.81
3.80
1.51
0.19
-0.57
-1.72
-4.13
-8.18
-13.59
-19.62
-25.40
-30.17
-33.47
-34.98
-34.42
-31.48
-25.99
-18.20
-8.87
0.69
9.00
14.92
18.01
18.73
18.14
17.43
17.31
17.85
18.49
18.59
17.86
16.67
15.76
15.83
16.99
18.53
19.30
18.35
15.42
11.21
6.80
3.13
0.45
-1.75
-4.38
-8.06
-12.86
-18.14
-22.98
-26.44
-27.80
-26.66
-22.83
-16.32
-7.51
2.81
13.37
22.77
29.80
33.81
34.73
33.14
29.81
25.61
21.15
16.88
13.14
10.32
8.72
8.63
9.97
12.28
14.57
15.73
14.99
12.29
8.22
3.93
0.46
-1.55
-2.17
-2.09
-2.10
-2.89
-4.89
-8.08
-12.19
-16.55
-20.25
-22.22
-21.51
-17.63
-10.84
-2.07
7.34
16.14
23.48
28.96
32.45
33.91
33.22
30.38
25.73
20.21
15.09
11.62
10.45
11.37
13.36
15.18
15.88
15.20
13.64
11.83
10.27
8.85
7.04
4.23
0.18
-4.71
-9.48
-13.14
-15.20
-15.96
-16.46
-17.94
-21.13
-25.74
-30.44
-33.42
-33.14
-29.05
-21.80
-12.87
-3.91
4.01
10.55
15.94
20.41
23.81
25.56
25.07
22.20
17.66
12.88
9.38
8.12
9.05
11.19
13.14
13.79
12.78
10.54
7.90
5.56
3.63
1.68
-0.88
-4.42
-8.63
-12.74
-15.96
-18.01
-19.43
-21.32
-24.66
-29.61
-35.07
-39.06
-39.47
-35.09
-26.25
-14.66
-2.70
7.61
15.24
20.34
23.61
25.69
26.68
26.21
23.88
19.82
14.95
10.67
8.26
8.23
10.13
12.73
14.68
15.12
14.03
11.96
9.64
7.40
5.08
2.17
-1.69
-6.36
-11.11
-15.06
-17.71
-19.36
-21.04
-23.91
-28.53
-34.19
-38.86
-40.22
-36.46
-27.44
-14.79
-1.22
10.68
19.43
24.97
27.82
28.67
27.65
24.64
19.94
14.61
10.36
8.78
10.22
13.74
17.52
19.93
20.43
19.80
19.37
20.13
21.79
23.11
22.58
19.35
13.88
7.57
2.03
-1.61
-3.79
-5.78
-9.12
-14.70
-22.06
-29.60
-35.28
-37.39
-35.86
-31.76
-26.71
-21.89
-17.22
-11.70
-4.26
5.26
15.15
22.83
26.03
24.17
18.92
13.35
10.39
11.50
15.68
20.60
23.97
24.79
23.85
22.99
23.69
26.29
29.32
30.60
28.45
22.60
14.49
6.38
0.23
-2.98
-3.69
-3.02
-2.01
-0.99
0.44
2.90
6.69
11.70
17.11
21.91
25.32
26.93
26.79
25.28
22.99
20.69
18.85
17.71
17.16
16.77
16.08
14.88
13.30
11.91
11.16
11.25
11.78
11.98
11.02
8.48
4.61
0.23
-3.63
-6.28
-7.69
-8.49
-9.60
-11.74
-15.12
-19.22
-23.20
-26.29
-28.18
-29.17
-29.89
-31.05
-33.04
-35.77
-38.96
-42.27
-45.45
-48.32
-50.49
-51.29
-49.77
-45.01
-36.70
-25.39
-12.61
-0.41
9.31
15.37
17.72
17.25
15.34
13.24
11.70
10.81
10.37
10.12
10.05
10.51
11.79
13.92
16.49
18.75
19.94
19.69
18.19
16.13
14.30
13.20
12.80
12.51
11.69
9.92
7.34
4.62
2.59
1.74
1.91
2.20
1.55
-0.83
-4.96
-9.83
-13.96
-15.97
-15.15
-11.78
-6.85
-1.64
2.87
6.29
8.67
10.25
11.03
10.79
9.23
6.41
2.95
0.03
-1.15
0.11
3.55
7.96
11.77
13.70
13.35
11.32
8.69
6.41
4.79
3.43
1.58
-1.24
-5.00
-9.04
-12.47
-14.68
-15.61
-15.74
-15.65
-15.69
-15.69
-15.03
-13.05
-9.46
-4.64
0.42
4.61
7.10
7.66
6.82
5.33
3.83
2.48
0.98
-1.09
-3.91
-7.10
-9.79
-11.04
-10.37
-8.05
-5.03
-2.49
-1.35
-1.81
-3.38
-5.29
-6.93
-8.16
-9.39
-11.12
-13.60
-16.58
-19.33
-21.17
-21.90
-22.00
-22.48
-24.24
-27.47
-31.41
-34.41
-34.77
-31.46
-24.60
-15.49
-6.05
1.97
7.58
10.79
12.27
12.77
12.75
12.13
10.65
8.26
5.39
3.01
2.15
3.33
6.33
10.09
13.29
14.95
14.83
13.51
11.85
10.52
9.57
8.46
6.46
3.16
-1.31
-6.22
-10.82
-14.74
-18.20
-21.81
-26.09
-30.93
-35.40
-38.03
-37.44
-33.04
-25.36
-15.85
-6.27
2.00
8.37
12.92
16.09
18.18
19.19
19.01
17.74
15.85
14.10
13.30
13.79
15.29
17.06
18.17
17.96
16.26
13.41
10.10
6.97
4.34
2.09
-0.31
-3.41
-7.41
-11.83
-15.68
-17.73
-17.12
-13.80
-8.52
-2.44
3.32
8.20
11.98
14.68
16.31
16.64
15.58
13.37
10.67
8.31
6.93
6.60
6.86
7.06
6.65
5.62
4.28
3.07
2.17
1.41
0.44
-1.00
-2.93
-5.03
-6.96
-8.46
-9.64
-10.81
-12.24
-14.07
-16.26
-18.59
-21.03
-23.57
-26.35
-29.35
-32.27
-34.41
-34.99
-33.23
-28.79
-21.83
-12.98
-3.30
6.02
13.87
19.32
21.94
21.72
19.23
15.39
11.22
7.55
4.81
2.99
1.92
1.42
1.58
2.61
4.60
7.31
10.09
12.02
12.46
11.24
8.87
6.41
4.87
4.79
5.98
7.54
8.40
7.77
5.49
2.10
-1.52
-4.59
-6.65
-7.70
-7.93
-7.43
-6.05
-3.48
0.44
5.46
10.75
15.08
17.33
16.97
14.30
10.47
6.90
4.66
4.09
4.66
5.51
5.94
5.84
5.73
6.31
7.93
10.30
12.53
13.62
12.93
10.50
7.06
3.56
0.61
-1.72
-3.94
-6.76
-10.64
-15.52
-20.79
-25.64
-29.42
-31.85
-32.96
-32.95
-31.88
-29.60
-25.91
-20.75
-14.56
-8.17
-2.68
1.07
2.73
2.67
1.69
0.67
0.20
0.29
0.71
1.10
1.41
1.99
3.33
5.78
9.18
12.84
15.64
16.53
14.91
11.09
6.06
1.19
-2.36
-4.25
-4.86
-5.12
-5.88
-7.51
-9.81
-12.22
-14.21
-15.44
-15.76
-14.95
-12.68
-8.49
-2.27
5.49
13.63
20.63
25.25
26.84
25.74
23.14
20.28
18.28
17.51
17.61
17.84
17.59
16.71
15.55
14.33
13.09
11.51
9.16
6.03
2.73
0.19
-0.88
-0.85
-0.93
-2.72
-7.29
-14.52
-23.07
-31.12
-37.15
-40.82
-42.64
-43.37
-43.33
-41.98
-38.33
-31.67
-22.12
-11.39
-1.71
5.01
8.09
8.46
8.03
8.56
10.82
13.82
15.75
15.12
11.75
7.08
3.34
2.33
4.40
7.82
10.07
9.04
4.38
-2.36
-8.58
-12.13
-12.41
-10.86
-9.93
-11.66
-16.58
-23.48
-30.10
-34.33
-34.96
-32.25
-27.28
-21.28
-15.13
-9.18
-3.42
2.07
7.16
11.34
14.11
15.11
14.26
11.89
8.65
5.35
3.01
2.17
3.02
5.20
8.02
10.75
12.88
14.29
15.17
15.77
16.13
16.02
15.01
12.68
8.97
4.23
-0.74
-5.22
-8.83
-11.80
-14.85
-18.79
-23.92
-29.68
-34.69
-37.26
-36.01
-30.52
-21.62
-10.99
-0.53
8.27
14.83
19.34
22.34
24.23
24.98
24.34
22.12
18.58
14.61
11.43
10.03
10.73
13.01
15.76
17.77
18.31
17.42
15.74
14.04
12.73
11.70
10.41
8.36
5.47
2.19
-0.80
-3.08
-4.85
-6.93
-10.36
-15.70
-22.61
-29.66
-34.85
-36.42
-33.51
-26.54
-16.96
-6.62
2.90
10.81
17.03
21.76
25.10
26.85
26.63
24.34
20.50
16.27
13.11
12.10
13.46
16.43
19.72
22.15
23.17
23.04
22.44
21.97
21.64
20.93
19.13
15.84
11.34
6.52
2.41
-0.42
-2.16
-3.74
-6.32
-10.69
-16.83
-23.72
-29.76
-33.38
-33.49
-29.91
-23.33
-14.86
-5.68
3.31
11.57
18.72
24.36
27.93
28.97
27.38
23.63
18.93
14.66
11.98
11.33
12.30
13.99
15.44
16.13
16.15
15.94
15.91
16.07
15.96
15.01
12.85
9.69
6.29
3.55
2.03
1.66
1.76
1.33
-0.37
-3.55
-7.78
-12.29
-16.38
-19.65
-22.03
-23.61
-24.24
-23.54
-20.92
-16.06
-9.27
-1.51
5.77
11.28
14.30
14.93
13.96
