1552507883.00
64.000000
-0.00
-0.00
-0.00
-0.00
-0.00
-0.00
-0.00
-0.00
-0.00
-0.00
0.00
0.01
0.01
-0.00
-0.03
-0.05
-0.05
0.00
0.13
0.36
0.66
1.01
1.37
1.72
2.06
2.40
2.79
3.24
3.80
4.42
5.06
5.66
6.20
6.68
7.15
7.68
8.31
9.14
10.09
11.04
11.88
12.56
13.14
13.76
14.65
15.96
17.91
20.32
22.90
25.38
27.58
29.57
31.68
34.32
37.81
42.54
48.15
54.10
59.83
64.97
69.58
74.14
79.34
85.71
93.76
103.00
112.62
121.73
129.77
136.75
143.30
150.75
157.77
166.64
177.95
191.79
206.97
220.57
228.25
225.36
208.53
176.87
132.76
80.05
23.07
-34.94
-92.44
-149.16
-205.23
-260.37
-313.74
-363.87
-409.83
-450.91
-486.50
-515.74
-537.23
-549.22
-549.96
-538.37
-514.21
-478.68
-433.88
-382.45
-327.02
-269.84
-212.63
-156.65
-102.94
-52.35
-5.87
35.64
71.51
101.47
125.65
144.58
158.94
169.45
176.72
181.16
183.04
182.60
180.10
175.89
170.38
163.97
157.01
149.75
142.33
134.81
127.25
119.67
112.15
104.75
97.56
90.61
83.94
77.58
71.53
65.79
60.38
55.32
50.61
46.25
42.25
38.59
35.28
32.30
29.66
27.34
25.34
23.66
22.30
21.23
20.47
19.98
19.75
19.77
20.02
20.48
21.14
22.00
23.04
24.24
25.58
27.02
28.49
29.91
31.16
32.10
32.57
32.42
31.51
29.76
27.11
23.59
19.25
14.26
8.80
3.13
-2.49
-7.81
-12.58
-16.64
-19.84
-22.12
-23.48
-23.97
-23.70
-22.78
-21.37
-19.58
-17.54
-15.34
-13.04
-10.69
-8.32
-5.96
-3.63
-1.31
1.01
3.36
5.76
8.25
10.87
13.59
16.40
19.29
22.27
25.36
28.57
31.93
35.51
39.38
43.42
47.59
51.87
56.24
60.74
65.38
70.24
75.38
80.92
86.67
92.55
98.49
104.47
110.44
116.43
122.43
128.49
134.70
140.74
146.36
151.36
155.48
158.42
159.78
158.96
155.07
149.76
143.54
136.75
129.61
122.26
114.83
107.42
100.17
93.23
86.78
80.62
74.65
68.80
63.04
57.36
51.77
46.36
41.24
36.59
32.27
28.21
24.36
20.65
17.08
13.62
10.33
7.28
4.58
2.15
-0.11
-2.28
-4.47
-6.73
-9.09
-11.47
-13.75
-15.77
-17.49
-18.99
-20.43
-22.02
-23.98
-26.37
-29.11
-31.95
-34.65
-37.09
-39.38
-41.89
-45.08
-49.38
-54.94
-61.56
-68.79
-76.09
-83.14
-90.00
-97.13
-105.21
-114.85
-126.26
-139.16
-152.92
-166.84
-180.48
-193.80
-207.17
-221.21
-236.72
-254.64
-275.88
-300.80
-328.55
-356.56
-380.70
-396.32
-399.81
-390.00
-368.53
-339.03
-305.55
-271.19
-237.56
-205.17
-174.29
-145.60
-120.02
-98.12
-79.67
-63.54
-48.37
-33.39
-18.77
-5.48
5.30
12.84
17.23
19.32
20.33
21.41
23.30
26.17
29.76
33.51
36.80
39.15
40.39
40.65
40.31
39.78
39.38
39.15
38.91
38.37
37.29
35.58
33.23
30.37
27.14
23.74
20.37
17.23
14.39
11.76
9.16
6.38
3.30
0.13
-2.62
-4.26
-4.14
-1.87
2.56
8.81
16.35
24.52
32.58
39.77
45.30
48.55
49.20
47.39
43.74
39.24
34.97
31.82
30.29
30.41
31.80
33.82
35.87
37.57
38.85
39.90
40.85
41.70
42.13
41.72
40.17
37.54
34.22
30.78
27.71
25.18
23.09
21.19
19.25
17.18
15.01
12.83
10.68
8.58
6.54
4.55
2.68
0.95
-0.65
-2.21
-3.90
-5.87
-8.18
-10.81
-13.70
-16.83
-20.30
-24.26
-28.75
-33.55
-38.08
-41.40
-42.49
-40.57
-35.35
-27.19
-17.04
-6.17
4.13
12.84
19.41
23.70
25.86
26.16
24.90
22.42
19.31
16.30
14.27
13.87
15.32
18.26
21.89
25.32
27.85
29.24
29.62
29.33
28.68
27.76
26.57
25.09
23.40
21.63
19.94
18.40
16.97
15.62
14.31
13.06
11.91
10.92
10.06
9.29
8.47
7.49
6.17
4.35
1.97
-0.90
-3.99
-6.90
-9.26
-10.99
-12.28
-13.64
-15.64
-18.69
-22.89
-27.93
-33.16
-37.73
-40.75
-41.40
-39.15
-33.81
-25.77
-15.88
-5.41
4.27
12.06
17.36
20.20
21.04
20.58
19.46
18.13
16.87
15.86
15.36
15.65
17.01
19.45
22.70
26.17
29.20
31.26
32.18
32.09
31.28
29.98
28.23
25.96
23.12
19.93
16.80
14.28
12.73
12.13
12.13
12.18
11.84
10.92
9.51
7.87
6.25
4.76
3.40
2.06
0.64
-0.94
-2.61
-4.28
-5.84
-7.31
-8.81
-10.52
-12.64
-15.25
-18.37
-21.92
-25.74
-29.55
-32.86
-34.99
-35.25
-33.05
-28.24
-21.21
-12.82
-4.14
3.79
10.20
14.60
16.78
16.81
15.02
11.97
8.44
5.18
2.88
2.00
2.76
5.12
8.80
13.21
17.60
21.13
23.18
23.52
22.41
20.46
18.32
16.45
15.02
13.89
12.88
11.85
10.79
9.76
8.86
8.08
7.33
6.47
5.35
3.94
2.34
0.70
-0.81
-2.07
-3.10
-4.03
-5.02
-6.20
-7.71
-9.66
-12.18
-15.34
-19.10
-23.28
-27.59
-31.71
-35.29
-37.97
-39.30
-38.78
-35.91
-30.49
-22.80
-13.64
-4.23
4.21
10.76
14.99
16.92
16.88
15.34
12.77
9.72
6.76
4.49
3.49
4.07
6.26
9.69
13.71
17.62
20.84
23.02
24.11
24.23
23.55
22.18
20.25
17.87
15.31
12.90
10.94
9.50
8.42
7.35
5.95
4.11
2.07
0.19
-1.19
-2.02
-2.54
-3.17
-4.28
-5.98
-8.21
-10.78
-13.54
-16.43
-19.42
-22.42
-25.32
-28.09
-30.85
-33.83
-37.14
-40.54
-43.33
-44.55
-43.30
-39.13
-32.32
-23.73
-14.53
-5.85
1.54
7.26
11.28
13.81
15.14
15.51
15.17
14.36
13.35
12.51
12.23
12.86
14.55
17.17
20.32
23.47
26.16
28.09
29.20
29.56
29.26
28.33
26.75
24.51
21.76
18.81
16.05
13.85
12.39
11.58
11.13
10.68
9.93
8.79
7.30
5.63
3.98
2.48
1.14
-0.18
-1.66
-3.43
-5.51
-7.72
-9.86
-11.77
-13.48
-15.25
-17.37
-20.04
-23.22
-26.74
-30.42
-34.17
-37.95
-41.59
-44.52
-45.84
-44.54
-39.94
-32.09
-21.87
-10.73
-0.33
8.01
13.64
16.56
17.30
16.51
14.83
12.77
10.75
9.18
8.50
9.03
10.87
13.80
17.36
20.96
24.08
26.35
27.63
27.96
27.57
26.74
25.79
24.89
24.00
22.96
21.58
19.85
17.99
16.30
15.05
14.33
13.97
13.73
13.38
12.78
11.82
10.45
8.66
6.58
4.47
2.54
0.93
-0.55
-2.24
-4.42
-7.15
-10.22
-13.23
-15.81
-17.84
-19.43
-20.85
-22.42
-24.41
-26.97
-30.08
-33.51
-36.76
-39.08
-39.61
-37.68
-33.04
-26.00
-17.45
-8.52
-0.36
6.18
10.70
13.20
13.98
13.43
11.99
10.05
8.04
6.40
5.61
6.05
7.83
10.71
14.12
17.39
19.93
21.44
21.99
21.82
21.25
20.50
19.65
18.70
17.68
16.66
15.78
15.07
14.51
13.92
13.10
11.86
10.19
8.20
6.16
4.37
3.06
2.29
1.93
1.64
1.05
-0.18
-2.17
-4.84
-7.96
-11.29
-14.61
-17.71
-20.50
-22.93
-25.07
-27.14
-29.44
-32.12
-35.08
-37.82
-39.52
-39.35
-36.66
-31.30
-23.71
-14.74
-5.50
2.94
9.72
14.37
16.74
17.08
15.79
13.47
10.73
8.21
6.49
6.02
7.09
9.56
13.06
17.01
20.84
24.15
26.77
28.66
29.77
30.03
29.35
27.73
25.31
22.36
19.20
16.10
13.21
10.56
8.14
5.97
4.04
2.40
1.05
-0.01
-0.87
-1.67
-2.59
-3.77
-5.28
-7.04
-8.85
-10.61
-12.26
-13.85
-15.52
-17.31
-19.23
-21.29
-23.57
-26.27
-29.55
-33.25
-36.85
-39.40
-39.86
-37.48
-32.08
-24.17
-14.78
-5.15
3.66
10.93
16.31
19.77
21.41
21.42
20.04
17.68
14.91
12.44
10.97
10.94
12.48
15.27
18.74
22.23
25.18
27.27
28.40
28.71
28.31
27.33
25.76
23.66
21.10
18.37
15.84
13.84
12.46
11.49
10.54
9.22
7.40
5.29
3.26
1.66
0.62
0.08
-0.17
-0.37
-0.75
-1.62
-3.19
-5.58
-8.63
-11.97
-15.09
-17.62
-19.44
-20.77
-22.01
-23.58
-25.77
-28.67
-32.06
-35.45
-38.05
-38.96
-37.44
-33.22
-26.58
-18.30
-9.33
-0.59
7.17
13.29
17.20
18.49
17.14
13.67
9.11
4.75
1.70
0.56
1.31
3.49
6.51
9.86
13.23
16.36
19.00
20.86
21.71
21.51
20.47
18.94
17.32
15.86
14.56
13.24
11.73
9.92
7.95
6.04
4.43
3.26
2.46
1.86
1.22
0.41
-0.59
-1.65
-2.64
-3.52
-4.44
-5.66
-7.45
-9.84
-12.65
-15.56
-18.34
-21.05
-24.01
-27.61
-31.97
-36.72
-41.04
-43.91
-44.42
-42.05
-36.79
-29.13
-19.95
-10.36
-1.46
5.84
11.11
14.30
15.67
15.53
14.14
11.76
8.79
5.94
4.13
4.19
6.40
10.42
15.29
19.94
23.59
25.98
27.26
27.69
27.45
26.52
24.94
22.78
20.36
17.97
15.85
14.01
12.30
10.57
8.78
7.08
5.61
4.49
3.56
2.56
1.18
-0.78
-3.35
-6.42
-9.76
-13.10
-16.14
-18.65
-20.60
-22.11
-23.53
-25.33
-27.98
-31.68
-36.28
-41.15
-45.31
-47.63
-47.13
-43.33
-36.29
-26.78
-15.95
-5.12
4.61
12.43
17.97
21.23
22.40
21.86
20.07
17.58
15.00
12.92
11.80
11.88
13.16
15.40
18.17
21.05
23.71
25.96
27.70
28.84
29.24
28.67
27.02
24.42
21.29
18.28
15.93
14.47
13.76
13.35
12.84
12.00
10.91
9.83
8.96
8.34
7.79
7.01
5.75
3.85
1.33
-1.66
-4.84
-7.88
-10.50
-12.65
-14.54
-16.64
-19.54
-23.62
-28.90
-34.90
-40.72
-45.18
-47.21
-45.98
-41.27
-33.49
-23.61
-12.97
-2.86
5.73
12.29
16.70
19.10
19.69
18.71
16.48
13.53
10.56
8.38
7.60
8.51
10.95
14.38
18.12
21.54
24.24
26.09
27.12
27.46
27.12
26.08
24.36
22.12
19.64
17.26
15.12
13.25
11.46
9.59
7.64
5.84
4.49
3.77
3.60
3.67
3.50
2.70
1.08
-1.30
-4.22
-7.36
-10.43
-13.23
-15.67
-17.73
-19.53
-21.33
-23.51
-26.51
-30.59
-35.58
-40.78
-44.99
-46.85
-45.31
-39.94
-31.18
-20.19
-8.45
2.57
11.80
18.61
22.81
24.48
23.85
21.32
17.44
12.94
8.72
5.64
4.36
5.16
7.81
11.68
15.91
19.71
22.54
24.21
24.79
24.43
23.24
21.25
18.58
15.47
12.30
9.45
7.13
5.29
3.64
1.96
0.22
-1.31
-2.26
-2.32
-1.51
-0.19
1.07
1.71
1.37
-0.01
-2.24
-5.00
-8.03
-11.23
-14.66
-18.50
-22.91
-27.91
-33.30
-38.55
-42.80
-45.03
-44.33
-40.25
-32.96
-23.36
-12.69
-2.22
7.09
14.78
20.64
24.60
26.50
26.26
24.00
20.27
15.98
12.22
9.89
9.42
10.78
13.52
17.07
20.87
24.50
27.65
30.00
31.27
31.26
29.91
27.44
24.25
20.82
17.59
14.82
12.55
10.69
9.04
7.42
5.71
3.88
2.05
0.38
-0.98
-1.96
-2.63
-3.25
-4.15
-5.66
-7.95
-10.98
-14.55
-18.27
-21.89
-25.30
-28.70
-32.43
-36.80
-41.80
-46.89
-51.02
-52.97
-51.74
-46.93
-38.88
-28.49
-16.96
-5.44
5.07
13.78
20.13
23.71
24.45
22.67
19.11
14.82
10.90
8.24
7.32
8.20
10.56
13.90
17.67
21.39
24.69
27.24
28.81
29.27
28.62
27.06
24.91
22.56
20.32
18.33
16.59
14.97
13.33
11.59
9.73
7.83
6.01
4.44
3.23
2.41
1.77
1.00
-0.24
-2.16
-4.71
-7.60
-10.43
-12.94
-15.11
-17.18
-19.50
-22.42
-26.07
-30.33
-34.75
-38.60
-40.97
-40.96
-37.97
-31.95
-23.42
-13.41
-3.19
6.13
13.72
19.18
22.36
23.29
22.14
19.20
15.04
10.46
6.42
3.82
3.26
4.88
8.29
12.80
17.54
21.74
24.82
26.50
26.78
25.91
24.29
22.26
20.07
17.74
15.19
12.35
9.29
6.24
3.53
1.44
0.01
-0.91
-1.70
-2.71
-4.21
-6.30
-8.87
-11.70
-14.49
-17.03
-19.30
-21.51
-24.09
-27.42
-31.70
-36.76
-42.10
-46.96
-50.59
-52.26
-51.39
-47.61
-40.83
-31.43
-20.25
-8.56
2.33
11.32
17.84
21.79
23.35
22.85
20.61
17.06
12.85
8.86
6.07
5.23
6.62
9.99
14.59
19.46
23.73
26.85
28.62
29.11
28.56
27.23
25.29
22.89
20.15
17.29
14.52
11.98
9.72
7.62
5.55
3.38
1.14
-1.10
-3.22
-5.18
-6.98
-8.62
-10.13
-11.54
-13.05
-14.90
-17.45
-20.88
-25.21
-30.21
-35.56
-40.97
-46.25
-51.14
-55.16
-57.55
-57.39
-53.84
-46.57
-35.97
-23.14
-9.68
2.72
12.72
19.51
22.97
23.47
21.71
18.54
14.86
11.56
9.48
9.29
11.33
15.48
21.14
27.30
32.91
37.08
39.35
39.72
38.53
36.25
33.37
30.22
27.05
24.06
21.46
19.37
17.79
16.51
15.23
13.67
11.76
9.64
7.58
5.79
4.27
2.85
1.27
-0.64
-2.95
-5.67
-8.83
-12.48
-16.57
-20.89
-25.03
-28.67
-31.70
-34.45
-37.53
-41.49
-46.39
-51.64
-56.02
-58.10
-56.65
-51.11
-41.73
-29.48
-15.79
-2.19
10.02
19.93
27.00
31.00
31.99
30.39
26.97
22.88
19.34
17.31
17.24
18.98
21.97
25.52
29.07
32.20
34.63
36.16
36.56
35.77
33.89
31.19
28.06
24.84
21.74
18.93
16.49
14.50
13.03
11.98
11.14
10.21
9.00
7.45
5.74
4.06
2.58
1.21
-0.24
-2.02
-4.24
-6.85
-9.69
-12.60
-15.54
-18.51
-21.54
-24.68
-27.96
-31.53
-35.55
-40.09
-44.81
-48.92
-51.27
-50.74
-46.64
-38.96
-28.39
-16.07
-3.29
8.66
18.65
25.79
29.45
29.51
26.42
21.24
15.43
10.46
7.53
7.19
9.39
13.54
18.77
24.19
29.00
32.60
34.56
34.69
33.06
30.07
26.32
22.45
18.91
15.85
13.12
10.43
7.67
4.92
2.48
0.66
-0.41
-0.94
-1.32
-1.99
-3.19
-4.88
-6.87
-8.91
-10.93
-13.04
-15.47
-18.39
-21.75
-25.37
-29.07
-32.87
-37.01
-41.79
-47.16
-52.48
-56.55
-57.90
-55.37
-48.60
-38.14
-25.27
-11.60
1.34
12.35
20.62
25.71
27.62
26.79
24.02
20.30
16.61
13.73
12.15
12.21
14.00
17.37
21.80
26.50
30.55
33.24
34.31
33.94
32.63
30.81
28.71
26.32
23.56
20.47
17.23
14.15
11.47
9.23
7.29
5.43
3.48
1.42
-0.59
-2.41
-3.99
-5.45
-7.07
-9.09
-11.56
-14.33
-17.13
-19.79
-22.29
-24.83
-27.73
-31.34
-35.97
-41.80
-48.77
-56.38
-63.57
-68.86
-70.68
-67.91
-60.28
-48.52
-34.13
-18.93
-4.60
7.56
16.72
22.48
24.89
24.43
21.95
18.61
15.58
13.78
13.74
15.51
18.75
22.83
26.92
30.19
31.98
32.05
30.65
28.47
26.29
24.63
23.43
22.17
20.19
17.13
13.21
9.15
5.82
3.84
3.25
3.62
4.21
4.26
3.22
0.79
-3.13
-8.32
-14.36
-20.58
-26.22
-30.61
-33.49
-35.22
-36.63
-38.70
-41.93
-46.00
-49.60
-50.88
-48.24
-40.92
-29.50
-15.58
-1.27
11.62
21.98
29.49
34.31
36.76
37.09
35.49
32.33
28.24
24.13
20.98
19.48
19.88
21.84
24.63
27.42
29.57
30.79
31.16
31.04
30.80
30.68
30.56
30.00
28.38
25.26
20.58
14.86
9.08
4.27
1.06
-0.54
-1.17
-1.67
-2.59
-3.91
-5.06
-5.38
-4.55
-2.87
-1.11
-0.17
-0.66
-2.72
-6.27
-11.17
-17.34
-24.49
-31.88
-38.18
-41.76
-41.26
-36.28
-27.56
-16.64
-5.30
5.10
13.86
20.78
25.83
28.92
29.88
28.66
25.61
21.55
17.65
15.09
14.72
16.75
20.74
25.76
30.71
34.71
37.27
38.29
37.93
36.36
33.64
29.76
24.80
19.15
13.48
8.64
5.30
3.69
3.50
4.02
4.43
4.17
3.08
1.33
-0.75
-2.92
-5.08
-7.31
-9.80
-12.81
-16.66
-21.75
-28.25
-35.94
-43.87
-50.47
-53.94
-52.83
-46.64
-36.04
-22.65
-8.49
4.56
15.17
22.64
26.86
28.04
26.72
23.64
19.75
16.09
13.55
12.70
13.60
15.84
18.68
21.36
23.33
24.35
24.51
23.99
22.91
21.22
18.75
15.35
11.06
6.13
1.02
-3.77
-7.89
-11.11
-13.46
-15.07
-16.15
-16.93
-17.59
-18.27
-19.07
-20.10
-21.53
-23.58
-26.51
-30.42
-35.14
-40.04
-44.16
-46.27
-45.38
-40.96
-33.22
-23.11
-12.10
-1.79
6.56
12.24
15.24
16.08
15.52
14.34
13.08
12.11
11.65
11.93
13.10
15.17
17.88
20.76
23.30
25.14
26.15
26.36
25.68
23.80
20.31
14.91
7.64
-0.98
-10.11
-18.75
-26.07
-31.44
-34.54
-35.30
-33.93
-30.94
-27.07
-23.14
-19.78
-17.36
-16.00
-15.77
-16.85
-19.46
-23.58
-28.51
-32.73
-34.10
-30.66
-21.27
-6.25
12.67
32.93
52.00
68.04
80.13
88.17
92.48
93.70
92.74
90.84
89.38
89.57
92.03
96.73
103.23
110.97
119.45
128.11
136.14
142.44
145.96
146.20
143.41
138.39
131.91
124.19
114.87
103.51
90.30
76.21
62.73
50.95
40.87
31.38
21.02
8.89
-4.75
-18.63
-31.37
-42.29
-51.81
-61.08
-71.10
-81.95
-92.56
-101.23
-106.46
-107.76
-105.69
-101.56
-96.65
-91.68
-86.67
-81.16
-74.83
-67.77
-60.68
-54.76
-51.22
-50.95
-54.13
-60.21
-67.95
-75.70
-81.75
-84.69
-83.65
-78.60
-70.32
-60.29
-50.26
-41.73
-35.62
-32.02
-30.60
-30.89
-32.70
-36.13
-41.26
-47.82
-54.90
-61.22
-65.58
-67.40
-67.03
-65.53
-64.17
-63.86
-64.84
-66.76
-69.01
-71.08
-72.66
-73.49
-73.01
-70.37
-64.51
-54.75
-41.17
-24.87
-7.62
8.72
22.82
34.04
42.23
47.41
49.42
48.11
43.59
36.65
28.73
21.63
16.90
15.16
16.10
18.54
21.26
23.38
24.67
25.33
25.52
25.07
23.50
20.37
15.69
10.09
4.57
-0.01
-3.34
-5.85
-8.32
-11.42
-15.26
-19.43
-23.30
-26.42
-28.89
-31.26
-34.33
-38.66
-44.24
-50.27
-55.34
-57.76
-56.17
-50.02
-39.81
-26.97
-13.37
-0.67
10.09
18.62
25.01
29.33
31.36
30.70
27.15
21.18
13.98
7.29
2.79
1.51
3.56
8.11
13.85
19.48
24.07
27.27
29.01
29.38
28.44
26.17
22.66
18.13
13.00
7.75
2.70
-1.94
-6.10
-9.78
-12.95
-15.65
-18.10
-20.70
-23.93
-28.06
-33.04
-38.48
-43.83
-48.59
-52.41
-54.83
-55.19
-52.56
-46.06
-35.40
-21.33
-5.61
9.37
21.45
29.32
32.83
32.74
30.18
26.19
21.45
16.47
11.85
8.43
7.15
8.62
12.76
18.72
25.07
30.43
33.86
35.14
34.65
33.05
30.84
28.20
24.97
20.83
15.67
9.75
3.71
-1.66
-5.76
-8.40
-9.91
-10.95
-12.18
-14.09
-16.94
-20.80
-25.66
-31.34
-37.23
-42.22
-44.73
-43.19
-36.63
-25.25
-10.41
5.71
20.81
33.10
41.65
46.27
47.27
45.14
40.41
33.74
25.99
18.29
11.94
8.12
7.51
10.05
14.89
20.73
26.23
30.39
32.80
33.58
33.05
31.51
29.00
25.33
20.25
13.59
5.56
-3.28
-12.09
-19.93
-26.14
-30.55
-33.64
-36.33
-39.69
-44.50
-50.95
-58.54
-66.20
-72.54
-76.11
-75.66
-70.44
-60.38
-46.26
-29.62
-12.48
3.12
15.55
23.87
27.91
28.13
25.41
20.87
15.75
11.32
8.72
8.81
11.98
18.03
26.11
34.94
43.08
49.28
52.79
53.42
51.53
47.73
42.73
37.09
31.17
25.19
19.30
13.72
8.71
4.47
1.06
-1.77
-4.44
-7.45
-11.30
-16.30
-22.64
-30.31
-38.91
-47.56
-54.80
-58.83
-58.02
-51.59
-39.94
-24.64
-7.90
8.03
21.51
31.62
38.02
40.77
40.11
36.62
31.26
25.47
20.86
18.82
20.07
24.36
30.60
37.22
42.75
46.27
47.59
47.09
45.29
42.53
38.83
34.06
28.21
21.63
14.98
9.00
4.18
0.54
-2.31
-4.93
-7.88
-11.54
-16.07
-21.57
-27.99
-35.06
-42.12
-48.02
-51.23
-50.26
-44.19
-33.07
-18.04
-1.11
15.40
29.48
39.84
45.95
47.94
46.32
41.85
35.56
28.70
22.73
18.95
18.21
20.60
25.40
31.31
36.85
40.77
42.35
41.50
38.57
34.22
29.12
23.73
18.31
12.91
7.52
2.24
-2.75
-7.15
-10.76
-13.55
-15.75
-17.78
-20.21
-23.57
-28.23
-34.13
-40.64
-46.52
-50.12
-49.92
-44.99
-35.38
-22.19
-7.22
7.56
20.46
30.32
36.57
39.07
37.99
33.81
27.34
19.75
12.51
7.04
4.44
5.12
8.76
14.33
20.47
25.85
29.50
31.01
30.44
28.12
24.47
19.88
14.73
9.42
4.32
-0.26
-4.22
-7.63
-10.67
-13.42
-15.77
-17.53
-18.49
-18.74
-18.69
-19.00
-20.43
-23.55
-28.66
-35.62
-43.83
-52.14
-58.90
-62.24
-60.59
-53.15
-40.32
-23.69
-5.62
11.39
25.34
35.05
40.22
41.19
38.75
33.97
28.14
22.62
18.67
17.22
18.61
22.57
28.25
34.54
40.33
44.76
47.33
47.92
46.79
44.33
41.06
37.37
33.54
29.67
25.82
22.11
18.71
15.77
13.27
10.94
8.37
5.18
1.31
-2.96
-7.07
-10.48
-12.94
-14.61
-16.01
-17.86
-20.86
-25.49
-31.90
-39.72
-48.03
-55.35
-59.90
-60.01
-54.69
-44.06
-29.49
-13.16
2.56
15.86
25.85
32.59
36.68
38.87
39.76
39.81
39.53
39.57
40.59
43.05
46.94
51.71
56.43
60.17
62.21
62.31
60.63
57.65
53.92
49.86
45.61
40.99
35.73
29.61
22.78
15.77
9.32
4.11
0.36
-2.18
-4.17
-6.32
-9.01
-12.28
-15.78
-19.05
-21.74
-23.85
-25.67
-27.76
-30.69
-34.81
-40.10
-46.03
-51.64
-55.66
-56.83
-54.21
-47.50
-37.12
-24.19
-10.28
2.86
13.67
21.00
24.29
23.63
19.62
13.33
6.09
-0.75
-5.97
-8.67
-8.46
-5.45
-0.28
6.03
12.34
17.69
21.42
23.29
23.41
22.10
19.74
16.71
13.32
9.88
6.59
3.62
0.94
-1.59
-4.19
-6.95
-9.82
-12.56
-14.95
-16.84
-18.26
-19.35
-20.30
-21.33
-22.68
-24.75
-28.01
-32.73
-38.69
-44.88
-49.63
-51.06
-47.90
-39.93
-28.24
-14.74
-1.55
9.62
17.82
22.74
24.52
23.48
20.01
14.62
8.11
1.56
-3.79
-6.84
-6.88
-3.84
1.65
8.49
15.41
21.25
25.31
27.34
27.46
25.95
23.15
19.38
14.94
10.18
5.44
0.97
-3.14
-6.86
-10.26
-13.37
-16.16
-18.64
-20.79
-22.73
-24.62
-26.67
-29.05
-31.96
-35.59
-40.09
-45.35
-50.85
-55.54
-57.97
-56.77
-51.09
-41.05
-27.77
-13.08
1.00
12.72
20.99
25.40
26.14
23.77
19.12
13.13
6.88
1.39
-2.39
-3.83
-2.69
0.78
5.87
11.60
16.92
21.06
23.60
24.58
24.29
23.06
21.15
18.69
15.81
12.70
9.59
6.79
4.48
2.70
1.30
0.03
-1.32
-2.92
-4.81
-7.00
-9.42
-12.02
-14.71
-17.45
-20.33
-23.64
-27.75
-32.97
-39.26
-46.04
-52.12
-55.91
-55.89
-51.11
-41.61
-28.46
-13.48
1.21
13.80
23.08
28.54
30.26
28.67
24.37
18.16
11.01
4.03
-1.63
-5.09
-5.92
-4.27
-0.82
3.52
7.88
11.64
14.48
16.32
17.16
17.02
15.82
13.52
10.17
5.95
1.31
-3.13
-6.70
-8.94
-9.79
-9.69
-9.41
-9.78
-11.28
-13.93
-17.28
-20.73
-23.80
-26.36
-28.59
-30.76
-33.17
-35.89
-38.69
-41.03
-42.13
-41.20
-37.60
-31.17
-22.23
-11.58
-0.30
10.50
19.87
27.10
31.67
33.31
32.02
28.11
22.23
15.36
8.64
3.20
0.02
-0.38
2.02
6.60
12.27
17.77
22.03
24.52
25.30
24.90
23.91
22.70
21.26
19.34
16.72
13.40
9.65
5.85
2.29
-1.04
-4.33
-7.74
-11.21
-14.39
-16.88
-18.39
-19.12
-19.66
-20.78
-23.20
-27.17
-32.49
-38.42
-43.93
-47.86
-49.09
-46.80
-40.70
-31.13
-19.11
-6.10
6.34
16.90
24.79
29.73
31.80
31.20
28.22
23.30
17.25
11.28
6.79
4.93
6.15
9.95
15.09
20.12
23.96
26.23
27.19
27.33
26.94
25.91
23.88
20.56
16.03
10.83
5.75
1.44
-1.81
-4.21
-6.23
-8.37
-10.87
-13.62
-16.25
-18.41
-19.94
-21.05
-22.18
-23.87
-26.57
-30.48
-35.54
-41.42
-47.50
-52.78
-55.99
-55.83
-51.43
-42.66
-30.38
-16.24
-2.25
9.76
18.61
23.85
25.72
24.89
22.15
18.30
14.08
10.25
7.50
6.40
7.30
10.14
14.39
19.22
23.72
27.20
29.32
30.11
29.83
28.72
26.92
24.39
21.04
16.81
11.87
6.60
1.55
-2.72
-5.83
-7.76
-8.78
-9.40
-10.13
-11.28
-12.93
-14.92
-17.02
-19.09
-21.13
-23.43
-26.36
-30.28
-35.27
-40.88
-46.10
-49.47
-49.60
-45.60
-37.45
-26.05
-12.88
0.42
12.43
22.11
28.81
32.15
32.05
28.72
22.86
15.61
8.42
2.76
-0.29
-0.27
2.58
7.43
13.18
18.71
23.20
26.16
27.49
27.28
25.70
22.97
19.34
15.16
10.85
6.88
3.58
1.01
-1.06
-3.13
-5.71
-9.01
-12.88
-16.73
-19.90
-22.00
-23.15
-24.06
-25.76
-29.11
-34.40
-41.13
-48.02
-53.38
-55.60
-53.54
-46.89
-36.22
-22.86
-8.46
5.30
17.11
26.14
32.01
34.66
34.26
31.24
26.36
20.74
15.67
12.30
11.26
12.45
15.18
18.47
21.55
24.06
26.03
27.64
28.91
29.61
29.31
27.71
24.81
20.93
16.62
12.37
8.42
4.81
1.46
-1.70
-4.62
-7.18
-9.31
-11.04
-12.49
-13.81
-15.13
-16.52
-18.09
-20.05
-22.77
-26.62
-31.77
-37.94
-44.23
-49.24
-51.47
-49.74
-43.64
-33.62
-20.90
-7.03
6.38
17.95
26.66
31.86
33.32
31.25
26.39
19.95
13.44
8.37
5.91
6.61
10.18
15.69
21.77
27.08
30.67
32.28
32.23
31.15
29.52
27.53
25.03
21.85
18.02
13.89
10.00
6.77
4.30
2.39
0.71
-0.96
-2.68
-4.33
-5.78
-7.01
-8.11
-9.23
-10.57
-12.28
-14.53
-17.50
-21.35
-26.25
-32.21
-38.93
-45.65
-51.10
-53.76
-52.28
-46.09
-35.64
-22.39
-8.30
4.77
15.52
23.38
28.23
30.19
29.42
26.21
21.21
15.54
10.64
7.88
8.12
11.43
17.02
23.53
29.50
33.87
36.18
36.64
35.86
34.46
32.75
30.65
27.86
24.11
19.48
14.38
9.49
5.41
2.36
0.14
-1.74
-3.79
-6.29
-9.15
-12.13
-14.94
-17.45
-19.75
-22.05
-24.62
-27.75
-31.76
-36.85
-43.00
-49.70
-55.85
-59.94
-60.44
-56.36
-47.62
-35.21
-20.80
-6.28
6.71
17.15
24.56
28.86
30.15
28.67
24.86
19.54
13.87
9.24
6.89
7.46
10.82
16.06
21.89
27.08
30.78
32.67
32.84
31.57
29.19
25.98
22.14
17.90
13.50
9.20
5.28
2.00
-0.41
-1.85
-2.43
-2.40
-2.17
-2.15
-2.67
-3.88
-5.73
-8.03
-10.55
-13.07
-15.50
-17.92
-20.60
-23.94
-28.29
-33.73
-39.78
-45.34
-48.87
-48.80
-44.13
-34.85
-22.00
-7.41
6.93
19.45
29.23
35.97
39.68
40.47
38.54
34.38
28.92
23.43
19.28
17.42
18.12
20.92
24.89
29.03
32.55
35.08
36.55
37.12
36.94
36.11
34.58
32.19
28.84
24.57
19.72
14.82
10.51
7.26
5.17
4.03
3.38
2.68
1.54
-0.22
-2.56
-5.23
-7.96
-10.50
-12.72
-14.66
-16.56
-18.82
-21.98
-26.56
-32.80
-40.51
-48.81
-56.32
-61.45
-62.87
-59.88
-52.62
-41.92
-29.07
-15.54
-2.71
8.22
16.28
20.83
21.70
19.27
14.48
8.75
3.64
0.50
0.26
3.15
8.78
16.15
23.94
30.81
35.79
38.48
39.08
38.28
36.80
35.08
33.11
30.57
27.11
22.72
17.84
13.11
9.11
6.06
3.89
2.35
1.29
0.63
0.26
-0.14
-1.15
-3.25
-6.59
-10.66
-14.54
-17.33
-18.62
-18.87
-19.09
-20.33
-23.01
-26.49
-29.26
-29.49
-25.61
-16.56
-1.73
19.23
46.18
78.11
112.40
144.71
169.67
182.38
180.18
163.63
136.36
103.66
70.72
41.18
16.71
-2.52
-17.05
-27.49
-34.36
-38.32
-40.33
-41.65
-43.52
-46.70
-51.23
-56.47
-61.46
-65.38
-67.83
-68.94
-69.10
-68.66
-67.71
-66.05
-63.40
-59.67
-55.14
-50.39
-46.09
-42.64
-40.07
-38.03
-36.11
-34.25
-32.83
-32.62
-34.33
-38.12
-43.29
-48.41
-51.76
-52.03
-48.73
-42.25
-33.58
-23.71
-13.33
-2.74
7.88
18.19
27.65
35.57
41.42
45.06
46.76
47.15
46.94
46.66
46.58
46.72
47.02
47.52
48.35
49.60
51.20
52.69
53.30
52.27
49.27
44.57
39.03
33.66
29.16
25.53
22.15
18.23
13.24
7.30
1.09
-4.49
-8.75
-11.52
-13.16
-14.28
-15.49
-17.06
-18.92
-20.79
-22.42
-23.85
-25.49
-27.92
-31.77
-37.34
-44.43
-52.36
-60.11
-66.55
-70.65
-71.67
-69.23
-63.38
-54.72
-44.30
-33.45
-23.53
-15.60
-10.26
-7.60
-7.37
-9.06
-11.92
-15.07
-17.60
-18.72
-18.01
-15.59
-11.97
-7.88
-3.88
-0.28
2.88
5.58
7.67
8.87
8.88
7.66
5.48
2.85
0.34
-1.70
-3.18
-4.29
-5.34
-6.58
-8.08
-9.75
-11.41
-12.91
-14.25
-15.53
-16.89
-18.47
-20.44
-22.93
-26.16
-30.25
-35.03
-39.86
-43.63
-44.97
-42.67
-36.16
-25.76
-12.63
1.60
15.25
26.99
35.93
41.63
44.06
43.47
40.45
35.92
30.96
26.74
24.23
24.04
26.31
30.74
36.65
43.18
49.52
55.04
59.35
62.31
63.95
64.34
63.66
62.17
60.27
58.42
57.01
56.12
55.40
54.17
51.74
47.82
42.83
37.76
33.83
31.89
31.97
33.26
34.27
33.45
29.53
21.91
10.74
-3.11
-18.08
-32.23
-43.71
-51.43
-55.66
-58.18
-61.76
-69.09
-81.44
-97.85
-115.10
-128.70
-134.69
-131.22
-119.46
-103.20
-87.39
-76.36
-72.40
-75.40
-83.47
-94.08
-105.10
-115.17
-123.64
-130.16
-134.69
-137.54
-139.59
-142.05
-145.90
-151.14
-156.45
-159.49
-157.72
-149.38
-134.15
-113.17
-88.37
-61.55
-33.59
-4.19
27.87
64.03
105.28
151.56
201.51
252.49
300.83
342.36
373.15
390.22
392.34
380.39
357.42
328.10
297.74
270.96
250.77
238.13
232.10
230.51
230.74
230.40
228.03
223.41
217.92
214.23
215.53
224.20
240.74
263.01
286.89
307.58
321.44
326.96
324.66
316.24
303.45
287.66
270.02
251.72
234.04
217.70
202.16
185.31
164.10
135.79
99.32
55.79
8.03
-40.75
-88.26
-133.87
-178.65
-224.47
-273.03
-324.67
-377.86
-429.25
-474.35
-508.46
-527.77
-530.28
-516.37
-488.76
-451.41
-407.89
-359.89
-306.66
-245.94
-175.93
-97.20
-13.49
69.18
144.45
207.61
256.51
291.23
312.88
322.60
321.43
310.90
293.57
272.89
252.43
234.67
220.40
208.62
197.15
183.65
166.49
145.21
120.77
94.94
69.73
46.60
25.83
6.55
-12.80
-33.77
-57.15
-82.63
-109.03
-134.97
-159.40
-182.13
-203.76
-225.29
-247.87
-272.68
-301.05
-334.08
-371.58
-410.87
-446.46
-471.24
-479.05
-467.25
-437.96
-397.05
-351.35
-306.10
-263.68
-224.43
-188.29
-155.96
-128.83
-108.01
-93.59
-84.81
-80.69
-80.61
-84.24
-90.93
-99.10
-106.67
-111.53
-112.29
-108.52
-100.69
-89.97
-77.96
-66.60
-57.66
-52.18
-49.58
-47.75
-43.80
-35.82
-24.12
-11.39
-1.50
2.66
0.53
-5.67
-11.90
-13.91
-8.93
3.52
21.48
41.26
58.55
69.78
73.16
69.08
59.83
48.63
38.43
30.82
25.80
22.17
18.42
13.32
6.21
-2.93
-13.43
-23.68
-31.08
-32.53
-25.58
-9.74
12.73
37.28
58.61
72.80
78.59
77.52
73.05
69.01
68.40
72.80
82.19
94.98
108.32
118.63
122.69
119.04
108.84
95.65
84.01
77.25
75.93
77.81
79.14
76.81
69.62
58.28
44.55
29.99
15.33
0.80
-13.26
-25.95
-36.18
-43.18
-47.26
-49.89
-53.35
-59.82
-70.58
-85.36
-102.56
-119.90
-135.36
-148.19
-159.20
-170.51
-184.80
-204.06
-228.63
-256.56
-283.72
-304.72
-314.52
-310.09
-291.58
-262.39
-228.03
-194.02
-164.06
-138.94
-117.03
-95.80
-73.52
-50.18
-27.27
-6.80
9.93
23.24
34.91
47.70
64.36
87.08
116.95
153.42
193.82
233.10
264.36
280.13
274.92
247.67
203.01
150.12
99.40
58.56
29.98
11.01
-3.31
-16.56
-28.83
-37.07
-37.53
-28.52
-11.70
8.70
28.06
43.11
52.87
57.90
59.18
57.58
53.93
49.57
46.43
46.52
51.35
61.28
75.83
94.46
117.15
143.91
173.75
203.57
228.41
243.11
244.80
234.78
218.59
203.72
196.14
197.73
205.59
213.85
216.74
211.08
197.09
177.72
156.68
136.97
120.28
107.06
97.04
89.71
84.46
80.32
76.09
70.34
61.93
50.28
35.31
17.38
-2.70
-23.51
-42.97
-58.78
-69.38
-75.12
-78.89
-85.47
-99.35
-122.31
-151.99
-182.52
-207.16
-221.47
-225.25
-222.21
-217.67
-215.51
-216.18
-216.53
-210.86
-193.01
-158.18
-104.66
-35.11
43.17
119.32
181.24
218.88
227.85
211.38
179.89
147.50
126.88
124.43
137.73
156.92
168.97
163.44
137.10
95.58
51.33
18.74
8.61
24.11
59.98
105.07
146.74
174.99
184.44
174.44
147.32
106.57
55.46
-3.26
-67.08
-133.57
-200.36
-265.32
-326.28
-381.08
-427.84
-465.46
-494.18
-515.43
-531.13
-542.59
-550.19
-553.59
-552.70
-547.98
-539.90
-527.78
-509.06
-479.86
-436.74
-378.74
-308.39
-231.22
-153.75
-81.55
-18.05
35.51
79.43
114.65
141.90
161.45
173.10
176.68
172.62
162.50
149.16
135.88
125.03
116.96
109.63
99.61
84.01
62.25
36.80
12.40
-5.70
-13.41
-8.97
6.59
29.33
53.01
70.28
74.70
62.75
35.32
-2.37
-42.35
-76.29
-97.80
-103.48
-92.77
-67.34
-30.30
14.43
62.72
110.84
156.21
198.01
236.92
274.38
311.66
349.33
387.07
423.86
458.16
488.30
512.81
530.77
542.02
547.33
548.19
546.47
544.02
542.21
541.39
540.46
537.01
527.99
511.05
485.70
453.55
417.50
380.16
342.56
303.81
261.96
215.45
164.27
110.00
55.01
1.06
-51.49
-103.74
-157.19
-212.37
-267.85
-320.27
-365.35
-399.45
-420.84
-430.33
-430.41
-424.09
-413.59
-399.87
-383.11
-363.76
-343.12
-323.23
-305.81
-291.35
-278.82
-266.36
-252.51
-237.21
-221.89
-208.50
-198.37
-191.28
-185.73
-179.98
-173.46
-167.34
-164.30
-167.19
-177.30
-193.06
-209.69
-220.48
-219.22
-202.74
-172.39
-133.68
-94.02
-59.69
-33.31
-13.04
6.35
31.26
67.19
117.08
180.85
255.13
333.43
406.87
465.89
502.66
513.28
498.91
464.82
418.34
366.38
313.89
263.50
216.08
171.50
129.01
87.13
43.33
-5.50
-61.99
-126.82
-197.70
-269.46
-335.12
-387.86
-422.99
-439.09
-438.07
-424.02
-401.66
-374.80
-345.71
-315.25
-283.42
-250.03
-214.88
-177.85
-138.95
-98.64
-58.20
-19.73
14.23
41.44
60.73
72.47
78.38
80.80
81.85
82.94
84.83
87.90
92.62
99.50
108.84
120.12
131.79
141.37
146.14
144.10
134.82
119.80
102.06
85.18
71.97
63.53
59.03
56.23
52.48
45.82
35.66
22.80
8.97
-3.92
-14.33
-21.34
-24.69
-24.72
-22.29
-18.72
-15.60
-14.41
-15.98
-20.12
-25.76
-31.44
-36.09
-39.32
-41.34
-42.38
-42.05
-39.35
-33.14
-22.92
-9.38
5.67
19.81
30.70
36.54
36.40
30.30
19.46
6.21
-6.20
-14.55
-16.58
-11.83
-1.94
10.03
20.65
27.18
28.08
23.14
13.17
-0.15
-14.46
-26.94
-34.81
-36.18
-30.57
-19.30
-4.98
9.37
21.26
29.38
33.61
34.68
33.65
31.48
28.79
25.85
22.66
18.99
14.45
8.77
1.90
-5.99
-14.58
-23.57
-32.76
-41.97
-50.84
-58.63
-64.29
-66.69
-65.04
-59.17
-49.58
-37.31
-23.62
-9.74
3.42
15.25
25.37
33.53
39.36
42.44
42.36
39.18
33.74
27.79
23.51
22.73
26.13
32.90
41.13
48.70
54.19
57.26
58.35
58.12
56.86
54.52
51.05
46.77
42.49
39.05
36.92
35.79
34.83
33.13
30.11
25.77
20.48
14.72
8.79
2.82
-3.10
-8.77
-13.98
-18.53
-22.51
-26.27
-30.27
-34.95
-40.42
-46.31
-51.83
-55.92
-57.45
-55.48
-49.50
-39.57
-26.35
-11.11
4.50
18.68
29.92
37.36
41.05
41.83
41.04
39.92
39.21
39.14
39.55
40.22
41.15
42.47
44.30
46.65
49.42
52.46
55.63
58.72
61.30
62.67
62.00
58.58
52.22
43.32
32.72
21.45
10.38
0.08
-9.12
-16.94
-23.09
-27.27
-29.31
-29.37
-28.06
-26.38
-25.43
-26.04
-28.49
-32.33
-36.53
-39.76
-40.77
-38.75
-33.40
-24.96
-14.10
-1.82
10.66
22.13
31.53
38.15
41.75
42.50
40.85
37.37
32.65
27.27
21.87
17.14
13.73
12.11
12.35
14.10
16.66
19.28
21.44
22.95
23.88
24.44
24.70
24.59
23.96
22.68
20.76
18.28
15.32
11.90
7.96
3.53
-1.29
-6.28
-11.33
-16.41
-21.67
-27.30
-33.34
-39.72
-46.20
-52.50
-58.15
-62.54
-64.85
-64.14
-59.73
-51.48
-40.06
-26.79
-13.29
-0.98
9.15
16.63
21.32
23.28
22.70
20.01
15.94
11.53
7.84
5.74
5.62
7.32
10.28
13.74
16.94
19.34
20.59
20.49
19.06
16.58
13.51
10.42
7.82
5.84
4.27
2.61
0.36
-2.66
-6.23
-9.92
-13.35
-16.40
-19.28
-22.30
-25.70
-29.56
-33.82
-38.33
-42.83
-46.76
-49.18
-48.89
-44.89
-36.81
-25.23
-11.48
2.77
16.13
27.70
37.12
44.34
49.51
52.99
55.52
58.19
62.21
68.41
76.87
86.78
96.79
105.53
112.22
116.80
119.74
121.65
122.91
123.58
123.56
122.90
121.99
121.64
122.92
126.82
133.96
144.11
155.83
166.38
172.17
169.74
156.88
133.61
102.01
65.40
26.94
-11.46
-49.49
-87.90
-127.83
-170.39
-216.47
-266.52
-319.83
-373.54
-422.28
-459.18
-478.06
-475.92
-454.26
-418.41
-375.27
-330.78
-288.57
-250.21
-216.54
-188.69
-167.86
-154.28
-146.15
-139.55
-129.58
-112.16
-85.24
-48.99
-5.03
44.53
97.66
151.97
204.28
250.33
285.41
305.77
309.60
297.35
271.01
233.17
186.57
134.15
79.55
27.11
-18.90
-55.49
-82.01
-100.43
-114.58
-128.70
-145.75
-166.33
-188.29
-207.19
-217.82
-215.98
-199.99
-171.24
-133.59
-92.09
-51.58
-15.48
14.75
39.68
61.97
85.74
115.20
152.89
197.87
245.28
287.85
318.68
334.07
334.78
325.05
310.23
294.48
279.58
265.45
251.44
237.40
223.85
211.45
200.19
188.98
176.13
160.19
140.71
118.50
95.28
73.06
53.39
36.59
21.49
5.61
-13.82
-38.40
-67.25
-96.85
-122.38
-139.95
-148.43
-149.64
-147.01
-143.24
-138.77
-131.88
-120.28
-103.20
-82.38
-61.61
-45.12
-35.76
-34.10
-38.56
-46.56
-55.88
-65.72
-77.00
-91.53
-110.61
-133.40
-156.31
-173.96
-181.59
-177.35
-163.43
-145.05
-127.84
-115.21
-106.95
-100.05
-90.79
-76.89
-58.40
-37.07
-14.93
7.04
28.96
51.06
72.28
89.71
99.50
98.64
86.83
67.07
44.67
25.22
12.62
8.28
11.57
20.82
34.13
49.50
64.48
76.12
81.61
79.37
69.91
55.71
40.05
25.58
13.42
3.54
-4.39
-9.99
-12.09
-9.43
-1.79
9.52
21.85
32.32
38.95
41.40
40.84
39.12
37.71
37.10
36.73
35.52
32.49
27.25
20.19
12.20
4.46
-1.90
-6.07
-7.86
-7.84
-7.26
-7.72
-10.48
-15.83
-22.74
-29.31
-33.45
-33.97
-31.04
-26.02
-20.71
-16.47
-13.67
-11.82
-10.06
-7.85
-5.26
-2.85
-1.35
-1.28
-2.80
-5.72
-9.63
-13.98
-18.07
-21.10
-22.42
-21.73
-19.29
-15.84
-12.30
-9.39
-7.45
-6.32
-5.66
-5.14
-4.62
-4.23
-4.15
-4.56
-5.54
-7.09
-9.26
-12.14
-15.90
-20.60
-26.14
-32.22
-38.36
-44.02
-48.52
-51.16
-51.17
-47.95
-41.39
-32.10
-21.49
-11.27
-2.77
3.66
8.61
13.09
17.73
22.13
25.03
25.05
21.63
15.54
8.70
3.28
0.73
1.24
3.78
6.76
8.82
9.30
8.26
6.20
3.64
0.86
-2.06
-5.17
-8.52
-12.23
-16.42
-21.32
-27.09
-33.81
-41.30
-49.19
-56.94
-63.91
-69.39
-72.67
-73.03
-69.92
-63.20
-53.19
-40.75
-26.97
-13.00
0.29
12.33
22.80
31.52
38.27
42.81
45.03
45.08
43.52
41.23
39.17
38.04
38.12
39.22
40.89
42.71
44.30
45.28
45.15
43.24
39.06
32.60
24.56
16.25
8.94
3.31
-0.81
-4.23
-7.74
-11.58
-15.21
-17.80
-18.80
-18.44
-17.74
-18.11
-20.66
-25.77
-32.87
-40.73
-47.87
-52.89
-54.83
-53.27
-48.37
-40.80
-31.56
-21.71
-12.12
-3.32
4.42
10.96
16.12
19.71
21.65
22.14
21.70
21.10
21.05
21.87
23.31
24.72
25.40
25.05
23.94
22.81
22.45
23.26
24.86
26.25
26.27
24.09
19.66
13.72
7.39
1.66
-3.04
-6.84
-10.17
-13.41
-16.66
-19.83
-22.89
-26.04
-29.70
-34.26
-39.74
-45.58
-50.71
-53.92
-54.28
-51.37
-45.40
-37.05
-27.35
-17.41
-8.36
-1.19
3.42
5.38
5.22
3.95
2.80
2.68
3.92
6.26
9.13
12.03
14.71
17.22
19.62
21.84
23.58
24.58
24.77
24.45
24.11
24.18
24.84
25.89
26.93
27.56
27.59
27.05
26.18
25.27
24.45
23.66
22.54
20.53
17.13
12.19
6.15
-0.02
-5.01
-7.56
-6.96
-3.24
2.89
10.31
17.87
24.68
30.19
34.14
36.42
37.12
36.47
34.94
33.25
32.02
31.61
31.94
32.53
32.85
32.57
31.75
30.71
29.80
29.14
28.58
27.85
26.78
25.36
23.75
22.08
20.41
18.54
16.21
13.17
9.43
5.20
0.95
-2.88
-6.01
-8.50
-10.63
-12.68
-14.66
-16.36
-17.49
-17.96
-18.08
-18.45
-19.74
-22.31
-26.02
-30.25
-34.05
-36.37
-36.31
-33.35
-27.50
-19.40
-10.20
-1.25
6.39
12.05
15.59
17.12
16.79
14.74
11.35
7.35
3.84
1.93
2.27
4.71
8.27
11.49
13.17
12.68
10.29
6.86
3.49
1.08
-0.03
-0.02
0.56
1.17
1.44
1.28
0.82
0.29
-0.19
-0.56
-0.85
-1.08
-1.29
-1.54
-1.93
-2.51
-3.23
-3.94
-4.46
-4.74
-4.95
-5.42
-6.40
-7.80
-9.09
-9.56
-8.65
-6.31
-3.08
0.03
2.00
2.20
0.51
-2.68
-6.68
-10.69
-13.93
-15.79
-15.77
-13.66
-9.51
-3.69
3.09
9.90
15.77
19.84
21.54
20.82
18.18
14.55
11.01
8.46
7.38
7.72
9.10
10.98
12.90
14.59
15.91
16.77
17.15
16.98
16.32
15.32
14.20
13.24
12.63
12.38
12.34
12.22
11.69
10.53
8.75
6.62
4.58
3.06
2.22
1.93
1.79
1.41
0.57
-0.59
-1.76
-2.58
-2.86
-2.67
-2.35
-2.27
-2.77
-3.92
-5.59
-7.41
-9.02
-10.18
-10.92
-11.57
-12.56
-14.31
-17.00
-20.48
-24.42
-28.35
-31.80
-34.36
-35.60
-35.19
-32.94
-29.03
-23.94
-18.42
-13.26
-9.00
-5.86
-3.79
-2.64
-2.25
-2.46
-2.95
-3.28
-2.93
-1.61
0.62
3.31
5.85
7.76
8.90
9.42
9.54
9.39
8.92
8.03
6.70
5.04
3.26
1.50
-0.17
-1.73
-3.11
-4.12
-4.55
-4.31
-3.56
-2.66
-2.05
-1.97
-2.45
-3.36
-4.51
-5.87
-7.55
-9.66
-12.21
-14.97
-17.58
-19.66
-21.06
-21.89
-22.48
-23.30
-24.72
-26.86
-29.50
-32.05
-33.76
-33.84
-31.81
-27.61
-21.69
-14.92
-8.24
-2.49
1.90
4.83
6.53
7.27
7.31
6.79
5.84
4.61
3.39
2.59
2.57
3.44
4.94
6.46
7.36
7.36
6.66
5.92
5.86
6.84
8.63
10.51
11.70
11.83
11.09
10.20
9.87
10.48
11.83
13.33
14.29
14.27
13.16
11.14
8.46
5.31
1.88
-1.67
-5.07
-8.00
-10.20
-11.63
-12.47
-13.15
-14.13
-15.74
-18.12
-21.16
-24.65
-28.26
-31.67
-34.54
-36.49
-37.13
-36.10
-33.19
-28.43
-22.24
-15.29
-8.47
-2.56
1.92
4.81
6.26
6.65
6.44
6.05
5.79
5.89
6.41
7.30
8.35
9.32
10.01
10.33
10.33
10.16
9.95
9.78
9.64
9.53
9.43
9.27
8.97
8.34
7.29
5.88
4.35
3.08
2.40
2.35
2.66
2.78
2.14
0.40
-2.38
-5.73
-8.98
-11.44
-12.81
-13.24
-13.32
-13.87
-15.60
-18.77
-23.11
-27.87
-32.02
-34.60
-34.93
-32.81
-28.49
-22.59
-15.95
-9.36
-3.44
1.51
5.46
8.54
10.92
12.70
13.91
14.54
14.62
14.27
13.71
13.20
13.07
13.54
14.68
16.37
18.28
19.93
20.82
20.63
19.23
16.83
13.84
10.76
8.07
6.02
4.64
3.77
3.12
2.43
1.53
0.33
-1.25
-3.31
-5.94
-9.12
-12.65
-16.15
-19.19
-21.54
-23.31
-24.95
-27.09
-30.31
-34.97
-41.03
-48.07
-55.33
-61.74
-66.01
-66.86
-63.32
-55.18
-43.16
-28.93
-14.67
-2.39
6.70
12.52
16.07
18.89
22.50
27.76
34.73
42.74
50.80
58.03
63.93
68.34
71.38
73.17
73.71
72.93
70.74
67.27
62.83
57.92
52.99
48.30
43.85
39.39
34.64
29.37
23.64
17.70
11.96
6.74
2.16
-1.93
-5.85
-9.89
-14.19
-18.63
-22.87
-26.49
-29.15
-30.74
-31.44
-31.74
-32.28
-33.72
-36.59
-41.09
-47.02
-53.76
-60.30
-65.48
-68.16
-67.47
-63.04
-55.09
-44.36
-32.01
-19.27
-7.28
3.17
11.61
17.85
21.90
23.94
24.24
23.26
21.61
19.90
18.67
18.24
18.67
19.87
21.70
23.99
26.57
29.20
31.52
33.13
33.71
33.09
31.35
28.67
25.31
21.51
17.54
13.70
10.31
7.57
5.49
3.86
2.35
0.66
-1.32
-3.45
-5.47
-7.10
-8.29
-9.16
-9.95
-10.91
-12.26
-14.13
-16.75
-20.40
-25.34
-31.54
-38.41
-44.83
-49.30
-50.49
-47.66
-41.01
-31.49
-20.50
-9.40
0.81
9.50
16.34
21.06
23.53
23.74
22.02
19.05
15.71
12.90
11.22
10.94
11.87
13.64
15.82
18.16
20.49
22.73
24.75
26.31
27.17
27.14
26.17
24.34
21.86
18.95
15.90
13.06
10.76
9.32
8.73
8.67
8.50
7.54
5.44
2.31
-1.20
-4.29
-6.30
-7.11
-7.15
-7.22
-8.12
-10.40
-14.07
-18.67
-23.35
-27.08
-28.93
-28.30
-24.94
-19.10
-11.34
-2.51
6.50
14.83
21.74
26.70
29.43
29.88
28.23
24.96
20.72
16.32
12.58
10.14
9.36
10.20
12.31
15.16
18.31
21.49
24.52
27.19
29.07
29.62
28.40
25.38
21.04
16.27
11.94
8.58
6.23
4.54
3.04
1.40
-0.46
-2.42
-4.37
-6.29
-8.29
-10.51
-13.04
-15.90
-19.13
-22.77
-26.84
-31.20
-35.38
-38.59
-39.85
-38.31
-33.58
-25.97
-16.37
-6.03
3.81
12.21
18.59
22.66
24.32
23.64
20.94
16.81
12.06
7.68
4.52
3.18
3.78
6.08
9.49
13.27
16.74
19.38
20.93
21.35
20.67
18.97
16.34
12.91
8.95
4.82
0.94
-2.45
-5.30
-7.78
-10.11
-12.40
-14.60
-16.60
-18.28
-19.67
-20.90
-22.14
-23.57
-25.32
-27.55
-30.40
-33.91
-37.82
-41.50
-43.96
-44.17
-41.36
-35.36
-26.68
-16.34
-5.60
4.38
12.65
18.63
22.07
23.01
21.85
19.24
16.06
13.17
11.30
10.79
11.64
13.62
16.32
19.33
22.31
24.95
27.00
28.31
28.74
28.24
26.80
24.55
21.66
18.39
15.10
12.12
9.70
7.91
6.60
5.42
3.98
1.93
-0.81
-4.13
-7.71
-11.15
-14.15
-16.64
-18.80
-21.09
-23.98
-27.85
-32.72
-38.18
-43.35
-47.10
-48.24
-45.93
-39.93
-30.75
-19.52
-7.70
3.28
12.38
18.93
22.69
23.70
22.28
19.02
14.80
10.70
7.66
6.29
6.62
8.22
10.43
12.67
14.64
16.31
17.79
19.10
20.16
20.74
20.62
19.64
17.80
15.27
12.39
9.53
7.00
4.95
3.26
1.74
0.18
-1.46
-3.03
-4.31
-5.18
-5.71
-6.14
-6.73
-7.68
-9.09
-11.11
-13.88
-17.52
-21.88
-26.39
-29.96
-31.39
-29.78
-25.00
-17.77
-9.40
-1.29
5.58
10.76
14.28
16.28
16.83
15.85
13.40
9.83
5.94
2.81
1.43
2.30
5.26
9.55
14.09
17.92
20.46
21.57
21.47
20.52
19.03
17.18
15.03
12.59
9.89
6.95
3.87
0.69
-2.56
-5.84
-9.04
-11.88
-13.98
-14.98
-14.79
-13.74
-12.61
-12.46
-14.21
-18.21
-24.08
-30.74
-36.77
-40.87
-42.20
-40.55
-36.20
-29.72
-21.80
-13.14
-4.39
3.84
11.01
16.67
20.51
22.47
22.72
21.71
20.01
18.27
17.06
16.78
17.56
19.25
21.52
23.89
25.89
27.13
27.38
26.56
24.79
22.23
19.13
15.79
12.47
9.45
6.92
4.94
3.43
2.17
0.90
-0.62
-2.50
-4.72
-7.18
-9.74
-12.26
-14.60
-16.74
-18.74
-20.87
-23.51
-26.90
-31.01
-35.21
-38.46
-39.53
-37.46
-32.04
-23.84
-14.02
-3.90
5.44
13.38
19.57
23.79
25.86
25.70
23.61
20.36
17.09
14.92
14.57
16.11
19.00
22.39
25.48
27.86
29.45
30.45
31.06
31.34
31.19
30.44
28.88
26.45
23.24
19.55
15.78
12.36
9.46
7.08
4.93
2.69
0.11
-2.76
-5.69
-8.32
-10.43
-11.96
-13.09
-14.10
-15.28
-16.93
-19.32
-22.69
-27.09
-32.22
-37.33
-41.28
-42.87
-41.13
-35.73
-27.03
-16.08
-4.24
7.07
16.67
23.77
28.06
29.64
28.99
26.89
24.20
21.70
19.92
19.06
19.01
19.48
20.15
20.84
21.45
22.01
22.50
22.84
22.86
22.42
21.44
19.92
17.98
15.77
13.46
11.16
8.98
7.01
5.27
3.73
2.30
0.86
-0.70
-2.44
-4.36
-6.46
-8.72
-11.14
-13.71
-16.32
-18.82
-21.01
-22.82
-24.30
-25.76
-27.59
-30.19
-33.71
-37.95
-42.26
-45.72
-47.35
-46.38
-42.47
-35.82
-27.14
-17.40
-7.70
1.01
8.02
12.96
15.78
16.69
16.13
14.67
12.97
11.66
11.23
11.93
13.69
16.17
18.84
21.25
23.05
24.19
24.70
24.68
24.15
23.03
21.31
18.99
16.25
13.32
10.47
7.94
5.88
4.43
3.64
3.44
3.67
4.04
4.29
4.22
3.75
2.85
1.55
-0.20
-2.47
-5.33
-8.72
-12.47
-16.31
-19.91
-22.96
-25.27
-26.86
-28.01
-29.23
-31.06
-33.80
-37.24
-40.59
-42.67
-42.38
-39.10
-32.90
-24.53
-15.13
-5.84
2.43
9.12
13.98
16.98
18.28
18.22
17.28
16.08
15.26
15.37
16.83
19.82
24.19
29.45
34.79
39.25
42.00
42.60
41.10
38.09
34.28
30.37
26.72
23.45
20.52
17.94
15.85
14.32
13.36
12.78
12.32
11.77
11.13
10.53
10.18
10.17
10.38
10.62
10.66
10.36
9.76
9.01
8.33
7.85
7.51
7.01
5.88
3.78
0.78
-2.53
-5.14
-6.04
-4.61
-0.95
4.25
9.94
15.17
19.31
22.03
23.25
22.96
21.29
18.51
15.10
11.72
8.97
7.30
6.92
7.79
9.73
12.43
15.40
18.00
19.55
19.55
17.92
15.11
11.87
8.94
6.66
4.82
2.79
-0.10
-4.18
-9.34
-15.03
-20.60
-25.55
-29.73
-33.20
-36.15
-38.74
-41.00
-42.90
-44.38
-45.44
-46.19
-46.83
-47.59
-48.69
-50.27
-52.29
-54.50
-56.43
-57.46
-56.97
-54.47
-49.80
-43.15
-35.07
-26.33
-17.76
-10.06
-3.76
0.85
3.63
4.65
4.17
2.63
0.70
-0.91
-1.56
-0.90
1.06
3.97
7.24
10.32
12.75
14.29
14.90
14.70
13.91
12.73
11.30
9.67
7.80
5.56
2.80
-0.59
-4.63
-9.18
-13.92
-18.30
-21.64
-23.28
-22.85
-20.32
-16.10
-10.88
-5.44
-0.49
3.41
5.80
6.28
4.57
0.49
-5.86
-14.11
-23.56
-33.19
-41.79
-48.07
-50.94
-49.80
-44.67
-36.23
-25.62
-14.11
-2.89
7.10
15.17
20.81
23.75
23.95
21.82
18.11
13.91
10.38
8.43
8.53
10.62
14.19
18.43
22.57
26.10
28.83
30.94
32.62
33.96
34.76
34.62
33.15
30.25
26.21
21.74
17.67
14.66
12.99
12.48
12.68
13.03
13.09
12.61
11.52
9.92
7.90
5.62
3.14
0.57
-2.07
-4.76
-7.54
-10.44
-13.51
-16.77
-20.23
-23.82
-27.40
-30.67
-33.20
-34.52
-34.14
-31.72
-27.21
-20.90
-13.40
-5.60
1.55
7.25
11.02
12.83
13.06
12.28
11.13
10.00
9.13
8.63
8.67
9.47
11.29
14.21
17.96
21.96
25.43
27.67
28.34
27.51
25.63
23.25
20.84
18.61
16.58
14.69
12.84
11.04
9.30
7.65
6.04
4.39
2.58
0.57
-1.61
-3.88
-6.16
-8.47
-10.86
-13.41
-16.09
-18.74
-21.14
-23.13
-24.86
-26.74
-29.41
-33.28
-38.35
-43.97
-49.01
-52.21
-52.61
-49.75
-43.80
-35.42
-25.64
-15.64
-6.55
0.71
5.58
8.01
8.37
7.29
5.41
3.32
1.46
0.19
-0.10
0.88
3.22
6.68
10.70
14.55
17.52
19.28
19.86
19.62
19.09
18.72
18.71
19.05
19.53
19.95
20.20
20.32
20.44
20.70
21.06
21.39
21.41
20.91
19.79
18.18
16.41
14.79
13.53
12.62
11.82
10.89
9.64
8.14
6.53
5.02
3.63
2.29
0.86
-0.56
-1.57
-1.40
0.76
5.51
12.93
22.45
33.07
43.66
53.27
61.28
67.35
71.34
73.15
72.82
70.63
67.16
63.09
58.99
55.01
50.82
45.85
39.63
32.13
23.80
15.30
7.12
-0.59
-8.02
-15.46
-22.94
-30.26
-37.04
-42.98
-48.03
-52.27
-55.87
-58.85
-61.09
-62.38
-62.67
-62.06
-60.85
-59.37
-57.83
-56.29
-54.72
-53.08
-51.44
-49.99
-48.97
-48.60
-49.00
-50.04
-51.39
-52.54
-52.99
-52.28
-50.18
-46.55
-41.38
-34.74
-26.84
-18.12
-9.34
-1.51
4.30
7.35
7.45
5.11
1.37
-2.52
-5.45
-6.74
-6.15
-3.87
-0.29
4.15
9.10
14.37
19.88
25.62
31.52
37.46
43.13
48.11
51.93
54.14
54.50
52.94
49.67
45.03
39.37
33.03
26.24
19.16
11.93
4.72
-2.25
-8.81
-14.94
-20.86
-26.98
-33.78
-41.56
-50.22
-59.21
-67.53
-74.00
-77.60
-77.68
-74.18
-67.50
-58.43
-47.95
-37.08
-26.81
-17.99
-11.25
-6.92
-4.95
-4.92
-6.06
-7.47
-8.22
-7.68
-5.63
-2.32
1.67
5.70
9.34
12.43
15.11
17.53
19.66
21.22
21.79
21.05
18.98
15.89
12.32
8.74
5.52
2.77
0.50
-1.42
-3.12
-4.86
-6.85
-9.34
-12.38
-15.84
-19.42
-22.79
-25.70
-28.15
-30.41
-32.98
-36.40
-41.09
-47.06
-53.84
-60.36
-65.23
-67.08
-64.92
-58.56
-48.68
-36.64
-24.11
-12.63
-3.31
3.33
7.25
8.79
8.44
6.83
4.64
2.64
1.57
2.07
4.43
8.51
13.71
19.13
23.86
27.29
29.24
29.88
29.53
28.47
26.80
24.50
21.62
18.38
15.20
12.49
10.51
9.20
8.19
7.01
5.25
2.76
-0.40
-4.01
-7.86
-11.76
-15.63
-19.37
-22.92
-26.23
-29.33
-32.42
-35.78
-39.77
-44.57
-49.97
-55.26
-59.25
-60.61
-58.26
-51.77
-41.58
-28.98
-15.67
-3.35
6.70
13.84
17.92
19.18
18.05
15.15
11.34
7.61
5.02
4.43
6.21
10.11
15.36
20.89
25.70
29.16
31.05
31.49
30.74
29.10
26.86
24.30
21.65
19.13
16.91
15.05
13.59
12.57
11.97
11.73
11.70
11.62
11.20
10.15
8.27
5.50
1.91
-2.31
-6.88
-11.46
-15.88
-20.11
-24.43
-29.30
-35.13
-42.05
-49.67
-57.03
-62.74
-65.36
-63.76
-57.50
-46.94
-33.20
-17.93
-2.92
10.24
20.41
26.98
29.97
29.81
27.39
23.81
20.24
17.72
17.02
18.52
22.12
27.39
33.53
39.62
44.77
48.26
49.76
49.31
47.34
44.44
41.25
38.25
35.66
33.48
31.49
29.41
27.07
24.46
21.78
19.30
17.21
15.45
13.77
11.78
9.19
5.93
2.17
-1.83
-5.79
-9.60
-13.23
-16.76
-20.29
-23.95
-27.95
-32.59
-38.13
-44.64
-51.72
-58.36
-63.11
-64.37
-61.04
-52.89
-40.73
-26.16
-11.07
2.86
14.45
23.10
28.65
31.22
31.16
29.05
25.71
22.14
19.35
18.10
18.82
21.50
25.71
30.77
35.84
40.13
43.06
44.34
44.02
42.41
39.93
36.99
33.87
30.78
27.83
25.09
22.62
20.40
18.37
16.48
14.66
12.97
11.49
10.29
9.34
8.41
7.12
5.08
2.05
-1.92
-6.41
-10.88
-14.82
-17.97
-20.47
-22.78
-25.59
-29.49
-34.74
-40.98
-47.25
-52.05
-53.81
-51.35
-44.29
-33.23
-19.53
-4.95
8.81
20.51
29.36
35.04
37.48
36.88
33.75
28.96
23.74
19.46
17.30
17.89
21.07
26.07
31.73
36.92
40.82
43.05
43.57
42.56
40.33
37.18
33.47
29.53
25.63
21.93
18.40
15.00
11.67
8.51
5.73
3.52
1.94
0.85
-0.12
-1.41
-3.34
-6.02
-9.32
-12.93
-16.48
-19.76
-22.72
-25.58
-28.73
-32.59
-37.49
-43.38
-49.72
-55.40
-58.96
-58.89
-54.16
-44.61
-31.05
-15.21
0.82
15.03
25.99
33.05
36.32
36.48
34.46
31.28
27.91
25.20
23.84
24.25
26.52
30.34
35.07
39.85
43.80
46.31
47.09
46.23
44.15
41.32
38.22
35.11
32.05
28.96
25.71
22.27
18.74
15.38
12.49
10.26
8.71
7.65
6.69
5.41
3.48
0.81
-2.48
-6.18
-10.02
-13.84
-17.60
-21.32
-25.02
-28.79
-32.79
-37.30
-42.64
-48.94
-55.79
-62.13
-66.29
-66.50
-61.48
-50.98
-35.99
-18.48
-0.86
14.70
26.71
34.60
38.56
39.26
37.61
34.62
31.29
28.60
27.42
28.31
31.42
36.33
42.19
47.88
52.39
55.02
55.55
54.25
51.63
48.24
44.48
40.51
36.37
32.06
27.81
23.94
20.82
18.57
16.99
15.52
13.53
10.62
6.77
2.44
-1.73
-5.21
-7.86
-10.03
-12.40
-15.67
-20.29
-26.22
-32.92
-39.56
-45.31
-49.68
-52.69
-54.88
-57.06
-60.01
-64.15
-69.27
-74.55
-78.68
-80.22
-77.95
-71.31
-60.64
-47.17
-32.78
-19.48
-8.90
-1.97
1.28
1.48
-0.25
-2.64
-4.45
-4.64
-2.39
2.68
10.53
20.65
32.04
43.46
53.64
61.55
66.58
68.57
67.71
64.36
58.94
51.86
43.57
34.61
25.68
17.50
10.73
5.73
2.53
0.82
0.04
-0.37
-0.84
-1.59
-2.58
-3.60
-4.44
-4.95
-5.24
-5.63
-6.47
-8.06
-10.46
-13.47
-16.71
-19.85
-22.71
-25.29
-27.75
-30.23
-32.92
-36.00
-39.70
-44.23
-49.51
-54.95
-59.28
-60.85
-58.16
-50.53
-38.51
-23.74
-8.50
5.16
15.94
23.43
27.84
29.57
28.99
26.49
22.62
18.32
14.75
12.97
13.54
16.34
20.63
25.47
30.03
33.81
36.61
38.41
39.18
38.88
37.50
35.16
32.09
28.59
24.99
21.48
18.19
15.10
12.17
9.40
6.80
4.49
2.56
1.02
-0.22
-1.34
-2.49
-3.68
-4.87
-5.97
-6.98
-8.04
-9.40
-11.29
-13.88
-17.25
-21.43
-26.44
-32.21
-38.39
-44.27
-48.77
-50.69
-49.05
-43.43
-34.12
-22.10
-8.80
4.27
15.83
25.02
31.40
34.88
35.59
33.79
30.03
25.09
20.04
16.00
13.88
14.13
16.59
20.60
25.25
29.62
33.03
35.11
35.71
34.97
33.12
30.45
27.22
23.62
19.80
15.94
12.26
9.01
6.43
4.65
3.65
3.36
3.63
4.27
5.02
5.51
5.31
4.01
1.40
-2.39
-7.02
-11.97
-16.89
-21.64
-26.37
-31.37
-36.95
-43.21
-49.99
-56.70
-62.40
-65.96
-66.25
-62.46
-54.42
-42.68
-28.52
-13.62
0.28
11.76
19.98
24.74
26.29
25.25
22.40
18.57
14.70
11.66
10.23
10.81
13.38
17.46
22.30
27.15
31.44
34.84
37.19
38.43
38.49
37.43
35.40
32.62
29.39
25.94
22.42
18.94
15.61
12.55
9.84
7.48
5.40
3.55
1.88
0.38
-0.99
-2.37
-4.01
-6.12
-8.77
-11.87
-15.20
-18.57
-21.99
-25.63
-29.78
-34.70
-40.51
-47.04
-53.82
-60.02
-64.50
-65.99
-63.43
-56.33
-45.15
-31.21
-16.37
-2.51
8.93
17.19
22.16
24.11
23.55
21.08
17.40
13.28
9.53
6.86
5.77
6.45
8.77
12.29
16.36
20.19
23.06
24.49
24.35
22.81
20.23
16.96
13.31
9.49
5.77
2.49
0.02
-1.38
-1.67
-1.09
-0.07
0.96
1.71
2.06
2.04
1.65
0.83
-0.58
-2.68
-5.42
-8.57
-11.75
-14.62
-17.01
-19.06
-21.13
-23.73
-27.24
-31.78
-37.04
-42.29
-46.41
-48.21
-46.73
-41.53
-32.87
-21.66
-9.22
3.08
14.10
23.08
29.62
33.54
34.92
33.97
31.24
27.53
23.81
21.04
19.87
20.48
22.57
25.50
28.52
31.07
32.91
34.04
34.60
34.65
34.10
32.81
30.74
27.98
24.83
21.63
18.59
15.77
13.12
10.58
8.22
6.14
4.38
2.82
1.16
-0.93
-3.63
-6.90
-10.50
-14.16
-17.76
-21.45
-25.56
-30.45
-36.18
-42.31
-47.96
-51.91
-53.02
-50.59
-44.64
-35.80
-25.21
-14.11
-3.55
5.69
13.12
18.43
21.43
22.06
20.54
17.43
13.60
10.03
7.60
6.81
7.70
9.85
12.60
15.27
17.39
18.73
19.33
19.23
18.48
17.05
14.94
12.32
9.47
6.77
4.53
2.82
1.51
0.37
-0.87
-2.34
-4.10
-6.18
-8.59
-11.34
-14.36
-17.46
-20.33
-22.75
-24.62
-26.15
-27.82
-30.26
-33.99
-39.23
-45.68
-52.45
-58.24
-61.59
-61.28
-56.64
-47.81
-35.66
-21.63
-7.41
5.47
15.83
22.98
26.74
27.32
25.30
21.51
16.95
12.63
9.44
7.96
8.35
10.38
13.51
17.09
20.53
23.45
25.65
27.05
27.55
27.01
25.29
22.38
18.46
13.99
9.60
5.89
3.26
1.73
0.99
0.54
-0.14
-1.35
-3.15
-5.36
-7.68
-9.87
-11.84
-13.62
-15.32
-17.10
-19.05
-21.30
-24.01
-27.40
-31.59
-36.56
-41.87
-46.68
-49.88
-50.32
-47.16
-40.13
-29.67
-16.81
-3.05
9.99
20.85
28.44
32.25
32.40
29.57
24.82
19.35
14.30
10.56
8.77
9.19
11.73
16.00
21.25
26.65
31.34
34.73
36.54
36.84
35.85
33.86
31.08
27.67
23.81
19.71
15.59
11.72
8.31
5.48
3.25
1.57
0.26
-0.92
-2.19
-3.76
-5.67
-7.89
-10.30
-12.85
-15.55
-18.46
-21.68
-25.33
-29.47
-34.15
-39.23
-44.36
-48.80
-51.50
-51.37
-47.63
-40.15
-29.56
-17.11
-4.30
7.53
17.43
24.92
29.81
32.07
31.78
29.19
24.88
19.83
15.25
12.28
11.60
13.17
16.34
20.06
23.42
25.89
27.41
28.17
28.33
27.81
26.37
23.80
20.15
15.79
11.32
7.33
4.19
1.96
0.41
-0.78
-1.89
-3.09
-4.42
-5.89
-7.53
-9.41
-11.59
-14.05
-16.67
-19.25
-21.62
-23.75
-25.89
-28.50
-32.01
-36.52
-41.54
-45.97
-48.37
-47.46
-42.66
-34.26
-23.38
-11.46
0.17
10.55
19.10
25.44
29.18
30.06
28.11
23.87
18.38
12.97
8.83
6.76
6.93
9.02
12.37
16.21
19.83
22.73
24.60
25.40
25.14
23.92
21.80
18.83
15.09
10.81
6.43
2.47
-0.65
-2.73
-3.84
-4.30
-4.46
-4.58
-4.78
-5.08
-5.46
-5.94
-6.55
-7.33
-8.32
-9.60
-11.31
-13.66
-16.87
-21.07
-26.21
-31.94
-37.64
-42.41
-45.25
-45.29
-42.01
-35.43
-26.17
-15.23
-3.83
6.85
15.79
22.23
25.68
26.04
23.71
19.45
14.33
9.38
5.48
3.17
2.66
3.96
6.81
10.76
15.18
19.34
22.65
24.72
25.40
24.70
22.70
19.52
15.31
10.44
5.36
0.66
-3.24
-6.13
-8.12
-9.54
-10.77
-12.10
-13.59
-15.09
-16.33
-17.13
-17.46
-17.58
-17.96
-19.13
-21.54
-25.36
-30.38
-36.01
-41.30
-45.13
-46.38
-44.21
-38.26
-28.81
-16.74
-3.42
9.60
20.87
29.28
34.25
35.71
34.08
30.04
24.51
18.53
13.18
9.43
7.95
8.94
12.02
16.37
20.97
24.90
27.56
28.74
28.55
27.19
24.90
21.86
18.32
14.53
10.83
7.53
4.80
2.68
0.97
-0.60
-2.30
-4.27
-6.43
-8.58
-10.54
-12.26
-13.89
-15.79
-18.32
-21.76
-26.18
-31.43
-37.15
-42.71
-47.21
-49.60
-48.84
-44.32
-36.07
-24.99
-12.56
-0.47
9.96
17.99
23.47
26.60
27.60
26.66
23.99
20.12
15.98
12.76
11.48
12.62
15.88
20.35
24.94
28.74
31.32
32.62
32.77
31.83
29.75
26.46
22.01
16.72
11.18
6.06
1.92
-1.00
-2.85
-4.10
-5.35
-7.04
-9.27
-11.85
-14.36
-16.50
-18.21
-19.71
-21.40
-23.56
-26.33
-29.73
-33.79
-38.52
-43.81
-49.24
-53.86
-56.37
-55.45
-50.33
-41.08
-28.74
-14.98
-1.64
9.78
18.36
23.79
26.17
25.90
23.53
19.77
15.55
11.82
9.52
9.26
11.13
14.70
19.11
23.37
26.63
28.44
28.77
27.94
26.38
24.45
22.33
20.04
17.52
14.80
11.97
9.16
6.49
3.93
1.39
-1.21
-3.82
-6.24
-8.25
-9.75
-10.86
-11.93
-13.26
-15.06
-17.20
-19.45
-21.59
-23.65
-25.91
-28.77
-32.41
-36.56
-40.45
-42.97
-43.01
-39.83
-33.32
-23.96
-12.71
-0.75
10.77
20.82
28.61
33.57
35.49
34.51
31.24
26.69
22.01
18.31
16.29
16.16
17.62
20.06
22.80
25.32
27.36
28.87
29.85
30.25
29.95
28.79
26.73
23.93
20.76
17.60
14.74
12.33
10.35
8.72
7.31
6.00
4.63
3.00
1.03
-1.24
-3.58
-5.73
-7.51
-8.98
-10.45
-12.32
-14.89
-18.29
-22.45
-27.13
-32.03
-36.64
-40.27
-41.98
-40.82
-36.15
-28.00
-17.11
-4.87
7.14
17.51
25.34
30.28
32.48
32.35
30.40
27.21
23.38
19.63
16.71
15.31
15.88
18.44
22.43
26.94
30.89
33.50
34.42
33.80
32.08
29.74
27.05
24.13
21.04
17.85
14.75
11.91
9.41
7.19
5.12
3.06
0.92
-1.33
-3.74
-6.34
-9.14
-12.11
-15.12
-18.07
-20.93
-23.79
-26.83
-30.22
-34.05
-38.36
-43.03
-47.81
-52.29
-55.74
-57.25
-55.89
-51.05
-42.75
-31.80
-19.59
-7.73
2.41
10.00
14.86
17.25
17.68
16.68
14.77
12.46
10.32
8.97
8.90
10.36
13.17
16.77
20.41
23.41
25.34
26.13
26.05
25.45
24.61
23.61
22.37
20.68
18.36
15.41
12.00
8.49
5.35
3.03
1.74
1.43
1.74
2.07
1.88
0.74
-1.44
-4.50
-8.12
-11.94
-15.66
-19.12
-22.28
-25.24
-28.22
-31.48
-35.25
-39.52
-43.95
-47.88
-50.35
-50.37
-47.20
-40.61
-31.01
-19.41
-7.16
4.34
14.03
21.21
25.62
27.26
26.33
23.26
18.76
13.90
9.89
7.72
7.84
9.99
13.38
17.09
20.44
23.11
25.09
26.42
27.02
26.72
25.39
23.10
20.19
17.11
14.28
11.83
9.65
7.49
5.16
2.69
0.34
-1.54
-2.72
-3.24
-3.37
-3.54
-4.10
-5.20
-6.78
-8.67
-10.70
-12.86
-15.28
-18.12
-21.52
-25.53
-30.05
-34.84
-39.45
-43.31
-45.69
-45.86
-43.29
-37.80
-29.68
-19.68
-8.85
1.66
10.81
17.88
22.45
24.48
24.14
21.87
18.35
14.41
10.98
8.90
8.62
10.13
12.99
16.42
19.69
22.26
23.88
24.52
24.27
23.26
21.63
19.59
17.35
15.12
13.10
11.34
9.85
8.59
7.47
6.37
5.17
3.68
1.78
-0.52
-3.12
-5.77
-8.26
-10.50
-12.51
-14.39
-16.30
-18.38
-20.86
-24.06
-28.21
-33.33
-38.93
-44.06
-47.45
-47.92
-44.81
-38.17
-28.71
-17.63
-6.23
4.38
13.35
20.18
24.60
26.63
26.48
24.53
21.36
17.68
14.31
11.98
11.24
12.23
14.69
18.01
21.49
24.51
26.69
27.88
28.10
27.43
25.93
23.67
20.78
17.43
13.85
10.25
6.80
3.59
0.66
-1.97
-4.24
-6.15
-7.73
-9.08
-10.38
-11.80
-13.43
-15.27
-17.14
-18.92
-20.51
-22.07
-23.95
-26.58
-30.33
-35.29
-41.11
-47.08
-52.21
-55.43
-55.79
-52.73
-46.14
-36.51
-24.82
-12.38
-0.52
9.59
17.14
21.75
23.45
22.63
19.99
16.38
12.71
9.83
8.36
8.65
10.67
14.06
18.20
22.32
25.74
27.98
28.89
28.59
27.39
25.58
23.36
20.81
18.00
15.04
12.16
9.56
7.37
5.55
3.96
2.42
0.84
-0.73
-2.19
-3.48
-4.64
-5.81
-7.19
-8.87
-10.86
-13.09
-15.57
-18.38
-21.69
-25.63
-30.16
-34.93
-39.32
-42.48
-43.55
-41.83
-37.07
-29.51
-19.95
-9.49
0.62
9.28
15.67
19.37
20.34
18.92
15.82
11.96
8.34
5.79
4.80
5.48
7.60
10.66
14.12
17.45
20.27
22.37
23.70
24.32
24.31
23.69
22.37
20.29
17.46
14.14
10.77
7.81
5.51
3.82
2.37
0.76
-1.25
-3.58
-5.91
-7.88
-9.31
-10.34
-11.35
-12.79
-14.98
-18.07
-22.03
-26.68
-31.74
-36.73
-40.89
-43.29
-42.98
-39.38
-32.48
-22.90
-11.72
-0.19
10.51
19.41
25.76
29.12
29.36
26.87
22.53
17.58
13.31
10.66
10.07
11.43
14.37
18.32
22.73
26.97
30.33
32.14
31.94
29.73
26.01
21.59
17.29
13.60
10.55
7.85
5.20
2.51
-0.03
-2.16
-3.78
-5.12
-6.65
-8.79
-11.62
-14.78
-17.76
-20.18
-22.12
-24.09
-26.81
-30.83
-36.26
-42.70
-49.29
-55.00
-58.74
-59.55
-56.81
-50.39
-40.73
-28.88
-16.23
-4.18
6.07
13.77
18.61
20.62
20.18
17.96
14.90
12.01
10.18
9.94
11.34
14.04
17.46
20.96
23.99
26.15
27.23
27.16
26.11
24.31
22.10
19.66
17.09
14.39
11.56
8.67
5.88
3.37
1.22
-0.57
-2.13
-3.60
-5.11
-6.68
-8.29
-9.87
-11.39
-12.85
-14.34
-16.08
-18.38
-21.57
-25.86
-31.18
-37.13
-42.88
-47.35
-49.45
-48.31
-43.55
-35.34
-24.42
-11.92
0.80
12.39
21.65
27.75
30.33
29.59
26.23
21.36
16.24
12.00
9.53
9.22
11.03
14.47
18.76
23.02
26.49
28.61
29.19
28.32
26.35
23.69
20.75
17.82
15.00
12.30
9.62
7.00
4.58
2.61
1.29
0.61
0.29
-0.11
-1.01
-2.57
-4.72
-7.16
-9.59
-11.93
-14.27
-16.93
-20.25
-24.53
-29.80
-35.81
-41.89
-47.04
-50.13
-50.12
-46.42
-39.04
-28.63
-16.33
-3.54
8.40
18.41
25.71
29.97
31.14
29.61
26.06
21.48
17.00
13.74
12.49
13.59
16.84
21.57
26.83
31.69
35.38
37.45
37.79
36.54
34.02
30.61
26.69
22.54
18.41
14.46
10.90
7.91
5.54
3.71
2.11
0.38
-1.79
-4.49
-7.57
-10.70
-13.59
-16.09
-18.34
-20.63
-23.32
-26.69
-30.90
-35.99
-41.81
-47.94
-53.66
-57.92
-59.55
-57.50
-51.27
-41.01
-27.61
-12.49
2.65
16.23
27.05
34.40
38.13
38.57
36.40
32.53
27.93
23.58
20.36
18.92
19.62
22.43
26.85
32.07
37.08
40.91
42.90
42.82
40.89
37.65
33.76
29.69
25.66
21.66
17.62
13.58
9.80
6.58
4.14
2.46
1.21
-0.04
-1.66
-3.86
-6.62
-9.79
-13.14
-16.43
-19.54
-22.51
-25.50
-28.88
-33.02
-38.21
-44.44
-51.32
-58.00
-63.34
-66.02
-64.82
-58.97
-48.44
-34.11
-17.68
-1.24
13.30
24.59
32.07
35.80
36.21
33.93
29.77
24.69
19.83
16.31
14.95
16.01
19.16
23.57
28.31
32.58
35.85
37.84
38.41
37.53
35.25
31.80
27.57
23.06
18.69
14.69
11.10
7.87
4.94
2.45
0.58
-0.52
-0.94
-1.05
-1.42
-2.51
-4.51
-7.26
-10.34
-13.32
-15.95
-18.32
-20.71
-23.58
-27.26
-32.00
-37.87
-44.63
-51.70
-58.08
-62.45
-63.44
-60.02
-51.93
-39.73
-24.76
-8.73
6.64
19.88
29.97
36.27
38.56
37.13
32.77
26.73
20.54
15.63
13.11
13.43
16.46
21.53
27.64
33.72
38.78
42.10
43.29
42.39
39.74
35.93
31.57
27.11
22.80
18.66
14.68
10.89
7.43
4.55
2.39
0.95
-0.01
-0.88
-2.02
-3.67
-5.85
-8.38
-11.04
-13.69
-16.33
-19.15
-22.36
-26.19
-30.73
-36.02
-41.92
-48.10
-53.85
-58.17
-59.81
-57.62
-50.89
-39.73
-25.12
-8.70
7.59
21.97
33.18
40.54
43.89
43.54
40.08
34.51
28.07
22.15
17.97
16.35
17.44
20.79
25.52
30.63
35.27
38.79
40.77
40.96
39.30
35.99
31.44
26.24
20.89
15.74
10.96
6.62
2.86
-0.09
-2.02
-2.90
-3.04
-3.05
-3.56
-5.05
-7.59
-10.93
-14.59
-18.17
-21.46
-24.50
-27.58
-31.07
-35.42
-40.92
-47.57
-54.86
-61.66
-66.39
-67.40
-63.48
-54.30
-40.60
-23.95
-6.36
10.25
24.39
35.12
41.96
44.78
43.83
39.75
33.63
26.90
21.08
17.39
16.47
18.27
22.12
27.01
31.90
35.96
38.70
39.91
39.56
37.76
34.67
30.50
25.54
20.19
14.83
9.80
5.32
1.47
-1.75
-4.37
-6.42
-7.99
-9.29
-10.60
-12.22
-14.34
-16.95
-19.83
-22.71
-25.38
-27.82
-30.23
-33.03
-36.71
-41.65
-47.94
-55.06
-61.86
-66.70
-67.89
-64.24
-55.48
-42.41
-26.68
-10.24
5.11
18.06
27.80
33.95
36.43
35.48
31.67
25.93
19.49
13.66
9.59
8.03
9.17
12.60
17.44
22.64
27.23
30.57
32.45
32.95
32.32
30.72
28.25
24.95
20.95
16.55
12.10
7.93
4.23
1.03
-1.75
-4.19
-6.36
-8.29
-10.04
-11.71
-13.40
-15.18
-17.06
-19.00
-20.91
-22.73
-24.46
-26.28
-28.52
-31.63
-35.91
-41.24
-46.94
-51.72
-54.09
-52.77
-47.19
-37.61
-25.03
-10.89
3.34
16.29
26.87
34.23
37.84
37.62
34.00
27.96
20.84
14.07
8.90
6.14
6.09
8.49
12.68
17.79
22.89
27.24
30.35
32.03
32.31
31.34
29.30
26.35
22.59
18.15
13.22
8.12
3.27
-0.88
-3.97
-5.84
-6.68
-6.90
-7.08
-7.64
-8.81
-10.48
-12.37
-14.28
-16.19
-18.37
-21.23
-25.19
-30.46
-36.94
-44.07
-50.91
-56.18
-58.53
-56.88
-50.65
-40.10
-26.24
-10.68
4.78
18.48
29.15
36.05
38.91
37.94
33.82
27.57
20.53
14.04
9.28
7.03
7.49
10.35
14.84
20.05
25.08
29.26
32.19
33.68
33.70
32.31
29.66
26.01
21.74
17.28
13.01
9.16
5.81
2.86
0.12
-2.57
-5.29
-8.03
-10.73
-13.34
-15.90
-18.51
-21.29
-24.35
-27.76
-31.60
-36.06
-41.29
-47.29
-53.62
-59.31
-62.91
-62.93
-58.36
-49.10
-36.04
-20.81
-5.29
8.84
20.33
28.44
32.86
33.65
31.18
26.25
19.99
13.69
8.60
5.66
5.24
7.16
10.75
15.09
19.35
22.96
25.67
27.48
28.37
28.27
26.98
24.35
20.45
15.57
10.26
5.09
0.54
-3.19
-6.10
-8.41
-10.39
-12.36
-14.51
-16.90
-19.42
-21.80
-23.80
-25.31
-26.49
-27.76
-29.76
-33.07
-37.94
-44.06
-50.48
-55.78
-58.42
-57.23
-51.72
-42.22
-29.73
-15.61
-1.34
11.82
22.82
30.85
35.37
36.21
33.63
28.43
21.87
15.44
10.53
8.12
8.52
11.36
15.81
20.83
25.53
29.29
31.83
33.10
33.09
31.77
29.12
25.20
20.31
14.96
9.80
5.38
2.03
-0.29
-1.87
-3.15
-4.44
-5.93
-7.61
-9.39
-11.20
-13.01
-14.84
-16.71
-18.65
-20.83
-23.53
-27.09
-31.77
-37.47
-43.54
-48.81
-51.79
-51.14
-46.08
-36.69
-23.91
-9.26
5.48
18.69
29.07
35.82
38.61
37.62
33.50
27.33
20.44
14.17
9.61
7.43
7.75
10.26
14.31
19.12
23.87
27.93
30.78
32.12
31.84
29.98
26.73
22.43
17.52
12.50
7.84
3.82
0.57
-2.02
-4.17
-6.11
-8.05
-10.09
-12.21
-14.36
-16.45
-18.48
-20.56
-22.96
-26.09
-30.35
-35.94
-42.60
-49.51
-55.35
-58.56
-57.85
-52.61
-43.05
-30.22
-15.64
-0.97
12.35
23.23
30.91
35.00
35.43
32.57
27.28
20.83
14.70
10.23
8.29
9.11
12.29
16.98
22.14
26.84
30.43
32.58
33.23
32.43
30.30
26.99
22.73
17.94
13.08
8.59
4.76
1.57
-1.16
-3.69
-6.20
-8.72
-11.18
-13.53
-15.77
-17.95
-20.11
-22.26
-24.41
-26.69
-29.41
-32.97
-37.66
-43.40
-49.51
-54.80
-57.82
-57.23
-52.30
-43.09
-30.48
-15.93
-1.11
12.45
23.52
31.38
35.67
36.48
34.23
29.76
24.21
18.86
14.92
13.23
14.06
17.09
21.55
26.44
30.89
34.23
36.17
36.67
35.86
33.87
30.84
26.87
22.19
17.16
12.27
8.02
4.81
2.72
1.50
0.71
-0.16
-1.45
-3.26
-5.46
-7.86
-10.28
-12.64
-14.98
-17.39
-20.02
-23.07
-26.81
-31.53
-37.36
-44.08
-50.98
-56.79
-59.96
-59.08
-53.37
-43.00
-29.06
-13.31
2.34
16.19
27.03
34.22
37.51
37.12
33.64
28.08
21.72
15.99
12.17
11.04
12.78
16.88
22.35
28.05
32.96
36.40
38.12
38.21
36.94
34.63
31.61
28.09
24.29
20.41
16.60
13.01
9.77
7.00
4.76
2.97
1.44
-0.08
-1.84
-3.91
-6.20
-8.47
-10.51
-12.19
-13.60
-14.98
-16.68
-19.16
-22.89
-28.21
-35.07
-42.85
-50.22
-55.41
-56.69
-52.93
-43.99
-30.80
-14.95
1.72
17.58
31.34
42.08
49.05
51.73
49.97
44.25
35.75
26.22
17.65
11.68
9.26
10.44
14.51
20.34
26.72
32.66
37.38
40.32
41.09
39.49
35.61
29.93
23.18
16.26
9.94
4.69
0.65
-2.33
-4.48
-6.04
-7.21
-8.17
-9.09
-10.13
-11.41
-12.97
-14.73
-16.58
-18.35
-19.97
-21.48
-23.07
-25.00
-27.63
-31.22
-35.83
-41.17
-46.54
-50.86
-52.88
-51.51
-46.10
-36.76
-24.35
-10.27
3.88
16.70
27.20
34.83
39.30
40.59
38.91
34.80
29.28
23.71
19.57
17.96
19.32
23.29
28.88
34.85
40.17
44.17
46.69
47.83
47.78
46.68
44.63
41.75
38.19
34.25
30.21
26.29
22.57
19.10
15.95
13.25
11.16
9.70
8.60
7.37
5.40
2.28
-1.97
-6.89
-11.75
-15.87
-18.96
-21.27
-23.45
-26.28
-30.35
-35.81
-42.30
-49.04
-54.94
-58.87
-59.81
-57.08
-50.54
-40.72
-28.72
-16.07
-4.32
5.28
12.02
15.74
16.74
15.57
12.93
9.50
5.92
2.72
0.30
-1.07
-1.30
-0.39
1.57
4.36
7.67
11.10
14.24
16.68
18.11
18.32
17.26
15.08
12.12
8.92
6.03
3.86
2.53
1.78
1.18
0.30
-1.04
-2.70
-4.30
-5.42
-5.82
-5.55
-4.98
-4.68
-5.24
-7.14
-10.57
-15.30
-20.71
-25.90
-29.83
-31.60
-30.61
-26.69
-20.19
-11.87
-2.84
5.71
12.59
16.97
18.41
16.95
13.04
7.42
1.03
-5.22
-10.51
-14.31
-16.38
-16.79
-15.85
-14.00
-11.69
-9.29
-7.13
-5.45
-4.44
-4.16
-4.61
-5.65
-7.07
-8.70
-10.43
-12.25
-14.16
-16.17
-18.22
-20.25
-22.15
-23.91
-25.63
-27.52
-29.94
-33.25
-37.73
-43.33
-49.62
-55.70
-60.36
-62.37
-60.83
-55.41
-46.53
-35.20
-22.73
-10.44
0.68
9.98
17.15
22.04
24.60
24.90
23.29
20.38
17.06
14.25
12.68
12.69
14.19
16.75
19.84
22.98
25.83
28.19
29.91
30.90
30.98
30.00
27.88
24.68
20.64
16.17
11.71
7.62
3.99
0.68
-2.63
-6.22
-10.18
-14.38
-18.53
-22.37
-25.78
-28.95
-32.25
-36.18
-41.15
-47.33
-54.43
-61.64
-67.67
-70.99
-70.24
-64.66
-54.33
-40.30
-24.26
-8.18
6.23
17.78
25.92
30.66
32.36
31.57
28.93
25.22
21.32
18.15
16.56
17.11
19.83
24.21
29.34
34.20
38.00
40.28
40.99
40.25
38.29
35.28
31.40
26.87
21.99
17.12
12.57
8.53
4.98
1.77
-1.30
-4.43
-7.71
-11.23
-14.96
-18.89
-22.91
-26.90
-30.69
-34.20
-37.37
-40.25
-43.02
-45.94
-49.38
-53.73
-59.32
-66.13
-73.61
-80.56
-85.33
-86.26
-82.27
-73.24
-60.00
-44.06
-27.05
-10.39
4.92
18.19
28.88
36.72
41.73
44.45
45.81
46.86
48.42
50.80
53.83
57.09
60.17
62.82
64.94
66.44
67.14
66.78
65.17
62.38
58.76
54.89
51.36
48.57
46.57
45.04
43.55
41.63
39.04
35.78
32.11
28.32
24.67
21.28
18.09
14.96
11.72
8.25
4.48
0.35
-4.15
-9.06
-14.33
-19.88
-25.55
-31.15
-36.56
-41.82
-47.09
-52.56
-58.12
-63.22
-66.89
-68.00
-65.61
-59.38
-49.62
-37.23
-23.42
-9.43
3.73
15.29
24.78
31.97
36.84
39.59
40.61
40.44
39.72
39.11
39.08
39.83
41.21
42.82
44.24
45.22
45.77
46.07
46.30
46.46
46.36
45.70
44.24
41.96
38.99
35.57
31.93
28.12
24.09
19.64
14.52
8.49
1.45
-6.43
-14.66
-22.46
-29.00
-33.62
-36.12
-36.82
-36.45
-35.87
-35.88
-36.97
-39.37
-43.06
-47.89
-53.44
-58.98
-63.37
-65.28
-63.53
-57.60
-47.95
-36.09
-24.19
-14.44
-8.35
-6.41
-8.02
-11.82
-16.28
-20.10
-22.45
-22.90
-21.30
-17.61
-11.82
-4.12
5.11
15.16
25.19
34.43
42.45
49.16
54.67
59.03
62.06
63.40
62.74
60.07
55.84
50.77
45.62
40.89
36.74
33.06
29.68
26.59
23.86
21.56
19.61
17.72
15.49
12.59
8.89
4.48
-0.38
-5.41
-10.43
-15.38
-20.24
-24.96
-29.45
-33.57
-37.23
-40.33
-42.72
-44.08
-43.87
-41.52
-36.59
-29.09
-19.48
-8.56
2.76
13.72
23.74
32.39
39.21
43.70
45.36
43.97
39.84
33.93
27.60
22.32
19.16
18.44
19.69
21.84
23.72
24.50
23.97
22.48
20.62
18.93
17.57
16.41
15.15
13.52
11.52
9.28
7.07
4.99
3.05
1.12
-0.90
-2.97
-5.01
-6.92
-8.78
-10.82
-13.35
-16.61
-20.57
-24.89
-29.06
-32.60
-35.32
-37.42
-39.35
-41.55
-44.19
-46.88
-48.86
-49.16
-46.99
-42.00
-34.39
-24.82
-14.24
-3.73
5.76
13.45
18.92
22.06
23.11
22.51
20.81
18.56
16.20
14.16
12.77
12.35
13.07
14.93
17.69
20.96
24.24
27.06
29.14
30.33
30.69
30.29
29.20
27.39
24.77
21.34
17.30
13.05
9.16
6.16
4.29
3.41
3.05
2.64
1.74
0.20
-1.82
-4.00
-6.02
-7.68
-8.96
-9.96
-10.91
-12.14
-14.03
-16.91
-20.90
-25.77
-30.81
-34.96
-37.14
-36.65
-33.46
-28.29
-22.45
-17.39
-14.25
-13.53
-14.96
-17.68
-20.76
-23.48
-25.60
-27.24
-28.59
-29.63
-30.05
-29.43
-27.47
-24.25
-20.13
-15.61
-11.11
-6.91
-3.17
-0.09
2.07
3.07
2.90
1.83
0.30
-1.18
-2.30
-2.95
-3.29
-3.50
-3.80
-4.32
-5.12
-6.21
-7.51
-8.90
-10.23
-11.36
-12.22
-12.87
-13.47
-14.23
-15.40
-17.22
-19.86
-23.49
-28.09
-33.46
-38.99
-43.74
-46.55
-46.41
-42.80
-35.87
-26.50
-15.92
-5.41
3.99
11.73
17.53
21.33
23.08
22.82
20.73
17.27
13.22
9.52
7.04
6.34
7.53
10.24
13.82
17.56
20.90
23.52
25.36
26.45
26.80
26.44
25.32
23.46
20.94
17.96
14.79
11.71
8.97
6.74
5.11
4.04
3.32
2.63
1.69
0.31
-1.49
-3.50
-5.45
-7.19
-8.76
-10.35
-12.21
-14.47
-17.16
-20.15
-23.32
-26.46
-29.34
-31.56
-32.53
-31.61
-28.19
-22.02
-13.30
-2.81
8.20
18.29
26.22
31.18
32.97
31.94
28.80
24.42
19.62
15.22
11.93
10.34
10.85
13.44
17.64
22.59
27.29
30.89
32.96
33.52
32.96
31.80
30.35
28.67
26.58
23.89
20.63
17.05
13.53
10.33
7.47
4.74
1.89
-1.23
-4.53
-7.82
-10.86
-13.54
-15.86
-17.84
-19.53
-21.04
-22.55
-24.41
-27.01
-30.60
-35.07
-39.81
-43.82
-45.93
-45.16
-41.02
-33.70
-23.94
-12.90
-1.79
8.30
16.54
22.40
25.64
26.26
24.56
21.12
16.82
12.61
9.35
7.62
7.58
9.01
11.43
14.27
17.10
19.59
21.62
23.13
24.08
24.33
23.73
22.14
19.57
16.24
12.49
8.73
5.29
2.31
-0.22
-2.38
-4.26
-5.92
-7.42
-8.84
-10.27
-11.80
-13.50
-15.44
-17.70
-20.48
-24.00
-28.32
-33.16
-37.79
-41.20
-42.40
-40.73
-36.12
-28.97
-20.03
-10.12
-0.05
9.45
17.65
23.88
27.58
28.45
26.59
22.55
17.30
11.99
7.71
5.31
5.13
7.04
10.49
14.73
19.02
22.76
25.50
27.00
27.14
25.99
23.81
21.01
18.04
15.17
12.47
9.79
6.94
3.81
0.43
-3.01
-6.28
-9.22
-11.70
-13.68
-15.22
-16.36
-17.25
-18.07
-19.09
-20.65
-23.03
-26.28
-30.08
-33.73
-36.31
-36.90
-34.91
-30.27
-23.40
-15.07
-6.12
2.71
10.81
17.63
22.59
25.19
25.12
22.52
17.98
12.55
7.41
3.57
1.62
1.65
3.30
6.03
9.25
12.48
15.36
17.58
18.93
19.26
18.52
16.86
14.57
12.04
9.64
7.60
5.96
4.50
2.91
0.89
-1.66
-4.62
-7.62
-10.22
-12.08
-13.11
-13.47
-13.59
-13.98
-15.16
-17.44
-20.93
-25.37
-30.16
-34.38
-36.94
-36.89
-33.70
-27.46
-18.90
-9.22
0.29
8.49
14.68
18.58
20.22
19.87
17.83
14.46
10.25
5.81
1.93
-0.56
-1.03
0.76
4.53
9.54
14.83
19.53
23.06
25.22
26.04
25.62
24.07
21.44
17.89
13.71
9.32
5.15
1.48
-1.63
-4.32
-6.80
-9.25
-11.69
-13.98
-15.87
-17.21
-18.11
-19.00
-20.58
-23.51
-28.02
-33.66
-39.28
-43.35
-44.52
-42.06
-36.06
-27.25
-16.71
-5.55
5.27
14.92
22.64
27.80
30.04
29.43
26.53
22.26
17.67
13.68
10.85
9.43
9.44
10.77
13.21
16.47
20.09
23.47
25.98
27.03
26.33
23.95
20.28
16.00
11.75
8.04
5.05
2.69
0.71
-1.13
-2.98
-4.86
-6.74
-8.60
-10.40
-12.11
-13.65
-15.02
-16.38
-18.06
-20.54
-24.17
-28.90
-34.17
-38.95
-42.03
-42.39
-39.50
-33.42
-24.78
-14.54
-3.83
6.31
14.95
21.44
25.42
26.83
25.91
23.19
19.42
15.50
12.26
10.40
10.27
11.84
14.72
18.33
22.00
25.19
27.54
28.84
29.01
28.03
25.92
22.81
18.97
14.82
10.86
7.58
5.23
3.80
2.94
2.15
0.89
-1.08
-3.73
-6.76
-9.74
-12.34
-14.43
-16.11
-17.68
-19.55
-22.15
-25.82
-30.62
-36.23
-41.85
-46.28
-48.17
-46.43
-40.56
-30.92
-18.63
-5.33
7.29
17.85
25.51
30.01
31.53
30.56
27.79
24.02
20.14
17.02
15.33
15.41
17.15
20.05
23.42
26.63
29.32
31.34
32.73
33.47
33.38
32.17
29.60
25.62
20.55
14.93
9.49
4.86
1.40
-0.82
-2.01
-2.58
-2.97
-3.60
-4.74
-6.47
-8.66
-11.05
-13.33
-15.24
-16.77
-18.10
-19.66
-21.92
-25.25
-29.63
-34.61
-39.20
-42.16
-42.34
-38.98
-32.02
-22.11
-10.44
1.58
12.64
21.70
28.10
31.59
32.32
30.77
27.69
24.02
20.65
18.30
17.34
17.77
19.29
21.48
23.91
26.25
28.27
29.76
30.42
29.89
27.90
24.37
19.61
14.22
8.97
4.51
1.11
-1.39
-3.39
-5.34
-7.47
-9.72
-11.87
-13.73
-15.32
-16.85
-18.62
-20.82
-23.57
-26.89
-30.81
-35.35
-40.32
-45.18
-48.92
-50.29
-48.17
-42.04
-32.21
-19.73
-6.14
7.01
18.41
27.23
33.07
35.91
36.03
33.92
30.32
26.05
21.99
18.92
17.38
17.56
19.26
21.98
25.06
27.79
29.64
30.33
29.75
28.01
25.26
21.73
17.69
13.43
9.26
5.45
2.18
-0.53
-2.73
-4.59
-6.24
-7.80
-9.34
-10.94
-12.69
-14.70
-17.08
-19.86
-22.99
-26.29
-29.47
-32.08
-33.56
-33.28
-30.71
-25.62
-18.23
-9.25
0.25
9.13
16.45
21.68
24.65
25.51
24.50
21.96
18.32
14.14
10.22
7.36
6.24
7.19
9.96
13.88
18.04
21.57
23.84
24.57
23.81
21.77
18.80
15.22
11.34
7.40
3.59
0.03
-3.18
-6.01
-8.44
-10.49
-12.23
-13.74
-15.05
-16.17
-17.15
-18.06
-19.14
-20.76
-23.23
-26.68
-30.79
-34.78
-37.56
-38.02
-35.43
-29.69
-21.35
-11.45
-1.21
8.27
16.14
21.88
25.20
26.04
24.58
21.31
17.01
12.58
8.95
6.78
6.37
7.62
10.14
13.31
16.46
19.04
20.67
21.22
20.74
19.37
17.22
14.34
10.80
6.73
2.45
-1.64
-5.14
-7.86
-9.88
-11.47
-12.95
-14.49
-16.07
-17.52
-18.63
-19.30
-19.64
-19.96
-20.70
-22.23
-24.76
-28.18
-32.07
-35.83
-38.74
-40.07
-39.23
-35.80
-29.73
-21.35
-11.49
-1.27
8.09
15.55
20.50
22.80
22.69
20.64
17.26
13.25
9.33
6.24
4.62
4.80
6.74
9.99
13.82
17.39
20.06
21.50
21.76
21.12
19.93
18.41
16.61
14.43
11.82
8.88
5.88
3.13
0.90
-0.72
-1.85
-2.72
-3.57
-4.58
-5.85
-7.39
-9.10
-10.84
-12.47
-13.95
-15.38
-17.00
-19.11
-21.86
-25.18
-28.65
-31.56
-33.12
-32.62
-29.68
-24.30
-16.88
-8.13
1.12
9.99
17.63
23.26
26.27
26.35
23.65
18.90
13.27
8.09
4.42
2.76
3.05
4.80
7.42
10.45
13.61
16.72
19.52
21.62
22.64
22.34
20.77
18.24
15.24
12.19
9.34
6.73
4.29
2.04
0.02
-1.65
-2.94
-3.95
-4.90
-6.00
-7.30
-8.68
-9.93
-10.91
-11.77
-12.85
-14.68
-17.65
-21.74
-26.45
-30.77
-33.50
-33.61
-30.57
-24.52
-16.19
-6.73
2.74
11.30
18.33
23.45
26.41
27.05
25.43
21.93
17.24
12.31
8.06
5.18
3.94
4.24
5.74
7.95
10.44
12.81
14.81
16.23
16.97
16.92
16.02
14.25
11.70
8.61
5.35
2.34
-0.11
-1.88
-3.09
-3.98
-4.80
-5.75
-6.89
-8.28
-9.90
-11.72
-13.67
-15.66
-17.58
-19.43
-21.33
-23.52
-26.30
-29.81
-33.95
-38.22
-41.79
-43.65
-42.90
-39.03
-32.11
-22.84
-12.36
-1.95
7.28
14.56
19.56
22.28
22.91
21.73
19.15
15.66
11.92
8.66
6.53
5.93
6.84
8.91
11.51
14.03
16.07
17.49
18.30
18.58
18.30
17.32
15.52
12.91
9.73
6.37
3.31
0.88
-0.80
-1.81
-2.44
-2.98
-3.70
-4.76
-6.15
-7.77
-9.42
-10.93
-12.23
-13.41
-14.69
-16.33
-18.49
-21.26
-24.60
-28.42
-32.56
-36.63
-40.01
-41.86
-41.34
-37.93
-31.66
-23.17
-13.46
-3.63
5.40
13.00
18.73
22.29
23.52
22.44
19.44
15.23
10.77
7.05
4.79
4.37
5.78
8.65
12.47
16.61
20.51
23.69
25.82
26.75
26.49
25.16
22.92
19.97
16.52
12.88
9.42
6.49
4.28
2.77
1.73
0.86
-0.07
-1.15
-2.36
-3.66
-5.11
-6.81
-8.84
-11.11
-13.43
-15.61
-17.68
-19.90
-22.65
-26.25
-30.68
-35.53
-40.04
-43.33
-44.68
-43.68
-40.22
-34.49
-26.86
-17.87
-8.23
1.21
9.54
15.86
19.58
20.48
18.82
15.33
11.02
6.91
3.88
2.38
2.56
4.22
6.97
10.38
13.97
17.30
19.90
21.36
21.45
20.22
18.02
15.37
12.81
10.65
8.94
7.45
5.91
4.13
2.12
0.08
-1.75
-3.21
-4.30
-5.21
-6.20
-7.45
-9.05
-10.85
-12.66
-14.35
-15.90
-17.51
-19.43
-21.85
-24.78
-28.06
-31.26
-33.86
-35.29
-35.05
-32.86
-28.59
-22.35
-14.44
-5.34
4.27
13.53
21.44
27.07
29.76
29.37
26.31
21.51
16.10
11.22
7.70
5.99
6.16
7.97
10.91
14.39
17.76
20.46
22.11
22.57
21.93
20.40
18.23
15.64
12.72
9.56
6.26
3.05
0.20
-2.06
-3.70
-4.90
-5.94
-7.04
-8.20
-9.25
-9.97
-10.31
-10.48
-10.87
-11.86
-13.64
-16.18
-19.35
-23.04
-27.16
-31.49
-35.51
-38.33
-38.94
-36.57
-31.04
-22.93
-13.38
-3.65
5.22
12.65
18.41
22.42
24.57
24.74
22.95
19.59
15.43
11.54
8.95
8.35
9.85
13.01
17.03
21.07
24.53
27.12
28.79
29.59
29.53
28.52
26.59
23.81
20.44
16.88
13.49
10.50
8.00
5.86
3.79
1.56
-1.03
-3.92
-6.86
-9.50
-11.54
-12.95
-13.95
-15.00
-16.51
-18.75
-21.80
-25.63
-30.10
-35.01
-39.93
-44.08
-46.44
-45.99
-42.11
-34.82
-24.88
-13.50
-2.06
8.24
16.53
22.26
25.19
25.37
23.18
19.34
14.87
10.89
8.34
7.76
9.18
12.12
15.87
19.65
22.86
25.21
26.64
27.22
27.06
26.22
24.70
22.49
19.64
16.27
12.64
9.02
5.64
2.64
-0.03
-2.49
-4.88
-7.25
-9.51
-11.50
-13.09
-14.30
-15.28
-16.28
-17.50
-19.10
-21.09
-23.51
-26.42
-29.88
-33.80
-37.81
-41.14
-42.80
-41.79
-37.48
-29.90
-19.72
-8.17
3.39
13.70
21.84
27.32
29.99
30.03
27.86
24.13
19.71
15.50
12.33
10.80
11.12
13.10
16.24
19.82
23.16
25.70
27.14
27.42
26.66
25.06
22.82
20.10
17.03
13.75
10.40
7.13
4.03
1.19
-1.36
-3.62
-5.62
-7.42
-9.15
-10.93
-12.84
-14.82
-16.73
-18.42
-19.85
-21.13
-22.55
-24.42
-26.99
-30.33
-34.28
-38.46
-42.24
-44.79
-45.24
-42.87
-37.35
-28.96
-18.51
-7.23
3.61
12.93
20.08
24.72
26.80
26.43
23.91
19.79
14.91
10.35
7.15
6.08
7.32
10.53
14.93
19.62
23.83
27.06
29.05
29.73
29.18
27.58
25.25
22.48
19.55
16.62
13.73
10.89
8.15
5.67
3.62
2.12
1.13
0.50
-0.05
-0.80
-1.97
-3.69
-6.00
-8.79
-11.87
-14.96
-17.84
-20.44
-22.94
-25.64
-28.81
-32.41
-35.96
-38.65
-39.54
-37.91
-33.50
-26.52
-17.57
-7.43
3.05
13.03
21.69
28.24
32.13
33.17
31.62
28.24
24.04
20.08
17.22
15.99
16.52
18.60
21.75
25.33
28.66
31.19
32.56
32.69
31.71
29.84
27.33
24.34
21.02
17.52
14.05
10.84
8.08
5.80
3.92
2.23
0.53
-1.31
-3.26
-5.21
-6.95
-8.30
-9.18
-9.65
-9.99
-10.68
-12.31
-15.39
-20.14
-26.23
-32.79
-38.49
-41.94
-42.02
-38.27
-30.98
-21.12
-10.01
1.00
10.83
18.74
24.30
27.36
27.96
26.43
23.37
19.60
16.05
13.51
12.40
12.79
14.34
16.54
18.86
20.93
22.47
23.33
23.46
22.85
21.53
19.60
17.14
14.25
11.06
7.71
4.39
1.30
-1.43
-3.74
-5.69
-7.45
-9.22
-11.17
-13.32
-15.56
-17.72
-19.64
-21.25
-22.71
-24.31
-26.45
-29.53
-33.76
-39.01
-44.69
-49.78
-52.98
-53.13
-49.53
-42.24
-32.03
-20.15
-7.93
3.44
13.12
20.57
25.44
27.58
27.12
24.55
20.72
16.71
13.53
11.89
12.05
13.82
16.71
20.11
23.43
26.25
28.29
29.36
29.37
28.28
26.06
22.77
18.60
13.86
9.07
4.73
1.27
-1.18
-2.73
-3.72
-4.48
-5.27
-6.18
-7.23
-8.39
-9.68
-11.06
-12.48
-13.85
-15.16
-16.54
-18.32
-20.86
-24.48
-29.22
-34.74
-40.34
-45.03
-47.77
-47.66
-44.21
-37.45
-27.96
-16.74
-5.01
5.95
15.08
21.65
25.31
26.14
24.57
21.34
17.34
13.43
10.36
8.70
8.72
10.38
13.35
17.06
20.86
24.12
26.35
27.36
27.16
25.96
24.10
21.82
19.28
16.48
13.38
9.98
6.48
3.18
0.42
-1.59
-2.91
-3.78
-4.58
-5.59
-6.95
-8.57
-10.32
-12.05
-13.70
-15.29
-16.92
-18.64
-20.50
-22.59
-24.99
-27.90
-31.35
-35.14
-38.66
-40.90
-40.78
-37.51
-30.91
-21.53
-10.51
0.81
11.25
19.94
26.39
30.34
31.71
30.61
27.44
22.86
17.81
13.26
9.99
8.43
8.56
9.99
12.16
14.49
16.54
18.09
19.09
19.53
19.44
18.77
17.46
15.50
13.01
10.23
7.48
5.01
2.95
1.28
-0.09
-1.29
-2.36
-3.33
-4.21
-5.08
-6.06
-7.29
-8.81
-10.56
-12.44
-14.47
-16.82
-19.77
-23.55
-28.06
-32.75
-36.67
-38.73
-38.13
-34.54
-28.21
-19.79
-10.13
-0.07
9.62
18.20
24.96
29.20
30.49
28.82
24.73
19.28
13.81
9.58
7.45
7.66
9.90
13.46
17.51
21.35
24.52
26.80
28.13
28.54
28.04
26.64
24.36
21.35
17.82
14.15
10.70
7.75
5.38
3.44
1.65
-0.29
-2.55
-5.11
-7.75
-10.21
-12.28
-13.95
-15.38
-16.92
-18.99
-22.02
-26.21
-31.47
-37.23
-42.44
-45.81
-46.10
-42.52
-35.06
-24.47
-12.12
0.44
11.81
21.06
27.67
31.56
32.88
31.95
29.22
25.34
21.04
17.13
14.29
12.97
13.26
14.91
17.37
19.99
22.19
23.60
24.07
23.67
22.53
20.74
18.24
14.99
11.01
6.61
2.27
-1.49
-4.34
-6.29
-7.66
-8.94
-10.51
-12.52
-14.91
-17.55
-20.33
-23.24
-26.30
-29.51
-32.89
-36.42
-40.11
-43.90
-47.49
-50.29
-51.42
-50.05
-45.66
-38.32
-28.71
-17.91
-7.07
2.83
11.09
17.18
20.72
21.51
19.68
15.84
11.08
6.73
4.03
3.68
5.67
9.36
13.71
17.70
20.61
22.17
22.50
21.93
20.77
19.20
17.27
14.98
12.37
9.62
6.89
4.27
1.70
-1.00
-3.97
-7.24
-10.67
-14.01
-17.04
-19.66
-21.86
-23.75
-25.54
-27.49
-29.98
-33.28
-37.44
-42.06
-46.31
-48.99
-48.95
-45.45
-38.45
-28.65
-17.23
-5.59
5.09
13.95
20.51
24.57
26.09
25.26
22.54
18.76
14.97
12.24
11.34
12.48
15.30
19.01
22.72
25.76
27.77
28.73
28.74
27.94
26.40
24.18
21.40
18.27
15.05
11.96
9.11
6.43
3.76
0.91
-2.16
-5.40
-8.58
-11.48
-13.93
-15.92
-17.55
-19.07
-20.87
-23.25
-26.41
-30.18
-33.97
-36.82
-37.67
-35.70
-30.62
-22.73
-12.83
-1.95
8.81
18.47
26.20
31.41
33.79
33.55
31.33
28.19
25.18
23.12
22.30
22.54
23.37
24.35
25.18
25.82
26.29
26.61
26.67
26.30
25.32
23.65
21.33
18.47
15.27
11.92
8.67
5.77
3.41
1.63
0.25
-1.03
-2.51
-4.35
-6.44
-8.49
-10.26
-11.68
-12.98
-14.55
-16.82
-20.07
-24.37
-29.50
-35.02
-40.18
-44.02
-45.48
-43.75
-38.52
-30.25
-20.03
-9.30
0.60
8.81
14.99
19.15
21.39
21.78
20.46
17.76
14.38
11.24
9.25
8.95
10.30
12.82
15.75
18.44
20.49
21.77
22.28
22.04
21.05
19.30
16.88
13.95
10.69
7.32
4.03
1.06
-1.36
-3.06
-4.02
-4.45
-4.78
-5.40
-6.56
-8.22
-10.12
-11.93
-13.49
-14.84
-16.21
-17.88
-20.04
-22.75
-26.05
-29.88
-34.08
-38.25
-41.64
-43.31
-42.39
-38.36
-31.34
-22.06
-11.61
-1.14
8.36
16.21
21.97
25.41
26.46
25.36
22.64
19.13
15.76
13.38
12.54
13.35
15.54
18.52
21.65
24.38
26.36
27.44
27.62
26.94
25.44
23.18
20.33
17.16
14.04
11.32
9.25
7.81
6.84
6.08
5.33
4.45
3.43
2.25
0.96
-0.43
-1.89
-3.37
-4.88
-6.47
-8.28
-10.52
-13.40
-17.09
-21.54
-26.44
-31.17
-34.89
-36.73
-36.01
-32.47
-26.38
-18.40
-9.49
-0.58
7.55
14.31
19.33
22.40
23.50
22.83
20.87
18.30
15.91
14.32
13.90
14.67
16.29
18.27
20.10
21.38
21.91
21.66
20.76
19.40
17.76
15.94
13.94
11.72
9.23
6.52
3.70
0.96
-1.60
-3.95
-6.16
-8.31
-10.36
-12.14
-13.41
-14.05
-14.18
-14.24
-14.76
-16.22
-18.83
-22.52
-26.97
-31.66
-36.04
-39.42
-41.07
-40.36
-36.85
-30.61
-22.21
-12.60
-2.96
5.67
12.53
17.27
19.87
20.53
19.62
17.58
14.94
12.27
10.15
9.07
9.33
10.84
13.24
15.93
18.32
19.99
20.84
20.98
20.53
19.51
17.82
15.37
12.23
8.71
5.31
2.52
0.59
-0.53
-1.16
-1.74
-2.58
-3.86
-5.54
-7.47
-9.48
-11.49
-13.45
-15.38
-17.25
-19.03
-20.74
-22.53
-24.69
-27.58
-31.32
-35.55
-39.36
-41.50
-40.80
-36.68
-29.41
-20.00
-9.82
-0.13
8.21
14.78
19.37
21.87
22.19
20.45
17.15
13.17
9.62
7.41
7.10
8.65
11.62
15.27
18.87
21.82
23.72
24.44
24.03
22.71
20.80
18.59
16.30
14.05
11.85
9.63
7.36
5.08
2.93
1.07
-0.42
-1.56
-2.54
-3.56
-4.77
-6.24
-7.89
-9.61
-11.32
-13.01
-14.70
-16.41
-18.22
-20.29
-22.86
-26.16
-30.16
-34.40
-37.95
-39.70
-38.73
-34.68
-27.90
-19.30
-9.96
-0.85
7.34
14.09
19.04
21.81
22.23
20.45
17.05
13.02
9.50
7.34
6.95
8.17
10.46
13.21
15.93
18.40
20.54
22.26
23.43
23.79
23.16
21.48
18.94
15.88
12.71
9.79
7.40
5.70
4.75
4.45
4.57
4.78
4.75
4.20
3.06
1.45
-0.35
-2.10
-3.65
-5.09
-6.68
-8.77
-11.65
-15.43
-20.01
-24.97
-29.63
-33.14
-34.61
-33.37
-29.13
-22.13
-13.14
-3.24
6.40
14.74
21.04
24.93
26.33
25.50
22.92
19.29
15.36
11.87
9.38
8.21
8.36
9.57
11.46
13.63
15.69
17.39
18.53
18.95
18.54
17.22
15.00
12.02
8.57
5.00
1.65
-1.28
-3.73
-5.79
-7.62
-9.30
-10.92
-12.47
-13.98
-15.44
-16.92
-18.43
-20.00
-21.67
-23.58
-25.99
-29.14
-33.14
-37.71
-42.11
-45.28
-46.18
-44.13
-39.14
-31.76
-22.95
-13.64
-4.59
3.67
10.76
16.28
19.90
21.41
20.91
18.88
16.05
13.20
10.96
9.65
9.36
9.99
11.39
13.32
15.52
17.66
19.37
20.29
20.21
19.06
16.94
14.08
10.78
7.43
4.35
1.83
-0.02
-1.26
-2.11
-2.90
-3.85
-5.09
-6.53
-7.99
-9.30
-10.40
-11.39
-12.40
-13.64
-15.33
-17.70
-20.94
-25.14
-30.05
-35.03
-39.04
-40.91
-39.68
-34.99
-27.21
-17.34
-6.67
3.57
12.46
19.46
24.28
26.75
26.82
24.67
20.76
15.93
11.18
7.48
5.46
5.32
6.79
9.38
12.50
15.62
18.37
20.41
21.56
21.69
20.83
19.13
16.83
14.16
11.34
8.49
5.65
2.85
0.16
-2.34
-4.55
-6.45
-8.07
-9.52
-10.85
-12.12
-13.33
-14.47
-15.58
-16.84
-18.53
-20.92
-24.16
-28.09
-32.23
-35.77
-37.81
-37.59
-34.69
-29.17
-21.57
-12.72
-3.54
5.09
12.51
18.24
21.95
23.51
22.97
20.67
17.20
13.32
9.87
7.48
6.52
7.00
8.64
11.02
13.74
16.48
19.00
21.04
22.28
22.44
21.32
18.96
15.69
12.02
8.43
5.20
2.36
-0.27
-2.90
-5.54
-8.05
-10.21
-11.83
-12.95
-13.73
-14.44
-15.32
-16.56
-18.28
-20.60
-23.57
-27.06
-30.70
-33.77
-35.39
-34.70
-31.21
-24.97
-16.62
-7.17
2.26
10.68
17.46
22.29
25.11
25.98
25.05
22.51
18.70
14.17
9.65
5.96
3.82
3.62
5.28
8.29
11.85
15.16
17.62
18.96
19.18
18.38
16.72
14.34
11.41
8.20
5.02
2.07
-0.62
-3.19
-5.92
-8.93
-12.11
-15.18
-17.75
-19.62
-20.88
-21.91
-23.24
-25.35
-28.51
-32.64
-37.29
-41.62
-44.55
-45.03
-42.28
-36.11
-26.98
-15.94
-4.38
6.32
15.06
21.15
24.34
24.77
22.88
19.31
14.85
10.34
6.57
4.13
3.28
3.96
5.82
8.37
11.08
13.54
15.46
16.57
16.66
15.56
13.26
9.97
6.09
2.14
-1.47
-4.54
-7.11
-9.32
-11.31
-13.03
-14.32
-15.05
-15.22
-15.10
-15.12
-15.75
-17.33
-19.99
-23.66
-28.09
-32.85
-37.32
-40.70
-42.05
-40.43
-35.24
-26.45
-14.73
-1.35
12.12
24.15
33.52
39.59
42.21
41.71
38.76
34.25
29.15
24.39
20.73
18.65
18.34
19.70
22.40
25.99
29.93
33.69
36.76
38.68
39.16
38.07
35.57
31.99
27.82
23.53
19.45
15.76
12.51
9.69
7.28
5.32
3.76
2.53
1.45
0.24
-1.41
-3.78
-7.05
-11.25
-16.19
-21.42
-26.24
-29.81
-31.33
-30.19
-26.18
-19.53
-10.91
-1.28
8.25
16.62
22.91
26.54
27.29
25.37
21.37
16.17
10.77
6.12
2.97
1.71
2.40
4.74
8.21
12.13
15.83
18.68
20.29
20.48
19.31
17.09
14.16
10.83
7.25
3.46
-0.52
-4.56
-8.36
-11.56
-13.88
-15.30
-16.10
-16.72
-17.59
-18.96
-20.88
-23.30
-26.16
-29.42
-32.98
-36.48
-39.25
-40.41
-39.08
-34.73
-27.46
-18.00
-7.56
2.51
11.07
17.32
20.91
21.87
20.51
17.34
13.06
8.42
4.25
1.26
-0.08
0.43
2.59
5.89
9.62
13.07
15.66
17.08
17.29
16.50
15.05
13.27
11.35
9.38
7.30
4.99
2.39
-0.45
-3.37
-6.16
-8.62
-10.66
-12.30
-13.61
-14.70
-15.73
-16.91
-18.49
-20.69
-23.50
-26.46
-28.73
-29.20
-26.95
-21.60
-13.61
-4.09
5.52
13.94
20.35
24.42
26.18
25.81
23.56
19.82
15.16
10.36
6.25
3.56
2.66
3.54
5.81
8.84
12.01
14.77
16.80
17.95
18.25
17.73
16.44
14.32
11.30
7.44
2.94
-1.76
-6.15
-9.75
-12.30
-13.82
-14.61
-15.12
-15.92
-17.56
-20.36
-24.39
-29.28
-34.27
-38.34
-40.37
-39.51
-35.37
-28.16
-18.61
-7.86
2.86
12.46
20.11
25.33
27.98
28.15
26.16
22.53
17.92
13.16
9.10
6.45
5.69
6.87
9.61
13.24
16.92
19.86
21.56
21.87
20.89
18.93
16.26
13.10
9.57
5.73
1.69
-2.43
-6.42
-10.09
-13.37
-16.23
-18.73
-20.95
-22.98
-24.92
-26.95
-29.33
-32.39
-36.31
-40.92
-45.53
-49.06
-50.22
-47.96
-41.89
-32.42
-20.67
-8.08
3.90
14.15
21.93
26.84
28.81
28.10
25.34
21.47
17.56
14.60
13.18
13.48
15.28
18.10
21.43
24.76
27.63
29.65
30.52
30.10
28.40
25.58
21.96
17.84
13.53
9.25
5.13
1.25
-2.37
-5.72
-8.80
-11.57
-14.00
-16.13
-18.08
-20.06
-22.31
-25.07
-28.57
-32.90
-37.97
-43.40
-48.43
-51.98
-52.85
-50.14
-43.52
-33.51
-21.26
-8.34
3.71
13.75
21.13
25.62
27.36
26.73
24.29
20.84
17.30
14.68
13.74
14.82
17.70
21.64
25.67
28.96
31.05
31.95
31.90
31.19
29.89
27.93
25.16
21.60
17.54
13.41
9.64
6.41
3.69
1.23
-1.24
-3.85
-6.58
-9.27
-11.72
-13.81
-15.50
-16.92
-18.38
-20.30
-23.12
-27.18
-32.45
-38.43
-44.11
-48.19
-49.41
-46.87
-40.34
-30.29
-17.82
-4.31
8.77
20.14
28.80
34.12
35.92
34.44
30.41
24.96
19.43
15.07
12.81
12.98
15.35
19.19
23.60
27.72
30.93
32.89
33.50
32.80
30.89
27.93
24.14
19.91
15.64
11.73
8.44
5.84
3.81
2.09
0.42
-1.38
-3.37
-5.50
-7.67
-9.78
-11.81
-13.80
-15.87
-18.23
-21.17
-24.99
-29.86
-35.66
-41.81
-47.24
-50.59
-50.50
-46.11
-37.34
-25.00
-10.66
3.85
16.84
27.06
33.83
37.01
36.86
33.99
29.27
23.82
18.83
15.33
13.99
14.92
17.73
21.62
25.71
29.17
31.51
32.50
32.24
30.97
28.99
26.58
23.88
20.95
17.76
14.33
10.73
7.18
3.90
1.09
-1.25
-3.26
-5.18
-7.27
-9.71
-12.53
-15.55
-18.55
-21.27
-23.60
-25.58
-27.54
-29.93
-33.25
-37.86
-43.74
-50.35
-56.61
-61.03
-62.14
-58.89
-50.96
-38.96
-24.25
-8.60
6.23
18.84
28.30
34.26
36.78
36.31
33.62
29.72
25.74
22.69
21.21
21.55
23.51
26.57
30.08
33.41
36.03
37.58
37.78
36.57
34.03
30.49
26.43
22.38
18.78
15.79
13.33
11.09
8.78
6.28
3.74
1.47
-0.22
-1.21
-1.67
-1.96
-2.47
-3.49
-5.10
-7.23
-9.78
-12.62
-15.68
-18.83
-21.94
-24.93
-27.90
-31.13
-35.03
-39.82
-45.36
-50.89
-55.20
-56.92
-55.01
-49.05
-39.45
-27.23
-13.85
-0.79
10.67
19.64
25.66
28.69
29.01
27.18
23.93
20.08
16.49
13.92
12.93
13.77
16.20
19.66
23.37
26.60
28.89
30.09
30.28
29.62
28.18
26.03
23.23
19.95
16.51
13.27
10.48
8.24
6.49
5.07
3.85
2.80
1.89
1.12
0.38
-0.54
-1.84
-3.70
-6.06
-8.73
-11.34
-13.65
-15.53
-17.13
-18.77
-20.81
-23.63
-27.45
-32.35
-38.16
-44.36
-49.98
-53.70
-54.19
-50.50
-42.49
-30.99
-17.58
-4.05
8.08
17.83
24.83
29.03
30.65
29.96
27.43
23.81
20.06
17.24
16.16
17.26
20.40
25.01
30.19
35.01
38.72
40.85
41.35
40.41
38.36
35.51
32.10
28.29
24.20
20.05
16.07
12.48
9.42
6.87
4.70
2.71
0.76
-1.20
-3.18
-5.12
-7.02
-8.99
-11.16
-13.66
-16.51
-19.55
-22.55
-25.29
-27.73
-30.07
-32.76
-36.27
-40.85
-46.26
-51.69
-55.90
-57.53
-55.52
-49.45
-39.64
-27.16
-13.51
-0.27
11.18
19.89
25.47
28.00
27.91
25.91
22.81
19.43
16.50
14.60
14.06
14.96
17.10
20.09
23.41
26.57
29.14
30.86
31.60
31.36
30.17
28.13
25.34
22.00
18.34
14.68
11.28
8.27
5.67
3.39
1.32
-0.55
-2.20
-3.62
-4.86
-6.13
-7.70
-9.74
-12.31
-15.26
-18.36
-21.35
-24.09
-26.55
-28.81
-31.10
-33.69
-36.94
-41.07
-46.01
-51.20
-55.60
-57.87
-56.77
-51.58
-42.38
-30.06
-16.06
-1.98
10.81
21.30
28.85
33.05
33.81
31.38
26.54
20.56
14.94
10.99
9.49
10.44
13.25
17.03
20.91
24.29
26.84
28.36
28.71
27.79
25.57
22.23
18.12
13.73
9.58
6.06
3.37
1.44
0.02
-1.18
-2.40
-3.70
-5.01
-6.22
-7.29
-8.34
-9.55
-11.06
-12.87
-14.80
-16.57
-17.99
-19.07
-20.03
-21.30
-23.30
-26.34
-30.41
-35.15
-39.78
-43.32
-44.74
-43.30
-38.70
-31.13
-21.25
-10.00
1.52
12.24
21.12
27.35
30.44
30.31
27.42
22.63
17.09
11.98
8.23
6.35
6.41
8.06
10.73
13.77
16.69
19.11
20.84
21.75
21.77
20.91
19.27
17.01
14.44
11.78
9.25
6.91
4.77
2.80
0.99
-0.64
-2.09
-3.42
-4.72
-6.13
-7.71
-9.46
-11.36
-13.38
-15.56
-18.04
-20.98
-24.54
-28.83
-33.81
-39.18
-44.37
-48.51
-50.56
-49.58
-45.07
-37.14
-26.62
-14.81
-3.18
7.03
14.95
20.13
22.52
22.32
20.01
16.28
12.02
8.17
5.52
4.58
5.40
7.70
10.91
14.41
17.61
20.13
21.74
22.45
22.36
21.57
20.12
17.94
15.00
11.38
7.42
3.60
0.36
-2.09
-3.90
-5.44
-7.10
-9.08
-11.30
-13.57
-15.68
-17.63
-19.56
-21.71
-24.27
-27.36
-30.99
-35.08
-39.38
-43.43
-46.44
-47.45
-45.55
-40.22
-31.48
-19.99
-6.86
6.57
19.06
29.54
37.30
41.93
43.44
42.19
38.87
34.42
29.80
25.88
23.34
22.50
23.37
25.63
28.71
31.93
34.65
36.39
36.93
36.31
34.71
32.39
29.51
26.19
22.48
18.43
14.19
9.97
6.01
2.47
-0.57
-3.20
-5.54
-7.70
-9.71
-11.47
-12.92
-14.06
-15.13
-16.50
-18.62
-21.79
-26.10
-31.34
-37.00
-42.29
-46.34
-48.28
-47.43
-43.46
-36.45
-26.94
-15.81
-4.16
6.86
16.23
23.12
27.04
27.85
25.81
21.55
16.06
10.43
5.79
2.96
2.41
4.10
7.52
11.91
16.42
20.34
23.19
24.74
24.93
23.91
21.88
19.08
15.81
12.29
8.72
5.27
2.09
-0.67
-2.88
-4.52
-5.66
-6.60
-7.68
-9.20
-11.21
-13.52
-15.73
-17.49
-18.73
-19.79
-21.24
-23.70
-27.40
-32.02
-36.78
-40.58
-42.37
-41.45
-37.51
-30.70
-21.53
-10.81
0.49
11.29
20.59
27.58
31.74
32.92
31.34
27.57
22.42
16.89
11.98
8.53
7.01
7.47
9.57
12.72
16.26
19.67
22.59
24.80
26.14
26.49
25.70
23.75
20.74
17.01
12.98
9.13
5.79
3.13
1.06
-0.59
-2.07
-3.51
-4.94
-6.31
-7.55
-8.68
-9.77
-10.97
-12.39
-14.11
-16.19
-18.70
-21.74
-25.32
-29.22
-32.91
-35.57
-36.27
-34.26
-29.23
-21.47
-11.76
-1.18
9.13
18.13
24.98
29.16
30.44
28.97
25.28
20.21
14.80
10.06
6.80
5.46
6.12
8.45
11.93
15.91
19.80
23.06
25.27
26.19
25.72
23.91
20.97
17.21
13.05
8.87
5.00
1.64
-1.17
-3.55
-5.73
-7.92
-10.27
-12.72
-15.06
-17.04
-18.52
-19.52
-20.26
-21.06
-22.25
-24.15
-26.90
-30.45
-34.35
-37.81
-39.76
-39.18
-35.44
-28.58
-19.34
-8.90
1.50
10.83
18.41
23.85
26.91
27.51
25.77
22.15
17.47
12.77
9.11
7.29
7.67
10.10
13.99
18.53
22.90
26.47
28.88
30.06
30.10
29.15
27.33
24.76
21.57
18.00
14.30
10.68
7.26
4.04
0.93
-2.17
-5.32
-8.46
-11.51
-14.31
-16.78
-18.88
-20.68
-22.35
-24.09
-26.17
-28.85
-32.37
-36.82
-42.02
-47.31
-51.68
-53.85
-52.79
-47.97
-39.69
-28.96
-17.16
-5.70
4.38
12.41
18.10
21.30
22.08
20.64
17.51
13.57
9.87
7.47
7.02
8.70
12.05
16.28
20.51
24.09
26.71
28.33
29.06
28.91
27.81
25.67
22.58
18.83
14.88
11.21
8.09
5.59
3.61
1.99
0.61
-0.58
-1.67
-2.79
-4.12
-5.77
-7.79
-10.04
-12.37
-14.60
-16.72
-18.86
-21.32
-24.42
-28.38
-33.11
-38.10
-42.46
-45.04
-44.81
-41.16
-34.10
-24.29
-12.93
-1.33
9.21
17.72
23.60
26.64
27.01
25.16
21.81
17.81
14.06
11.36
10.26
10.88
12.96
15.88
18.90
21.39
22.97
23.60
23.49
22.93
22.14
21.22
20.19
19.00
17.61
16.01
14.20
12.15
9.86
7.35
4.67
1.88
-0.94
-3.76
-6.61
-9.53
-12.54
-15.62
-18.72
-21.87
-25.17
-28.84
-33.12
-38.16
-44.02
-50.57
-57.52
-64.44
-70.78
-75.87
-78.98
-79.43
-76.71
-70.62
-61.28
-49.15
-34.95
-19.61
-4.26
9.86
21.57
29.95
34.63
35.89
34.63
32.03
29.23
27.06
25.86
25.61
26.14
27.18
28.59
30.17
31.83
33.46
35.02
36.53
38.07
39.71
41.57
43.81
46.61
50.16
54.46
59.29
64.08
68.05
70.42
70.58
68.34
63.87
57.63
50.27
42.45
34.76
27.63
21.21
15.31
9.42
2.83
-5.23
-15.23
-27.25
-40.78
-54.77
-67.78
-78.27
-84.91
-86.98
-84.44
-78.01
-68.96
-58.74
-48.71
-39.85
-32.76
-27.58
-24.13
-21.94
-20.40
-18.85
-16.75
-13.85
-10.23
-6.22
-2.21
1.51
4.93
8.17
11.40
14.54
17.21
18.80
18.71
16.65
12.80
7.78
2.45
-2.34
-6.06
-8.51
-9.88
-10.54
-10.94
-11.43
-12.26
-13.53
-15.25
-17.32
-19.57
-21.80
-23.77
-25.33
-26.51
-27.58
-29.03
-31.37
-34.81
-38.99
-42.95
-45.31
-44.76
-40.47
-32.46
-21.60
-9.30
2.87
13.62
22.09
27.83
30.75
30.94
28.71
24.70
19.84
15.28
12.10
11.00
12.06
14.84
18.52
22.29
25.55
27.99
29.55
30.26
30.15
29.23
27.52
25.12
22.25
19.18
16.15
13.34
10.83
8.63
6.72
5.11
3.82
2.86
2.16
1.63
1.10
0.43
-0.49
-1.68
-3.14
-4.84
-6.85
-9.33
-12.50
-16.53
-21.42
-26.79
-31.89
-35.66
-37.03
-35.21
-29.97
-21.78
-11.68
-0.95
9.14
17.69
24.16
28.34
30.24
29.96
27.78
24.22
20.11
16.45
14.16
13.79
15.33
18.24
21.74
25.08
27.79
29.65
30.56
30.45
29.26
27.00
23.88
20.33
16.89
13.97
11.66
9.76
7.94
5.92
3.67
1.32
-0.96
-3.13
-5.30
-7.65
-10.19
-12.75
-14.96
-16.50
-17.36
-17.83
-18.50
-19.98
-22.63
-26.41
-30.84
-35.19
-38.60
-40.30
-39.76
-36.75
-31.37
-23.99
-15.19
-5.62
4.04
13.15
20.99
26.85
30.10
30.40
27.98
23.70
18.89
14.98
12.97
13.17
15.18
18.23
21.62
24.93
28.09
31.12
33.83
35.78
36.46
35.58
33.28
30.11
26.79
23.94
21.87
20.56
19.82
19.44
19.25
19.09
18.76
18.00
16.62
14.62
12.21
9.81
7.80
6.40
5.49
4.65
3.24
0.68
-3.36
-8.75
-14.88
-20.75
-25.24
-27.35
-26.47
-22.56
-16.11
-8.06
0.49
8.39
14.63
18.49
19.62
18.10
14.43
9.46
4.15
-0.53
-3.86
-5.42
-5.15
-3.32
-0.46
2.77
5.76
8.01
9.23
9.31
8.34
6.47
3.94
0.98
-2.20
-5.38
-8.36
-10.97
-13.13
-14.84
-16.26
-17.59
-18.96
-20.40
-21.70
-22.59
-22.83
-22.41
-21.63
-20.98
-21.08
-22.37
-25.10
-29.12
-33.92
-38.65
-42.20
-43.49
-41.68
-36.52
-28.38
-18.23
-7.28
3.22
12.31
19.30
23.81
25.67
24.93
21.92
17.26
11.80
6.50
2.22
-0.49
-1.50
-1.05
0.32
2.06
3.70
4.89
5.44
5.27
4.34
2.68
0.38
-2.33
-5.19
-7.86
-10.15
-12.01
-13.60
-15.17
-16.94
-18.97
-21.18
-23.36
-25.28
-26.81
-27.94
-28.84
-29.75
-31.06
-33.15
-36.27
-40.43
-45.13
-49.44
-52.17
-52.16
-48.77
-41.97
-32.40
-21.10
-9.29
1.97
11.76
19.42
24.50
26.78
26.36
23.70
19.61
15.09
11.09
8.34
7.16
7.47
8.90
11.03
13.43
15.80
17.87
19.41
20.19
20.04
18.90
16.92
14.33
11.38
8.30
5.28
2.50
0.13
-1.72
-3.11
-4.24
-5.41
-6.89
-8.73
-10.81
-12.87
-14.69
-16.20
-17.57
-19.18
-21.50
-24.88
-29.48
-35.00
-40.73
-45.56
-48.30
-47.95
-43.98
-36.56
-26.45
-14.82
-3.01
7.72
16.38
22.32
25.30
25.49
23.41
19.83
15.69
11.90
9.24
8.24
9.10
11.65
15.42
19.75
23.95
27.39
29.68
30.72
30.59
29.58
27.95
25.89
23.46
20.69
17.64
14.49
11.52
8.96
6.92
5.27
3.72
1.93
-0.28
-2.83
-5.44
-7.76
-9.56
-10.85
-11.90
-13.08
-14.71
-17.01
-20.04
-23.81
-28.29
-33.35
-38.60
-43.27
-46.25
-46.36
-42.75
-35.32
-24.74
-12.38
0.16
11.52
20.80
27.58
31.68
33.06
31.72
27.98
22.58
16.75
11.93
9.36
9.58
12.31
16.56
21.08
24.87
27.44
28.81
29.29
29.20
28.70
27.72
26.16
23.98
21.29
18.38
15.58
13.15
11.15
9.49
7.96
6.35
4.57
2.62
0.61
-1.32
-3.04
-4.53
-5.83
-7.08
-8.50
-10.37
-13.01
-16.74
-21.72
-27.80
-34.37
-40.42
-44.62
-45.75
-42.97
-36.23
-26.21
-14.15
-1.53
10.31
20.34
27.88
32.55
34.28
33.30
30.22
25.98
21.67
18.30
16.50
16.39
17.60
19.49
21.42
22.94
23.89
24.32
24.38
24.18
23.69
22.78
21.31
19.26
16.70
13.86
11.00
8.35
6.00
3.95
2.02
-0.02
-2.41
-5.29
-8.61
-12.21
-15.82
-19.19
-22.22
-24.97
-27.67
-30.65
-34.21
-38.54
-43.56
-48.80
-53.43
-56.34
-56.46
-53.05
-45.92
-35.61
-23.16
-9.86
3.01
14.39
23.48
29.77
32.96
33.09
30.59
26.32
21.45
17.21
14.60
14.08
15.49
18.18
21.35
24.30
26.66
28.41
29.67
30.56
31.02
30.84
29.72
27.52
24.28
20.30
16.04
12.01
8.55
5.80
3.64
1.76
-0.18
-2.46
-5.09
-7.94
-10.67
-13.00
-14.80
-16.26
-17.80
-19.94
-23.18
-27.72
-33.48
-39.96
-46.32
-51.50
-54.37
-53.97
-49.65
-41.39
-29.78
-16.01
-1.61
11.86
23.12
31.26
35.92
37.17
35.51
31.79
27.02
22.27
18.44
16.16
15.71
16.98
19.57
22.87
26.25
29.08
30.96
31.74
31.52
30.58
29.21
27.57
25.62
23.18
20.00
16.02
11.39
6.53
1.91
-2.09
-5.40
-8.26
-11.06
-14.07
-17.17
-19.92
-21.77
-22.34
-21.70
-20.42
-19.34
-19.18
-20.47
-23.29
-27.50
-32.71
-38.32
-43.54
-47.30
-48.48
-46.20
-40.16
-30.77
-19.14
-6.72
5.03
14.95
22.25
26.56
27.85
26.45
23.02
18.56
14.22
11.07
9.85
10.78
13.55
17.51
21.84
25.79
28.78
30.43
30.56
29.09
26.11
21.84
16.64
11.03
5.66
1.14
-2.08
-3.83
-4.25
-3.72
-2.69
-1.61
-0.85
-0.67
-1.33
-2.98
-5.77
-9.72
-14.81
-20.86
-27.60
-34.57
-41.06
-46.08
-48.46
-47.18
-41.73
-32.37
-20.15
-6.61
6.59
18.11
27.10
33.20
36.40
36.83
34.88
31.20
26.76
22.74
20.25
20.01
22.12
26.07
31.01
35.97
40.20
43.25
44.92
45.14
43.94
41.41
37.75
33.30
28.51
23.81
19.56
15.84
12.49
9.23
5.77
2.01
-1.94
-5.83
-9.41
-12.57
-15.34
-17.86
-20.30
-22.82
-25.64
-29.04
-33.30
-38.48
-44.25
-49.71
-53.57
-54.50
-51.53
-44.45
-33.88
-21.14
-7.82
4.58
15.03
22.99
28.38
31.47
32.71
32.75
32.30
32.21
33.20
35.73
39.87
45.16
50.84
56.01
59.92
62.13
62.55
61.30
58.65
54.90
50.34
45.27
39.92
34.44
28.92
23.35
17.75
12.23
7.01
2.32
-1.76
-5.37
-8.85
-12.61
-16.91
-21.76
-26.93
-32.13
-37.08
-41.64
-45.76
-49.44
-52.79
-56.01
-59.43
-63.41
-68.07
-73.07
-77.49
-80.01
-79.34
-74.67
-65.98
-54.20
-40.84
-27.60
-15.91
-6.66
-0.18
3.68
5.29
5.16
3.85
2.04
0.44
-0.25
0.46
2.69
6.21
10.44
14.70
18.43
21.33
23.38
24.69
25.38
25.43
24.74
23.18
20.80
17.89
14.90
12.29
10.34
8.99
7.96
6.90
5.56
3.93
2.19
0.57
-0.81
-1.95
-3.02
-4.18
-5.52
-7.04
-8.71
-10.46
-12.22
-13.95
-15.60
-17.15
-18.61
-20.16
-22.06
-24.66
-28.17
-32.53
-37.21
-41.27
-43.56
-43.11
-39.38
-32.47
-23.10
-12.39
-1.55
8.27
16.23
21.76
24.65
25.03
23.35
20.36
16.94
14.00
12.26
12.15
13.66
16.42
19.79
23.04
25.61
27.20
27.83
27.69
27.04
26.00
24.61
22.90
20.92
18.88
16.98
15.35
13.93
12.51
10.81
8.73
6.38
4.14
2.40
1.40
1.07
1.06
0.95
0.39
-0.70
-2.19
-3.87
-5.61
-7.40
-9.31
-11.36
-13.49
-15.57
-17.61
-19.85
-22.74
-26.60
-31.29
-36.03
-39.57
-40.64
-38.46
-33.01
-25.02
-15.61
-5.92
3.20
11.12
17.34
21.43
23.14
22.55
20.18
16.90
13.70
11.39
10.43
10.88
12.53
14.98
17.76
20.38
22.41
23.50
23.53
22.57
20.87
18.70
16.28
13.70
10.97
8.16
5.34
2.70
0.40
-1.50
-3.07
-4.44
-5.80
-7.18
-8.56
-9.83
-10.88
-11.74
-12.51
-13.40
-14.57
-16.24
-18.60
-21.80
-25.88
-30.61
-35.34
-39.18
-41.09
-40.28
-36.46
-29.91
-21.43
-12.08
-2.90
5.22
11.60
15.83
17.77
17.54
15.63
12.74
9.67
7.16
5.74
5.66
6.85
9.04
11.81
14.68
17.23
19.14
20.21
20.34
19.52
17.83
15.40
12.49
9.42
6.53
4.01
1.88
0.00
-1.84
-3.78
-5.88
-8.04
-10.12
-12.01
-13.65
-15.03
-16.30
-17.69
-19.52
-22.10
-25.57
-29.72
-34.01
-37.60
-39.60
-39.37
-36.64
-31.50
-24.40
-15.91
-6.69
2.52
10.92
17.70
22.18
23.98
23.26
20.64
17.14
13.83
11.59
10.86
11.59
13.42
15.81
18.25
20.38
22.01
23.11
23.71
23.83
23.45
22.52
20.99
18.88
16.31
13.49
10.59
7.70
4.75
1.65
-1.60
-4.88
-7.89
-10.37
-12.24
-13.66
-14.95
-16.48
-18.51
-21.21
-24.54
-28.40
-32.47
-36.22
-38.84
-39.45
-37.34
-32.24
-24.48
-14.96
-4.88
4.54
12.35
18.00
21.30
22.37
21.52
19.18
15.81
11.99
8.35
5.52
4.04
4.17
5.77
8.40
11.37
14.05
15.99
17.03
17.25
16.78
15.74
14.13
11.85
8.83
5.14
1.06
-3.00
-6.55
-9.24
-11.00
-12.06
-12.85
-13.75
-14.95
-16.33
-17.64
-18.67
-19.43
-20.15
-21.18
-22.88
-25.44
-28.87
-32.89
-36.98
-40.34
-42.07
-41.32
-37.57
-30.88
-21.88
-11.60
-1.22
8.21
15.91
21.36
24.29
24.71
22.91
19.47
15.25
11.14
7.94
6.16
5.94
7.09
9.17
11.73
14.39
16.90
19.07
20.79
21.87
22.10
21.32
19.54
16.95
13.87
10.69
7.73
5.21
3.20
1.66
0.45
-0.64
-1.80
-3.13
-4.60
-6.09
-7.43
-8.54
-9.51
-10.53
-11.83
-13.66
-16.20
-19.53
-23.54
-27.87
-31.80
-34.40
-34.70
-32.10
-26.51
-18.44
-8.81
1.24
10.65
18.59
24.41
27.77
28.58
27.10
23.89
19.71
15.40
11.67
9.07
7.92
8.33
10.15
13.02
16.34
19.46
21.83
23.14
23.37
22.67
21.24
19.23
16.71
13.80
10.69
7.68
4.98
2.66
0.53
-1.67
-4.14
-6.85
-9.48
-11.65
-13.04
-13.68
-13.86
-14.08
-14.83
-16.49
-19.25
-23.10
-27.73
-32.51
-36.52
-38.69
-38.07
-34.19
-27.20
-17.87
-7.31
3.25
12.80
20.60
26.19
29.33
29.98
28.42
25.21
21.16
17.21
14.15
12.53
12.47
13.80
16.06
18.65
21.00
22.64
23.29
22.86
21.41
19.13
16.22
12.87
9.24
5.46
1.66
-2.00
-5.33
-8.20
-10.59
-12.59
-14.40
-16.17
-17.99
-19.75
-21.30
-22.47
-23.27
-23.89
-24.74
-26.27
-28.90
-32.80
-37.87
-43.61
-49.13
-53.31
-55.03
-53.39
-48.04
-39.24
-27.85
-15.15
-2.51
8.78
17.75
23.81
26.75
26.76
24.38
20.49
16.12
12.29
9.81
9.11
10.23
12.84
16.40
20.30
23.99
26.97
28.92
29.66
29.19
27.62
25.10
21.80
17.91
13.65
9.34
5.39
2.15
-0.27
-2.00
-3.42
-4.95
-6.83
-9.04
-11.33
-13.43
-15.22
-16.78
-18.37
-20.37
-23.07
-26.72
-31.36
-36.79
-42.51
-47.62
-50.98
-51.47
-48.29
-41.30
-31.08
-18.81
-5.95
6.10
16.22
23.67
28.05
29.29
27.63
23.65
18.28
12.62
7.82
4.73
3.77
4.90
7.63
11.26
15.11
18.64
21.52
23.62
24.88
25.26
24.67
23.03
20.41
17.03
13.30
9.65
6.45
3.81
1.61
-0.41
-2.45
-4.65
-6.97
-9.32
-11.56
-13.57
-15.28
-16.71
-17.96
-19.29
-21.13
-23.94
-28.04
-33.37
-39.37
-45.01
-48.96
-49.94
-47.13
-40.35
-30.23
-17.95
-5.08
6.88
16.77
23.93
28.28
30.09
29.88
28.20
25.65
22.80
20.30
18.85
19.03
21.17
25.18
30.58
36.56
42.26
46.97
50.28
52.04
52.31
51.25
49.03
45.90
42.16
38.20
34.46
31.24
28.64
26.46
24.33
21.92
19.20
16.42
14.07
12.49
11.55
10.56
8.44
4.15
-2.81
-12.19
-23.08
-34.14
-43.99
-51.45
-55.58
-55.74
-51.67
-43.59
-32.36
-19.37
-6.34
5.09
13.74
19.01
20.89
19.81
16.44
11.63
6.30
1.41
-2.26
-4.15
-4.11
-2.33
0.68
4.32
7.96
11.10
13.41
14.71
15.00
14.39
13.03
11.05
8.51
5.46
2.00
-1.66
-5.21
-8.28
-10.69
-12.41
-13.65
-14.73
-15.89
-17.22
-18.65
-20.03
-21.33
-22.79
-24.81
-27.86
-32.23
-37.85
-44.21
-50.47
-55.53
-58.30
-57.84
-53.62
-45.63
-34.51
-21.50
-8.19
3.79
13.18
19.32
22.20
22.33
20.48
17.49
14.18
11.34
9.68
9.72
11.67
15.23
19.71
24.24
28.07
30.85
32.60
33.55
33.91
33.63
32.49
30.26
26.93
22.80
18.45
14.52
11.48
9.44
8.23
7.43
6.58
5.35
3.62
1.46
-0.96
-3.47
-6.01
-8.60
-11.33
-14.28
-17.51
-21.10
-25.10
-29.46
-33.93
-37.92
-40.51
-40.66
-37.53
-30.88
-21.16
-9.45
2.77
14.08
23.38
30.07
33.97
35.21
34.17
31.33
27.32
22.89
18.85
15.90
14.48
14.57
15.75
17.28
18.49
18.99
18.87
18.50
18.36
18.62
19.05
19.09
18.20
16.13
13.16
9.87
6.90
4.56
2.72
0.99
-1.05
-3.56
-6.37
-9.03
-11.10
-12.31
-12.73
-12.64
-12.46
-12.61
-13.41
-15.09
-17.75
-21.51
-26.34
-32.05
-38.07
-43.44
-46.89
-47.18
-43.51
-35.82
-24.90
-12.11
0.85
12.46
21.54
27.44
29.98
29.46
26.49
21.91
16.68
11.73
7.92
5.84
5.77
7.51
10.51
13.92
16.96
19.13
20.35
20.79
20.78
20.44
19.66
18.19
15.82
12.51
8.50
4.26
0.31
-2.88
-5.05
-6.28
-6.89
-7.36
-8.10
-9.29
-10.86
-12.55
-14.08
-15.32
-16.34
-17.35
-18.65
-20.53
-23.22
-26.74
-30.75
-34.50
-36.92
-36.83
-33.38
-26.36
-16.37
-4.58
7.53
18.60
27.57
33.85
37.15
37.54
35.33
31.17
25.97
20.83
16.80
14.64
14.61
16.41
19.31
22.45
25.01
26.55
26.94
26.38
25.09
23.29
21.11
18.58
15.75
12.69
9.52
6.38
3.42
0.79
-1.39
-3.06
-4.31
-5.37
-6.53
-8.02
-9.90
-12.09
-14.39
-16.71
-19.05
-21.59
-24.55
-28.06
-32.17
-36.72
-41.39
-45.58
-48.45
-49.06
-46.64
-40.82
-31.93
-20.87
-8.90
2.69
12.86
20.88
26.34
29.03
28.99
26.60
22.61
18.07
14.10
11.56
10.91
12.12
14.71
17.99
21.20
23.72
25.17
25.48
24.80
23.35
21.32
18.76
15.64
12.01
8.05
4.14
0.65
-2.17
-4.35
-6.17
-7.97
-10.00
-12.26
-14.58
-16.68
-18.37
-19.58
-20.39
-20.98
-21.59
-22.45
-23.81
-25.97
-29.19
-33.55
-38.81
-44.24
-48.68
-50.79
-49.51
-44.40
-35.83
-24.90
-13.04
-1.67
8.14
15.74
20.80
23.25
23.22
21.10
17.55
13.48
9.87
7.47
6.69
7.51
9.53
12.23
15.04
17.55
19.44
20.57
20.93
20.62
19.79
18.56
16.96
14.89
12.29
9.24
6.02
3.07
0.79
-0.67
-1.44
-1.90
-2.41
-3.14
-4.08
-5.08
-6.09
-7.13
-8.32
-9.77
-11.52
-13.58
-16.03
-19.03
-22.75
-27.23
-32.19
-37.04
-40.91
-42.86
-42.10
-38.15
-30.96
-20.98
-9.18
3.15
14.59
23.95
30.43
33.81
34.31
32.43
28.81
24.13
19.13
14.60
11.30
9.78
10.21
12.26
15.23
18.26
20.64
21.97
22.22
21.56
20.25
18.44
16.26
13.76
11.04
8.28
5.63
3.19
0.98
-1.09
-3.09
-5.08
-7.07
-9.01
-10.88
-12.67
-14.33
-15.86
-17.27
-18.65
-20.20
-22.18
-24.84
-28.23
-32.14
-35.96
-38.94
-40.21
-39.10
-35.21
-28.52
-19.38
-8.43
3.38
14.95
25.11
32.84
37.42
38.59
36.63
32.31
26.70
21.00
16.31
13.44
12.83
14.42
17.71
21.86
25.89
28.93
30.37
30.06
28.17
25.18
21.61
17.92
14.39
11.16
8.25
5.70
3.57
1.88
0.54
-0.63
-1.90
-3.48
-5.48
-7.82
-10.30
-12.75
-15.08
-17.34
-19.65
-22.18
-25.12
-28.66
-32.92
-37.84
-43.02
-47.61
-50.47
-50.36
-46.48
-38.74
-27.88
-15.28
-2.51
9.05
18.51
25.38
29.52
30.97
29.93
26.94
22.86
18.76
15.74
14.54
15.41
18.07
21.85
25.92
29.50
32.01
33.16
32.98
31.70
29.69
27.22
24.37
21.02
17.04
12.49
7.69
3.25
-0.30
-2.68
-4.03
-4.77
-5.35
-6.01
-6.67
-7.18
-7.41
-7.58
-8.09
-9.42
-11.84
-15.31
-19.59
-24.42
-29.63
-35.17
-40.80
-45.99
-49.81
-51.23
-49.44
-44.14
-35.73
-25.17
-13.73
-2.65
7.02
14.52
19.38
21.39
20.59
17.38
12.53
7.12
2.33
-0.81
-1.72
-0.38
2.72
6.82
11.08
14.84
17.64
19.26
19.64
18.85
17.16
14.89
12.39
9.92
7.58
5.36
3.19
1.03
-1.10
-3.08
-4.85
-6.37
-7.64
-8.74
-9.73
-10.70
-11.77
-13.08
-14.71
-16.65
-18.76
-20.82
-22.69
-24.51
-26.58
-29.25
-32.59
-36.12
-38.82
-39.42
-36.86
-30.77
-21.57
-10.41
1.27
12.09
21.01
27.34
30.72
31.03
28.45
23.58
17.40
11.21
6.30
3.60
3.48
5.72
9.62
14.37
19.22
23.60
27.12
29.49
30.45
29.86
27.68
24.11
19.65
14.97
10.85
7.86
6.26
5.78
5.85
5.74
4.92
3.20
0.81
-1.86
-4.39
-6.61
-8.63
-10.72
-13.19
-16.29
-20.08
-24.50
-29.30
-34.09
-38.33
-41.30
-42.27
-40.59
-35.91
-28.34
-18.46
-7.23
4.19
14.65
23.23
29.29
32.53
32.95
30.89
26.97
22.09
17.29
13.47
11.29
10.95
12.23
14.63
17.55
20.45
22.93
24.70
25.53
25.30
23.96
21.68
18.73
15.51
12.31
9.29
6.46
3.74
1.10
-1.43
-3.76
-5.82
-7.68
-9.45
-11.33
-13.42
-15.70
-18.07
-20.36
-22.50
-24.58
-26.82
-29.58
-33.25
-38.00
-43.73
-49.81
-55.23
-58.75
-59.25
-56.06
-49.15
-39.11
-26.93
-13.79
-0.85
10.83
20.28
26.74
29.71
29.25
25.98
21.09
16.02
12.10
10.18
10.48
12.68
16.09
19.94
23.58
26.54
28.55
29.52
29.47
28.47
26.58
23.92
20.59
16.75
12.56
8.26
4.12
0.48
-2.40
-4.31
-5.16
-5.09
-4.40
-3.50
-2.82
-2.66
-3.12
-4.20
-5.77
-7.72
-10.01
-12.63
-15.57
-18.81
-22.35
-26.21
-30.44
-34.92
-39.36
-43.13
-45.30
-44.87
-41.07
-33.67
-23.16
-10.71
2.13
13.82
23.14
29.43
32.55
32.82
30.84
27.35
23.15
19.04
15.70
13.66
13.18
14.18
16.25
18.76
20.96
22.25
22.32
21.24
19.42
17.38
15.49
13.89
12.43
10.91
9.25
7.60
6.28
5.54
5.36
5.35
4.96
3.73
1.53
-1.30
-4.17
-6.53
-8.09
-8.98
-9.64
-10.64
-12.46
-15.40
-19.59
-24.94
-31.08
-37.27
-42.43
-45.31
-44.82
-40.41
-32.21
-21.11
-8.40
4.43
16.01
25.27
31.51
34.50
34.42
31.89
27.81
23.21
18.97
15.75
13.90
13.48
14.34
16.18
18.56
20.98
22.96
24.14
24.35
23.63
22.15
20.16
17.85
15.28
12.48
9.41
6.12
2.72
-0.59
-3.60
-6.11
-8.04
-9.44
-10.49
-11.42
-12.47
-13.74
-15.23
-16.81
-18.36
-19.82
-21.31
-23.09
-25.47
-28.78
-33.13
-38.32
-43.72
-48.34
-50.99
-50.63
-46.63
-39.04
-28.54
-16.28
-3.61
8.26
18.33
25.92
30.64
32.39
31.40
28.21
23.74
19.13
15.47
13.64
14.01
16.40
20.19
24.48
28.41
31.35
32.96
33.21
32.25
30.29
27.53
24.07
20.05
15.65
11.20
7.17
3.95
1.83
0.73
0.33
0.10
-0.39
-1.37
-2.81
-4.52
-6.25
-7.90
-9.51
-11.22
-13.25
-15.80
-19.00
-22.88
-27.41
-32.46
-37.79
-42.95
-47.26
-49.90
-49.93
-46.71
-40.03
-30.29
-18.50
-5.97
5.99
16.31
24.31
29.65
32.26
32.25
29.92
25.82
20.75
15.71
11.69
9.50
9.58
11.89
15.94
20.92
25.98
30.36
33.56
35.34
35.73
34.88
33.07
30.74
28.47
26.99
26.92
28.53
31.41
34.50
36.41
35.90
32.45
26.42
18.91
11.21
4.29
-1.44
-6.18
-10.33
-14.26
-18.06
-21.76
-25.41
-29.29
-33.64
-38.41
-43.04
-46.49
-47.51
-45.19
-39.34
-30.52
-19.91
-8.85
1.46
10.16
16.69
20.72
22.11
20.89
17.45
12.51
7.07
2.17
-1.34
-2.98
-2.69
-0.76
2.27
5.83
9.33
12.36
14.64
16.00
16.39
15.80
14.26
11.89
8.93
5.74
2.81
0.52
-0.98
-1.89
-2.71
-3.99
-6.03
-8.79
-11.85
-14.70
-16.98
-18.71
-20.21
-22.00
-24.53
-28.06
-32.54
-37.70
-42.98
-47.66
-50.88
-51.82
-49.85
-44.77
-36.82
-26.71
-15.42
-4.00
6.58
15.53
22.25
26.34
27.64
26.33
22.97
18.51
14.07
10.75
9.25
9.80
12.12
15.60
19.53
23.31
26.56
29.04
30.54
30.84
29.73
27.15
23.30
18.70
14.01
9.85
6.59
4.19
2.37
0.71
-1.11
-3.17
-5.35
-7.41
-9.14
-10.52
-11.71
-12.96
-14.58
-16.80
-19.79
-23.62
-28.23
-33.30
-38.20
-42.00
-43.61
-42.11
-37.18
-29.20
-19.21
-8.57
1.52
10.21
17.08
21.91
24.52
24.77
22.73
18.89
14.17
9.76
6.66
5.46
6.13
8.20
10.99
13.89
16.47
18.46
19.69
20.09
19.66
18.46
16.66
14.44
11.99
9.45
7.01
4.83
3.03
1.67
0.57
-0.54
-1.95
-3.84
-6.15
-8.61
-10.88
-12.75
-14.22
-15.52
-16.97
-18.90
-21.55
-25.02
-29.24
-33.93
-38.49
-42.05
-43.59
-42.30
-37.76
-30.18
-20.32
-9.30
1.67
11.51
19.36
24.65
27.11
26.86
24.43
20.72
16.78
13.58
11.76
11.51
12.57
14.48
16.78
19.15
21.45
23.63
25.52
26.89
27.45
27.05
25.75
23.83
21.61
19.33
17.03
14.60
11.89
8.91
5.81
2.82
0.12
-2.31
-4.60
-6.91
-9.32
-11.77
-14.20
-16.63
-19.32
-22.65
-26.93
-32.06
-37.46
-42.06
-44.62
-44.19
-40.31
-33.23
-23.72
-12.90
-2.00
7.86
15.76
21.14
23.81
23.97
22.19
19.19
15.77
12.65
10.46
9.65
10.39
12.50
15.40
18.33
20.61
21.84
22.05
21.54
20.56
19.21
17.34
14.75
11.45
7.74
4.11
1.06
-1.15
-2.61
-3.67
-4.75
-6.14
-7.91
-9.92
-11.99
-14.01
-16.00
-18.10
-20.53
-23.44
-26.98
-31.16
-35.89
-40.83
-45.39
-48.75
-50.01
-48.47
-43.88
-36.49
-27.00
-16.39
-5.68
4.18
12.42
18.43
21.86
22.68
21.33
18.61
15.52
13.04
11.84
12.16
13.88
16.61
19.83
22.99
25.57
27.17
27.50
26.54
24.52
21.88
19.10
16.59
14.45
12.57
10.71
8.67
6.46
4.25
2.31
0.82
-0.28
-1.25
-2.42
-4.08
-6.25
-8.69
-11.06
-13.08
-14.72
-16.24
-18.05
-20.63
-24.20
-28.60
-33.30
-37.39
-39.87
-39.86
-36.89
-31.00
-22.76
-13.04
-2.90
6.61
14.57
20.30
23.43
23.93
22.21
19.06
15.50
12.49
10.71
10.43
11.54
13.64
16.28
19.00
21.39
23.14
24.01
23.87
22.77
20.92
18.63
16.17
13.68
11.15
8.53
5.84
3.23
0.99
-0.70
-1.78
-2.47
-3.10
-4.00
-5.33
-7.03
-8.96
-11.01
-13.20
-15.60
-18.26
-21.17
-24.23
-27.41
-30.71
-34.16
-37.59
-40.49
-42.04
-41.31
-37.61
-30.83
-21.56
-11.03
-0.65
8.30
14.98
19.06
20.65
20.21
18.33
15.69
13.00
10.91
9.89
10.22
11.85
14.48
17.63
20.75
23.38
25.21
26.11
26.08
25.23
23.64
21.36
18.43
14.95
11.10
7.18
3.51
0.34
-2.31
-4.65
-6.95
-9.43
-12.06
-14.57
-16.50
-17.53
-17.68
-17.34
-17.17
-17.78
-19.51
-22.35
-25.97
-29.86
-33.41
-35.99
-36.91
-35.58
-31.62
-25.10
-16.61
-7.14
2.20
10.48
17.10
21.86
24.75
25.88
25.37
23.50
20.74
17.79
15.38
14.11
14.28
15.78
18.23
21.09
23.81
26.01
27.45
28.04
27.76
26.65
24.78
22.27
19.35
16.30
13.45
11.01
9.10
7.66
6.49
5.35
4.06
2.56
0.92
-0.73
-2.30
-3.75
-5.13
-6.58
-8.23
-10.16
-12.45
-15.16
-18.36
-22.17
-26.60
-31.38
-35.92
-39.29
-40.44
-38.57
-33.46
-25.58
-16.00
-6.07
2.99
10.31
15.44
18.28
18.93
17.66
14.96
11.54
8.28
6.08
5.56
6.91
9.79
13.51
17.27
20.42
22.60
23.77
24.11
23.83
23.10
22.01
20.55
18.73
16.62
14.36
12.13
10.05
8.15
6.34
4.53
2.64
0.71
-1.20
-3.01
-4.71
-6.32
-7.89
-9.49
-11.15
-12.96
-15.01
-17.44
-20.36
-23.80
-27.69
-31.77
-35.61
-38.63
-40.14
-39.50
-36.28
-30.45
-22.55
-13.49
-4.46
3.48
9.62
13.64
15.57
15.64
14.19
11.63
8.48
5.35
2.91
1.66
1.91
3.60
6.37
9.65
12.85
15.45
17.16
17.86
17.60
16.52
14.76
12.44
9.69
6.70
3.71
0.96
-1.36
-3.19
-4.64
-5.86
-6.98
-8.08
-9.14
-10.19
-11.34
-12.74
-14.53
-16.75
-19.28
-21.96
-24.69
-27.54
-30.63
-33.99
-37.26
-39.72
-40.38
-38.35
-33.25
-25.44
-15.88
-5.90
3.20
10.54
15.63
18.39
18.96
17.57
14.64
10.73
6.65
3.28
1.38
1.31
2.99
5.87
9.18
12.24
14.63
16.23
17.16
17.52
17.33
16.52
15.02
12.83
10.16
7.31
4.59
2.23
0.33
-1.14
-2.31
-3.35
-4.44
-5.77
-7.40
-9.29
-11.28
-13.18
-14.90
-16.45
-18.00
-19.86
-22.29
-25.39
-28.92
-32.30
-34.63
-34.99
-32.68
-27.44
-19.66
-10.25
-0.45
8.46
15.45
19.90
21.65
20.96
18.42
14.82
11.03
7.82
5.80
5.26
6.22
8.38
11.29
14.42
17.32
19.73
21.55
22.80
23.51
23.63
23.02
21.62
19.53
17.03
14.51
12.31
10.53
9.08
7.70
6.19
4.50
2.68
0.85
-0.96
-2.86
-5.04
-7.65
-10.70
-14.09
-17.71
-21.54
-25.70
-30.25
-34.97
-39.27
-42.19
-42.66
-39.89
-33.75
-24.83
-14.35
-3.77
5.60
12.87
17.72
20.22
20.66
19.44
16.93
13.55
9.89
6.67
4.64
4.29
5.73
8.58
12.14
15.67
18.62
20.73
21.96
22.30
21.69
20.06
17.39
13.88
9.92
5.95
2.38
-0.57
-2.90
-4.74
-6.30
-7.81
-9.44
-11.31
-13.43
-15.67
-17.83
-19.75
-21.48
-23.30
-25.72
-29.21
-33.88
-39.33
-44.63
-48.57
-50.07
-48.50
-43.81
-36.46
-27.20
-16.91
-6.51
3.08
10.98
16.46
19.11
18.97
16.63
13.06
9.34
6.43
4.96
5.18
7.07
10.34
14.56
19.17
23.52
27.03
29.23
29.92
29.19
27.35
24.84
22.03
19.16
16.30
13.47
10.69
8.00
5.50
3.25
1.24
-0.63
-2.45
-4.29
-6.10
-7.83
-9.44
-11.02
-12.79
-15.06
-18.09
-21.94
-26.43
-31.04
-35.04
-37.62
-37.99
-35.60
-30.34
-22.47
-12.75
-2.18
8.06
16.93
23.65
27.79
29.28
28.36
25.54
21.48
16.97
12.86
9.92
8.68
9.36
11.74
15.26
19.14
22.60
25.05
26.18
25.94
24.42
21.83
18.41
14.51
10.50
6.79
3.63
1.12
-0.89
-2.61
-4.27
-5.93
-7.54
-9.00
-10.23
-11.25
-12.14
-13.12
-14.46
-16.49
-19.54
-23.69
-28.59
-33.45
-37.14
-38.52
-36.83
-31.88
-24.15
-14.59
-4.29
5.68
14.40
21.15
25.43
27.00
26.02
23.08
19.14
15.30
12.56
11.51
12.22
14.31
17.17
20.17
22.82
24.80
25.93
26.08
25.19
23.34
20.72
17.67
14.54
11.58
8.83
6.18
3.41
0.38
-2.97
-6.54
-10.11
-13.43
-16.25
-18.39
-19.84
-20.78
-21.61
-22.88
-25.09
-28.43
-32.63
-36.84
-39.87
-40.47
-37.78
-31.59
-22.44
-11.44
-0.01
10.57
19.30
25.62
29.34
30.56
29.64
27.15
23.85
20.55
18.01
16.77
17.03
18.64
21.19
24.12
26.92
29.21
30.77
31.47
31.23
29.95
27.55
24.04
19.63
14.66
9.61
4.92
0.85
-2.51
-5.26
-7.60
-9.68
-11.61
-13.42
-15.09
-16.62
-18.09
-19.62
-21.43
-23.68
-26.48
-29.73
-33.07
-35.92
-37.54
-37.22
-34.43
-29.05
-21.36
-12.05
-2.06
7.57
15.90
22.25
26.23
27.82
27.31
25.26
22.40
19.49
17.18
15.96
16.04
17.34
19.54
22.17
24.68
26.61
27.60
27.49
26.28
24.17
21.47
18.52
15.68
13.18
11.11
9.44
8.04
6.79
5.61
4.46
3.31
2.13
0.86
-0.55
-2.13
-3.81
-5.53
-7.21
-8.94
-10.96
-13.56
-16.86
-20.62
-24.20
-26.62
-26.92
-24.49
-19.29
-11.92
-3.40
5.07
12.39
17.70
20.54
20.84
18.89
15.30
10.92
6.65
3.26
1.24
0.74
1.58
3.38
5.63
7.90
9.83
11.17
11.77
11.58
10.65
9.13
7.27
5.35
3.55
2.02
0.74
-0.36
-1.43
-2.58
-3.92
-5.44
-7.09
-8.73
-10.22
-11.49
-12.58
-13.63
-14.87
-16.52
-18.77
-21.64
-25.00
-28.40
-31.10
-32.18
-30.85
-26.68
-19.90
-11.37
-2.31
6.10
13.03
18.11
21.30
22.73
22.52
20.79
17.85
14.28
10.86
8.37
7.31
7.69
9.11
10.93
12.62
13.91
14.81
15.41
15.69
15.41
14.33
12.28
9.43
6.26
3.33
1.09
-0.41
-1.52
-2.72
-4.47
-6.88
-9.77
-12.76
-15.48
-17.78
-19.73
-21.54
-23.37
-25.33
-27.40
-29.61
-32.07
-34.93
-38.14
-41.38
-43.91
-44.85
-43.47
-39.51
-33.33
-25.73
-17.71
-10.15
-3.63
1.50
4.99
6.71
6.65
5.04
2.37
-0.66
-3.30
-4.91
-5.13
-3.93
-1.58
1.44
4.63
7.50
9.73
11.17
11.83
11.81
11.25
10.28
9.01
7.54
5.99
4.53
3.40
2.80
2.87
3.53
4.52
5.42
5.79
5.38
4.21
2.51
0.64
-1.13
-2.68
-4.03
-5.32
-6.67
-8.24
-10.20
-12.75
-16.05
-19.98
-24.05
-27.37
-28.86
-27.59
-23.17
-15.88
-6.65
3.24
12.55
20.33
26.11
29.76
31.37
31.19
29.57
27.02
24.26
22.06
21.07
21.60
23.49
26.18
28.94
31.14
32.43
32.78
32.34
31.29
29.72
27.62
24.90
21.50
17.47
13.05
8.61
4.57
1.29
-1.05
-2.56
-3.55
-4.42
-5.53
-7.00
-8.71
-10.33
-11.54
-12.19
-12.42
-12.70
-13.62
-15.71
-19.21
-23.95
-29.34
-34.55
-38.67
-40.96
-40.93
-38.43
-33.62
-26.88
-18.84
-10.24
-1.98
5.05
10.04
12.53
12.50
10.44
7.27
4.07
1.76
0.89
1.53
3.32
5.72
8.16
10.24
11.75
12.70
13.21
13.46
13.58
13.56
13.22
12.35
10.72
8.32
5.40
2.39
-0.19
-2.00
-2.96
-3.24
-3.18
-3.15
-3.42
-4.12
-5.26
-6.79
-8.64
-10.77
-13.15
-15.78
-18.63
-21.70
-24.94
-28.29
-31.60
-34.55
-36.63
-37.17
-35.56
-31.51
-25.22
-17.45
-9.25
-1.65
4.58
8.99
11.38
11.60
9.53
5.28
-0.69
-7.47
-13.86
-18.78
-21.65
-22.54
-22.10
-21.29
-20.92
-21.54
-23.31
-26.15
-29.89
-34.37
-39.48
-45.11
-51.12
-57.37
-63.65
-69.74
-75.29
-79.92
-83.26
-84.94
-84.65
-82.07
-76.95
-69.04
-58.25
-44.66
-28.68
-11.08
7.12
24.71
40.56
53.71
63.50
69.60
72.07
71.28
67.99
63.25
58.27
54.28
52.22
52.56
55.14
59.28
63.99
68.23
71.22
72.43
71.65
68.83
64.16
58.03
51.14
44.41
38.79
34.97
33.12
32.90
33.66
34.74
35.69
36.32
36.59
36.42
35.69
34.25
32.11
29.44
26.50
23.56
20.73
18.05
15.48
13.06
10.84
8.87
7.14
5.46
3.65
1.59
-0.69
-2.98
-4.99
-6.50
-7.45
-7.95
-8.34
-8.98
-10.24
-12.27
-14.93
-17.79
-20.19
-21.47
-21.12
-18.94
-15.04
-9.79
-3.66
2.81
9.12
14.75
19.13
21.77
22.33
20.79
17.55
13.34
9.08
5.58
3.38
2.61
3.06
4.31
5.90
7.51
8.94
10.10
10.89
11.23
11.06
10.34
9.17
7.68
6.05
4.43
2.90
1.52
0.24
-1.06
-2.54
-4.37
-6.63
-9.24
-11.92
-14.32
-16.14
-17.28
-17.82
-18.05
-18.29
-18.77
-19.68
-21.05
-22.76
-24.49
-25.78
-26.03
-24.71
-21.53
-16.55
-10.21
-3.21
3.71
9.82
14.61
17.77
19.21
19.05
17.65
15.49
13.12
11.02
9.49
8.63
8.33
8.37
8.44
8.24
7.53
6.25
4.50
2.55
0.71
-0.83
-2.15
-3.50
-5.22
-7.46
-10.05
-12.56
-14.55
-15.75
-16.31
-16.64
-17.24
-18.39
-20.09
-22.10
-24.22
-26.39
-28.79
-31.54
-34.47
-36.99
-38.19
-37.22
-33.60
-27.49
-19.54
-10.65
-1.68
6.75
14.23
20.44
25.02
27.63
28.06
26.39
23.11
18.91
14.61
10.92
8.34
7.10
7.23
8.53
10.60
12.94
14.96
16.26
16.65
16.18
15.08
13.56
11.75
9.67
7.27
4.57
1.61
-1.49
-4.61
-7.66
-10.54
-13.18
-15.52
-17.61
-19.57
-21.68
-24.19
-27.21
-30.59
-33.84
-36.23
-36.96
-35.39
-31.22
-24.62
-16.22
-6.99
2.01
9.85
15.95
20.08
22.34
22.99
22.24
20.29
17.38
13.89
10.43
7.67
6.17
6.12
7.35
9.32
11.46
13.33
14.77
15.74
16.22
16.12
15.25
13.45
10.72
7.19
3.16
-1.08
-5.34
-9.51
-13.51
-17.27
-20.61
-23.42
-25.67
-27.59
-29.56
-32.05
-35.27
-39.00
-42.51
-44.77
-44.73
-41.76
-35.81
-27.44
-17.56
-7.15
2.94
12.08
19.82
25.74
29.49
30.86
29.86
26.93
22.82
18.44
14.65
12.06
10.93
11.14
12.31
13.93
15.51
16.68
17.23
17.14
16.41
15.03
12.94
10.04
6.29
1.83
-2.99
-7.63
-11.58
-14.47
-16.27
-17.22
-17.80
-18.53
-19.82
-21.93
-25.02
-29.21
-34.54
-40.89
-47.76
-54.19
-58.93
-60.76
-58.89
-53.26
-44.55
-33.90
-22.53
-11.51
-1.53
6.88
13.31
17.40
18.96
18.19
15.76
12.68
10.00
8.48
8.38
9.50
11.44
13.82
16.51
19.64
23.36
27.65
32.17
36.26
39.21
40.45
39.79
37.40
33.68
29.08
23.96
18.54
12.94
7.25
1.63
-3.72
-8.65
-13.02
-16.83
-20.18
-23.32
-26.57
-30.35
-35.06
-40.90
-47.72
-54.87
-61.23
-65.43
-66.15
-62.62
-54.81
-43.59
-30.41
-16.87
-4.36
6.21
14.32
19.73
22.39
22.41
20.28
16.90
13.44
11.03
10.41
11.68
14.38
17.79
21.22
24.27
26.86
29.06
30.89
32.23
32.77
32.25
30.60
28.05
25.10
22.32
20.14
18.70
17.83
17.10
16.04
14.26
11.58
8.08
4.08
-0.03
-3.91
-7.37
-10.53
-13.72
-17.39
-21.93
-27.48
-33.77
-40.10
-45.39
-48.35
-47.86
-43.20
-34.40
-22.27
-8.23
6.09
19.16
29.90
37.69
42.30
43.78
42.46
38.91
34.00
28.84
24.54
21.99
21.60
23.20
26.16
29.65
32.86
35.21
36.46
36.55
35.57
33.65
30.93
27.50
23.54
19.25
14.93
10.88
7.28
4.17
1.41
-1.25
-4.05
-7.07
-10.28
-13.50
-16.58
-19.43
-22.11
-24.76
-27.62
-30.99
-35.16
-40.41
-46.76
-53.82
-60.67
-65.94
-68.09
-65.84
-58.61
-46.77
-31.55
-14.83
1.45
15.66
26.73
34.24
38.23
39.04
37.26
33.65
29.17
24.93
21.91
20.85
21.99
25.00
29.09
33.32
36.80
39.00
39.82
39.44
38.25
36.53
34.41
31.86
28.87
25.49
21.91
18.37
15.03
11.95
9.02
6.15
3.25
0.33
-2.61
-5.60
-8.72
-12.02
-15.48
-18.97
-22.33
-25.46
-28.38
-31.36
-34.80
-39.09
-44.52
-50.98
-57.87
-64.07
-68.10
-68.55
-64.42
-55.53
-42.60
-27.07
-10.76
4.60
17.61
27.41
33.64
36.39
36.13
33.68
30.06
26.40
23.71
22.72
23.68
26.46
30.56
35.26
39.81
43.51
45.89
46.70
46.01
44.14
41.53
38.68
36.04
33.86
32.28
31.24
30.50
29.69
28.39
26.24
23.08
19.00
14.37
9.65
5.20
1.13
-2.67
-6.49
-10.47
-14.58
-18.52
-21.93
-24.57
-26.54
-28.31
-30.66
-34.33
-39.87
-47.31
-56.11
-65.16
-72.93
-77.81
-78.41
-73.99
-64.70
-51.62
-36.52
-21.53
-8.54
1.12
6.94
9.14
8.44
5.79
2.08
-1.80
-5.03
-6.80
-6.44
-3.58
1.60
8.34
15.48
21.85
26.64
29.65
31.25
32.00
32.40
32.60
32.47
31.77
30.42
28.60
26.73
25.21
24.25
23.78
23.48
23.05
22.35
21.48
20.65
20.00
19.45
18.73
17.53
15.67
13.25
10.46
7.44
4.10
0.15
-4.80
-11.01
-18.51
-27.03
-36.03
-44.65
-51.79
-56.19
-56.71
-52.69
-44.26
-32.38
-18.61
-4.71
7.81
17.93
25.16
29.38
30.74
29.58
26.37
21.81
16.77
12.13
8.70
7.03
7.32
9.41
12.82
16.86
20.84
24.18
26.56
27.88
28.18
27.53
25.98
23.58
20.44
16.79
13.03
9.56
6.64
4.22
1.98
-0.55
-3.69
-7.41
-11.30
-14.73
-17.20
-18.58
-19.20
-19.72
-20.94
-23.50
-27.62
-33.06
-39.05
-44.46
-48.07
-48.79
-45.98
-39.60
-30.19
-18.76
-6.59
5.07
15.18
23.02
28.24
30.77
30.84
28.82
25.32
21.12
17.18
14.43
13.53
14.58
17.13
20.26
23.02
24.74
25.23
24.72
23.52
21.87
19.80
17.17
13.93
10.15
6.12
2.24
-1.13
-3.85
-6.04
-8.04
-10.27
-13.00
-16.17
-19.43
-22.28
-24.38
-25.72
-26.74
-28.15
-30.67
-34.74
-40.24
-46.53
-52.44
-56.58
-57.66
-54.78
-47.76
-37.16
-24.19
-10.35
2.89
14.38
23.35
29.44
32.57
32.90
30.88
27.19
22.75
18.55
15.43
13.89
13.98
15.38
17.55
19.90
22.02
23.63
24.63
24.99
24.68
23.68
22.02
19.78
17.15
14.41
11.84
9.62
7.76
6.08
4.28
2.07
-0.65
-3.81
-7.09
-10.18
-12.89
-15.19
-17.22
-19.21
-21.41
-24.08
-27.45
-31.67
-36.64
-41.83
-46.25
-48.65
-47.80
-42.99
-34.32
-22.66
-9.39
4.08
16.59
27.43
36.17
42.48
46.10
46.90
45.12
41.45
37.03
33.04
30.39
29.48
30.10
31.67
33.55
35.21
36.33
36.78
36.50
35.48
33.79
31.49
28.70
25.53
22.06
18.32
14.32
10.17
6.08
2.31
-0.87
-3.39
-5.30
-6.88
-8.44
-10.21
-12.24
-14.52
-16.93
-19.48
-22.25
-25.38
-28.96
-32.96
-37.32
-41.99
-46.90
-51.83
-56.29
-59.39
-60.00
-57.10
-50.15
-39.47
-26.17
-11.93
1.52
12.76
21.03
26.12
28.31
28.12
26.18
23.21
19.93
17.11
15.38
15.14
16.42
18.83
21.76
24.57
26.83
28.37
29.26
29.60
29.42
28.59
26.94
24.36
20.92
16.93
12.80
8.96
5.73
3.27
1.53
0.30
-0.74
-1.97
-3.68
-6.01
-8.92
-12.17
-15.43
-18.40
-20.91
-22.96
-24.71
-26.38
-28.24
-30.59
-33.69
-37.59
-42.09
-46.50
-49.81
-50.88
-48.81
-43.29
-34.81
-24.45
-13.54
-3.33
5.37
12.14
16.89
19.63
20.44
19.53
17.33
14.55
12.08
10.76
11.12
13.22
16.58
20.45
24.07
26.95
28.91
30.09
30.73
30.97
30.74
29.83
28.05
25.41
22.16
18.71
15.50
12.75
10.45
8.40
6.36
4.20
1.92
-0.42
-2.69
-4.85
-6.88
-8.76
-10.47
-11.98
-13.30
-14.60
-16.16
-18.32
-21.39
-25.47
-30.35
-35.43
-39.81
-42.49
-42.61
-39.77
-34.06
-26.13
-16.95
-7.60
0.96
8.01
13.07
15.94
16.62
15.36
12.62
9.06
5.46
2.57
0.92
0.77
2.01
4.27
7.01
9.68
11.87
13.37
14.05
13.95
13.10
11.54
9.36
6.70
3.77
0.88
-1.72
-3.86
-5.55
-7.02
-8.50
-10.16
-11.99
-13.82
-15.44
-16.71
-17.67
-18.43
-19.14
-19.95
-20.97
-22.45
-24.66
-27.76
-31.58
-35.40
-38.10
-38.43
-35.49
-29.12
-20.03
-9.56
0.72
9.45
15.81
19.55
20.86
20.19
18.10
15.15
11.96
9.16
7.30
6.75
7.55
9.39
11.75
14.05
15.88
17.08
17.69
17.82
17.57
16.94
15.83
14.21
12.06
9.51
6.72
3.90
1.24
-1.11
-3.07
-4.67
-6.01
-7.28
-8.64
-10.16
-11.79
-13.41
-14.93
-16.41
-18.08
-20.31
-23.38
-27.29
-31.59
-35.45
-37.85
-37.92
-35.22
-29.80
-22.16
-13.10
-3.50
5.77
13.91
20.19
24.14
25.57
24.69
22.07
18.52
14.89
11.89
10.02
9.53
10.43
12.52
15.37
18.48
21.35
23.56
24.90
25.34
24.97
23.93
22.38
20.50
18.46
16.38
14.37
12.40
10.36
8.08
5.43
2.46
-0.67
-3.68
-6.32
-8.50
-10.31
-11.99
-13.77
-15.88
-18.43
-21.50
-25.19
-29.57
-34.56
-39.76
-44.43
-47.50
-47.94
-45.09
-38.89
-29.96
-19.37
-8.39
1.89
10.63
17.30
21.64
23.57
23.27
21.21
18.17
15.10
12.97
12.46
13.80
16.70
20.43
24.11
26.93
28.41
28.43
27.23
25.22
22.79
20.21
17.55
14.75
11.66
8.21
4.43
0.52
-3.18
-6.34
-8.73
-10.30
-11.25
-11.89
-12.54
-13.37
-14.40
-15.54
-16.70
-17.89
-19.21
-20.85
-22.86
-25.28
-28.05
-31.07
-34.14
-36.85
-38.61
-38.63
-36.23
-31.10
-23.47
-14.10
-4.02
5.69
14.19
20.83
25.21
27.05
26.32
23.37
18.96
14.24
10.38
8.29
8.35
10.31
13.54
17.24
20.78
23.78
26.10
27.71
28.49
28.26
26.83
24.18
20.51
16.31
12.12
8.41
5.33
2.77
0.47
-1.75
-3.94
-5.99
-7.79
-9.32
-10.73
-12.19
-13.83
-15.61
-17.36
-18.95
-20.47
-22.21
-24.61
-28.00
-32.31
-36.96
-40.91
-42.93
-41.99
-37.62
-30.10
-20.27
-9.31
1.62
11.60
19.99
26.33
30.24
31.44
29.87
25.91
20.43
14.73
10.13
7.67
7.77
10.25
14.47
19.60
24.87
29.63
33.38
35.73
36.41
35.38
32.85
29.22
24.97
20.47
16.01
11.76
7.88
4.55
1.85
-0.28
-2.13
-4.09
-6.43
-9.13
-11.92
-14.39
-16.31
-17.75
-19.17
-21.10
-24.04
-28.18
-33.38
-39.10
-44.57
-48.83
-50.87
-49.85
-45.34
-37.45
-26.92
-14.98
-3.07
7.50
15.78
21.31
24.02
24.17
22.26
18.86
14.72
10.66
7.47
5.78
5.90
7.75
10.82
14.41
17.76
20.29
21.69
21.92
21.12
19.51
17.28
14.56
11.45
8.09
4.66
1.37
-1.59
-4.14
-6.31
-8.23
-10.03
-11.86
-13.81
-15.92
-18.18
-20.52
-22.86
-25.10
-27.27
-29.50
-32.09
-35.37
-39.52
-44.33
-49.15
-52.91
-54.38
-52.56
-46.99
-37.94
-26.33
-13.46
-0.73
10.67
19.89
26.43
30.07
30.87
29.16
25.55
20.92
16.31
12.71
10.82
10.97
12.97
16.32
20.31
24.26
27.64
30.07
31.32
31.33
30.13
27.87
24.78
21.20
17.41
13.64
10.04
6.66
3.52
0.66
-1.88
-4.03
-5.79
-7.26
-8.60
-9.98
-11.57
-13.38
-15.35
-17.40
-19.54
-21.93
-24.82
-28.38
-32.46
-36.48
-39.54
-40.64
-39.00
-34.32
-26.79
-17.05
-5.95
5.53
16.40
25.72
32.62
36.51
37.17
34.86
30.35
24.72
19.18
14.87
12.58
12.64
14.90
18.76
23.39
27.91
31.65
34.16
35.27
34.98
33.39
30.69
27.09
22.90
18.46
14.08
9.98
6.28
2.98
0.03
-2.59
-4.93
-6.98
-8.79
-10.39
-11.83
-13.15
-14.35
-15.50
-16.74
-18.36
-20.66
-23.91
-28.07
-32.77
-37.21
-40.38
-41.22
-38.93
-33.23
-24.45
-13.46
-1.58
9.76
19.28
26.02
29.50
29.68
26.91
21.94
15.78
9.56
4.46
1.37
0.76
2.57
6.21
10.82
15.44
19.30
21.95
23.25
23.27
22.17
20.17
17.46
14.34
11.07
7.91
5.00
2.35
-0.17
-2.73
-5.43
-8.28
-11.12
-13.80
-16.13
-18.08
-19.76
-21.45
-23.56
-26.43
-30.29
-34.98
-39.92
-44.13
-46.49
-46.05
-42.30
-35.36
-25.92
-15.05
-3.97
6.24
14.67
20.71
24.00
24.51
22.60
19.01
14.72
10.78
8.06
7.04
7.80
10.06
13.28
16.83
20.07
22.55
23.92
24.03
22.84
20.46
17.04
12.81
8.09
3.21
-1.49
-5.80
-9.65
-13.07
-16.15
-18.93
-21.32
-23.20
-24.52
-25.40
-26.20
-27.42
-29.53
-32.72
-36.77
-41.03
-44.52
-46.21
-45.23
-41.14
-33.99
-24.38
-13.30
-1.94
8.51
17.11
23.23
26.60
27.33
25.77
22.52
18.43
14.46
11.57
10.50
11.56
14.53
18.70
23.09
26.71
28.89
29.36
28.25
25.93
22.83
19.31
15.64
12.03
8.63
5.54
2.87
0.66
-1.14
-2.63
-3.96
-5.27
-6.69
-8.32
-10.32
-12.86
-16.14
-20.15
-24.68
-29.10
-32.49
-33.84
-32.33
-27.60
-19.90
-10.03
0.89
11.63
21.13
28.59
33.57
35.91
35.73
33.38
29.41
24.53
19.62
15.60
13.24
13.01
14.95
18.57
23.08
27.50
31.01
33.08
33.51
32.37
29.94
26.58
22.70
18.69
14.84
11.34
8.18
5.28
2.55
-0.04
-2.41
-4.48
-6.22
-7.77
-9.39
-11.41
-14.15
-17.73
-22.10
-26.84
-31.23
-34.27
-35.00
-32.67
-27.13
-18.89
-9.00
1.23
10.50
17.82
22.63
24.75
24.36
21.91
18.07
13.65
9.46
6.24
4.52
4.52
6.13
8.94
12.30
15.57
18.21
19.92
20.57
20.20
18.86
16.67
13.78
10.44
6.96
3.60
0.51
-2.32
-5.03
-7.73
-10.43
-12.98
-15.23
-17.10
-18.61
-19.96
-21.38
-23.12
-25.40
-28.32
-31.82
-35.56
-38.91
-40.92
-40.68
-37.54
-31.38
-22.70
-12.50
-1.99
7.71
15.72
21.55
25.02
26.18
25.30
22.81
19.25
15.36
11.87
9.49
8.63
9.36
11.41
14.17
16.98
19.21
20.50
20.73
19.98
18.43
16.27
13.65
10.71
7.60
4.47
1.49
-1.27
-3.77
-6.09
-8.29
-10.49
-12.72
-14.94
-17.02
-18.77
-20.11
-21.05
-21.83
-22.84
-24.52
-27.12
-30.58
-34.39
-37.70
-39.53
-39.02
-35.71
-29.63
-21.24
-11.40
-1.10
8.67
17.07
23.48
27.51
29.03
28.14
25.22
20.94
16.14
11.78
8.68
7.36
7.89
9.95
12.96
16.30
19.40
21.87
23.41
23.78
22.89
20.77
17.67
14.01
10.26
6.76
3.68
0.97
-1.53
-3.94
-6.28
-8.47
-10.41
-12.02
-13.33
-14.47
-15.58
-16.86
-18.48
-20.64
-23.45
-26.88
-30.64
-34.12
-36.50
-36.87
-34.53
-29.22
-21.22
-11.32
-0.66
9.57
18.34
24.94
28.99
30.40
29.34
26.21
21.67
16.52
11.69
7.97
5.97
5.89
7.61
10.70
14.57
18.55
22.02
24.48
