1549656658.00
64.000000
-0.00
-0.00
-0.00
-0.00
-0.00
-0.00
-0.00
-0.00
-0.00
-0.00
0.00
0.01
0.01
-0.00
-0.03
-0.05
-0.05
0.00
0.13
0.36
0.66
1.01
1.37
1.72
2.06
2.40
2.79
3.24
3.80
4.42
5.06
5.66
6.20
6.68
7.15
7.68
8.31
9.14
10.09
11.04
11.88
12.56
13.14
13.76
14.65
15.96
17.91
20.32
22.90
25.38
27.58
29.57
31.68
34.32
37.81
42.54
48.15
54.10
59.83
64.97
69.58
74.14
79.34
85.71
93.76
103.00
112.62
121.73
129.77
136.75
143.30
150.75
157.77
166.64
177.95
191.79
206.97
220.57
228.25
225.36
208.53
176.87
132.76
80.05
23.07
-34.94
-92.44
-149.16
-205.23
-260.37
-313.74
-363.87
-409.83
-450.91
-486.50
-515.74
-537.23
-549.22
-549.96
-538.37
-514.21
-478.67
-433.88
-382.45
-327.02
-269.84
-212.63
-156.66
-102.95
-52.37
-5.90
35.58
71.43
101.35
125.50
144.38
158.69
169.15
176.37
180.75
182.57
182.07
179.51
175.23
169.65
163.18
156.14
148.80
141.30
133.70
126.04
118.36
110.71
103.14
95.73
88.53
81.61
74.98
68.67
62.67
56.98
51.59
46.48
41.66
37.14
32.95
29.08
25.54
22.32
19.36
16.62
14.07
11.70
9.54
7.65
6.06
4.79
3.79
2.95
2.13
1.25
0.28
-0.70
-1.54
-2.11
-2.35
-2.37
-2.35
-2.55
-3.14
-4.10
-5.24
-6.26
-6.87
-6.96
-6.68
-6.39
-6.50
-7.29
-8.75
-10.53
-12.12
-13.12
-13.34
-13.00
-12.54
-12.46
-13.10
-14.60
-16.96
-19.95
-23.10
-25.46
-25.80
-22.98
-16.56
-7.25
3.23
12.71
19.59
23.37
24.72
24.81
24.51
23.98
22.75
20.31
16.67
12.56
9.13
7.48
8.12
10.86
14.96
19.38
23.16
25.60
26.36
25.55
23.56
21.03
18.57
16.69
15.59
15.18
15.21
15.50
16.05
17.01
18.55
20.54
22.50
23.79
23.86
22.56
20.22
17.40
14.61
12.06
9.40
6.21
2.20
-2.50
-7.43
-11.89
-15.30
-17.39
-18.25
-18.37
-18.36
-18.73
-19.62
-20.77
-21.64
-21.71
-20.82
-19.18
-17.38
-15.99
-15.32
-15.30
-15.59
-15.80
-15.66
-15.05
-13.89
-12.04
-9.32
-5.69
-1.39
2.95
6.50
8.58
8.90
7.77
5.90
4.14
3.07
2.89
3.41
4.23
5.03
5.67
6.26
6.95
7.80
8.74
9.58
10.16
10.33
10.10
9.51
8.66
7.61
6.38
5.03
3.64
2.28
0.97
-0.32
-1.69
-3.22
-4.59
-5.60
-6.08
-6.00
-5.48
-4.78
-4.27
-4.32
-5.22
-7.00
-9.50
-12.29
-14.82
-16.62
-17.52
-17.73
-17.76
-18.28
-19.79
-22.55
-26.32
-30.39
-33.71
-35.12
-33.61
-28.75
-20.84
-10.93
-0.56
8.66
15.57
19.72
21.35
21.18
20.05
18.71
17.66
17.19
17.44
18.40
19.95
21.82
23.69
25.20
26.09
26.29
25.90
25.11
24.12
23.01
21.75
20.26
18.50
16.51
14.42
12.37
10.41
8.50
6.61
4.80
3.20
1.96
1.08
0.35
-0.66
-2.38
-5.00
-8.31
-11.82
-14.92
-17.16
-18.51
-19.31
-20.17
-21.69
-24.31
-28.16
-33.04
-38.35
-43.21
-46.50
-47.16
-44.48
-38.37
-29.53
-19.24
-9.04
-0.19
6.59
11.19
14.03
15.61
16.45
16.85
17.03
17.16
17.41
17.93
18.74
19.73
20.66
21.29
21.47
21.26
20.86
20.54
20.40
20.35
20.01
18.95
16.94
14.03
10.63
7.32
4.59
2.60
1.18
-0.07
-1.59
-3.57
-5.99
-8.60
-11.11
-13.37
-15.40
-17.43
-19.69
-22.44
-25.87
-30.05
-34.94
-40.17
-45.04
-48.47
-49.30
-46.63
-40.25
-30.83
-19.77
-8.82
0.49
7.27
11.36
13.25
13.74
13.63
13.53
13.75
14.39
15.35
16.49
17.66
18.72
19.56
20.10
20.31
20.21
19.84
19.25
18.47
17.49
16.25
14.71
12.85
10.68
8.29
5.83
3.55
1.65
0.29
-0.58
-1.23
-2.05
-3.35
-5.20
-7.32
-9.20
-10.41
-10.79
-10.60
-10.44
-11.05
-13.04
-16.61
-21.39
-26.45
-30.43
-31.91
-29.90
-24.25
-15.71
-5.75
3.99
12.23
18.42
22.68
25.55
27.64
29.29
30.64
31.63
32.31
32.79
33.28
33.95
34.89
36.00
37.14
38.19
39.13
40.06
41.05
42.09
43.00
43.52
43.44
42.67
41.27
39.37
37.15
34.74
32.27
29.84
27.44
24.92
21.87
17.82
12.41
5.57
-2.31
-10.65
-18.89
-26.80
-34.53
-42.41
-50.58
-58.72
-65.96
-71.16
-73.30
-71.95
-67.47
-60.94
-53.75
-47.18
-41.97
-38.22
-35.53
-33.32
-31.17
-28.93
-26.74
-24.78
-23.13
-21.62
-19.92
-17.69
-14.72
-11.04
-6.94
-2.94
0.33
2.32
2.68
1.46
-0.93
-3.81
-6.52
-8.66
-10.18
-11.36
-12.48
-13.65
-14.73
-15.41
-15.49
-15.06
-14.50
-14.32
-14.99
-16.72
-19.58
-23.47
-28.15
-33.21
-37.85
-40.89
-41.07
-37.50
-30.17
-20.04
-8.79
1.82
10.50
16.81
21.02
23.86
26.04
28.09
30.22
32.43
34.58
36.53
38.17
39.50
40.62
41.65
42.75
43.92
45.01
45.83
46.12
45.73
44.52
42.41
39.37
35.44
30.82
25.86
20.98
16.55
12.74
9.51
6.64
3.88
0.99
-2.15
-5.57
-9.28
-13.32
-17.84
-22.98
-28.80
-35.13
-41.43
-46.72
-49.90
-49.95
-46.44
-39.74
-30.95
-21.63
-13.24
-6.72
-2.26
0.56
2.47
4.18
6.06
8.23
10.61
13.12
15.70
18.30
20.80
22.94
24.42
25.01
24.67
23.59
22.07
20.45
18.96
17.68
16.59
15.56
14.38
12.82
10.66
7.90
4.71
1.51
-1.32
-3.58
-5.43
-7.33
-9.84
-13.38
-18.06
-23.70
-29.83
-35.75
-40.57
-43.28
-43.02
-39.32
-32.43
-23.34
-13.53
-4.43
3.07
8.77
13.05
16.42
19.18
21.29
22.59
23.00
22.76
22.31
22.13
22.50
23.31
24.26
24.94
25.06
24.52
23.43
21.95
20.21
18.19
15.72
12.65
8.92
4.64
0.14
-4.21
-8.11
-11.51
-14.52
-17.34
-20.12
-22.93
-25.80
-28.90
-32.49
-36.85
-41.97
-47.25
-51.58
-53.58
-52.19
-47.14
-39.12
-29.58
-20.18
-12.25
-6.31
-2.18
0.89
3.70
6.85
10.46
14.29
17.89
20.84
22.98
24.42
25.43
26.25
26.95
27.38
27.36
26.92
26.29
25.82
25.71
25.81
25.64
24.60
22.36
19.04
15.16
11.42
8.36
6.18
4.69
3.49
2.08
0.15
-2.47
-5.72
-9.33
-13.00
-16.46
-19.64
-22.77
-26.27
-30.65
-36.20
-42.71
-49.32
-54.70
-57.38
-56.22
-50.95
-42.24
-31.55
-20.65
-11.03
-3.46
2.03
5.98
9.16
12.15
15.18
18.20
21.00
23.41
25.44
27.18
28.78
30.29
31.61
32.53
32.89
32.62
31.78
30.55
29.11
27.54
25.74
23.61
21.06
18.14
15.03
11.92
8.93
6.00
3.02
-0.18
-3.57
-7.00
-10.16
-12.83
-14.97
-16.86
-19.01
-21.99
-26.25
-31.83
-38.30
-44.69
-49.69
-51.92
-50.39
-44.87
-35.97
-25.15
-14.16
-4.56
2.72
7.60
10.62
12.64
14.37
16.21
18.12
19.89
21.29
22.32
23.17
24.09
25.24
26.48
27.53
28.06
27.93
27.25
26.28
25.28
24.32
23.28
21.91
20.08
17.77
15.15
12.41
9.69
6.95
4.07
0.92
-2.54
-6.18
-9.79
-13.14
-16.07
-18.58
-20.85
-23.21
-26.11
-29.98
-35.02
-41.00
-47.11
-51.99
-54.17
-52.50
-46.70
-37.50
-26.48
-15.49
-6.02
1.23
6.34
9.91
12.69
15.15
17.46
19.66
21.74
23.79
25.86
27.92
29.73
31.04
31.66
31.68
31.36
31.03
30.77
30.41
29.58
28.00
25.65
22.80
19.83
17.04
14.40
11.72
8.80
5.67
2.57
-0.13
-2.23
-3.81
-5.28
-7.14
-9.68
-12.80
-16.05
-18.85
-20.81
-21.91
-22.53
-23.28
-24.75
-27.35
-31.26
-36.36
-42.19
-47.90
-52.33
-54.22
-52.61
-47.25
-38.74
-28.50
-18.24
-9.47
-3.01
1.16
3.72
5.64
7.74
10.41
13.52
16.69
19.50
21.76
23.59
25.25
26.93
28.56
29.86
30.54
30.49
29.93
29.31
29.05
29.26
29.71
29.92
29.42
28.01
25.82
23.24
20.68
18.45
16.58
14.96
13.37
11.58
9.46
6.94
4.06
0.94
-2.27
-5.37
-8.16
-10.58
-12.69
-14.76
-17.19
-20.45
-24.87
-30.46
-36.80
-42.89
-47.46
-49.14
-47.05
-41.03
-31.89
-21.08
-10.30
-0.92
6.35
11.49
14.98
17.37
19.10
20.35
21.22
21.88
22.58
23.60
25.06
26.83
28.56
29.90
30.62
30.81
30.69
30.53
30.40
30.18
29.67
28.69
27.23
25.46
23.62
21.89
20.37
19.09
18.01
17.10
16.30
15.52
14.62
13.49
12.13
10.56
8.89
7.17
5.42
3.61
1.65
-0.49
-2.80
-5.16
-7.39
-9.28
-10.70
-11.71
-12.59
-13.77
-15.67
-18.48
-22.07
-26.03
-29.81
-33.03
-35.63
-37.91
-40.48
-43.97
-48.71
-54.47
-60.31
-64.74
-66.14
-63.27
-55.87
-44.75
-31.63
-18.56
-7.29
1.23
7.00
10.68
13.19
15.34
17.54
19.87
22.22
24.46
26.53
28.42
30.19
31.76
33.02
33.87
34.29
34.40
34.44
34.59
34.91
35.23
35.19
34.49
32.94
30.64
27.92
25.22
22.92
21.20
19.98
18.99
17.94
16.59
14.96
13.20
11.59
10.35
9.49
8.86
8.16
7.13
5.64
3.73
1.56
-0.72
-2.97
-5.14
-7.20
-9.18
-11.18
-13.36
-15.82
-18.60
-21.55
-24.41
-26.91
-28.94
-30.63
-32.31
-34.44
-37.38
-41.37
-46.32
-51.72
-56.62
-59.75
-59.82
-55.98
-48.22
-37.44
-25.23
-13.35
-3.23
4.37
9.39
12.26
13.64
14.18
14.44
14.84
15.60
16.76
18.15
19.52
20.69
21.56
22.23
22.83
23.47
24.19
24.94
25.61
26.16
26.51
26.61
26.30
25.41
23.78
21.42
18.54
15.61
13.16
11.58
10.90
10.81
10.71
10.07
8.60
6.40
3.88
1.53
-0.32
-1.69
-2.84
-4.15
-5.92
-8.29
-11.16
-14.34
-17.65
-20.95
-24.14
-27.12
-29.85
-32.40
-35.02
-38.06
-41.80
-46.19
-50.57
-53.72
-54.21
-50.94
-43.65
-33.17
-21.22
-9.78
-0.42
6.14
10.14
12.33
13.60
14.51
15.20
15.60
15.73
15.76
16.06
16.94
18.45
20.32
22.10
23.37
23.99
24.10
24.02
24.00
24.09
24.13
23.84
23.02
21.61
19.72
17.58
15.46
13.62
12.22
11.27
10.62
10.01
9.09
7.61
5.49
2.85
-0.00
-2.75
-5.13
-7.08
-8.69
-10.20
-11.93
-14.05
-16.60
-19.38
-22.12
-24.60
-26.83
-29.02
-31.47
-34.44
-38.05
-42.27
-46.91
-51.51
-55.34
-57.38
-56.55
-52.11
-44.08
-33.34
-21.49
-10.31
-1.09
5.65
10.18
13.19
15.36
17.04
18.32
19.14
19.52
19.72
20.08
20.94
22.42
24.35
26.34
27.98
28.97
29.21
28.84
28.15
27.41
26.81
26.39
26.01
25.44
24.51
23.18
21.60
20.06
18.81
17.94
17.32
16.68
15.82
14.67
13.38
12.18
11.22
10.46
9.67
8.58
6.96
4.78
2.16
-0.66
-3.42
-5.91
-8.02
-9.80
-11.43
-13.18
-15.28
-17.86
-20.83
-23.92
-26.82
-29.35
-31.50
-33.49
-35.65
-38.32
-41.76
-46.03
-50.83
-55.46
-58.79
-59.54
-56.65
-49.78
-39.55
-27.41
-15.23
-4.67
3.30
8.56
11.64
13.29
14.15
14.61
14.85
15.03
15.33
16.01
17.19
18.85
20.74
22.50
23.77
24.39
24.40
24.03
23.60
23.35
23.29
23.27
22.98
22.14
20.65
18.61
16.32
14.11
12.18
10.47
8.80
6.94
4.82
2.60
0.50
-1.27
-2.77
-4.26
-6.10
-8.56
-11.68
-15.30
-19.08
-22.67
-25.82
-28.36
-30.23
-31.48
-32.32
-33.10
-34.32
-36.38
-39.42
-43.03
-46.27
-47.91
-46.83
-42.50
-35.16
-25.80
-15.81
-6.53
1.13
6.86
10.80
13.37
14.94
15.80
16.05
15.75
15.09
14.40
14.14
14.72
16.38
18.98
22.10
25.16
27.69
29.39
30.25
30.38
29.84
28.61
26.63
23.96
20.84
17.81
15.46
14.27
14.30
15.12
15.95
15.99
14.70
12.08
8.61
5.02
1.91
-0.40
-2.08
-3.56
-5.32
-7.66
-10.57
-13.76
-16.83
-19.45
-21.52
-23.25
-25.10
-27.64
-31.35
-36.34
-42.14
-47.71
-51.64
-52.56
-49.58
-42.66
-32.68
-21.13
-9.65
0.43
8.37
14.06
17.81
20.12
21.52
22.52
23.52
24.81
26.55
28.69
31.02
33.30
35.33
37.06
38.55
39.89
41.19
42.46
43.68
44.79
45.74
46.47
46.92
47.02
46.71
46.02
45.04
44.03
43.28
43.10
43.71
45.21
47.53
50.44
53.61
56.59
58.87
60.06
59.96
58.63
56.40
53.66
50.72
47.64
44.14
39.79
34.19
27.15
18.93
10.19
1.90
-4.86
-9.21
-10.70
-9.44
-6.15
-2.06
1.39
2.89
1.72
-2.08
-7.79
-14.30
-20.44
-25.27
-28.25
-29.15
-28.08
-25.45
-22.09
-19.17
-17.93
-19.25
-23.20
-28.98
-35.12
-40.17
-43.24
-44.29
-43.95
-43.11
-42.50
-42.41
-42.81
-43.45
-44.16
-44.90
-45.75
-46.83
-48.33
-50.45
-53.58
-58.12
-64.43
-72.58
-82.21
-92.43
-102.08
-109.96
-115.27
-117.83
-118.07
-116.88
-115.28
-114.00
-113.27
-112.62
-110.83
-106.11
-96.46
-80.31
-57.10
-27.74
5.52
39.71
71.92
100.10
123.27
141.36
154.63
163.28
167.28
166.57
161.39
152.38
140.58
127.04
112.68
98.02
83.23
68.32
53.26
38.05
22.70
7.32
-7.87
-22.40
-35.69
-47.21
-56.67
-64.04
-69.41
-72.80
-73.98
-72.56
-68.34
-61.64
-53.52
-45.48
-39.02
-35.05
-33.71
-34.48
-36.67
-39.75
-43.62
-48.35
-53.99
-60.43
-67.42
-74.58
-81.51
-87.65
-92.21
-94.17
-92.60
-87.03
-77.86
-66.28
-53.95
-42.42
-32.66
-24.91
-18.88
-14.05
-9.96
-6.23
-2.50
1.63
6.52
12.34
18.98
26.08
33.13
39.70
45.52
50.49
54.60
57.83
60.11
61.33
61.42
60.42
58.51
55.90
52.84
49.53
46.12
42.73
39.38
36.03
32.56
28.85
24.86
20.72
16.66
12.86
9.27
5.55
1.15
-4.38
-11.09
-18.36
-24.97
-29.42
-30.40
-27.29
-20.29
-10.43
0.80
11.84
21.44
28.91
34.11
37.33
39.05
39.75
39.86
39.76
39.79
40.26
41.39
43.13
45.17
47.04
48.26
48.54
47.91
46.69
45.30
44.10
43.19
42.35
41.17
39.18
36.05
31.77
26.60
21.03
15.58
10.62
6.27
2.45
-1.07
-4.51
-8.04
-11.73
-15.51
-19.25
-22.76
-25.84
-28.40
-30.56
-32.71
-35.45
-39.39
-44.82
-51.43
-58.15
-63.37
-65.38
-63.05
-56.18
-45.72
-33.43
-21.20
-10.56
-2.26
3.70
7.81
10.74
13.08
15.19
17.26
19.32
21.35
23.29
25.04
26.52
27.60
28.19
28.22
27.69
26.69
25.39
24.02
22.78
21.72
20.71
19.54
17.99
16.07
13.98
12.04
10.53
9.50
8.81
8.21
7.53
6.76
6.02
5.44
4.96
4.44
3.61
2.30
0.50
-1.61
-3.83
-6.00
-8.18
-10.58
-13.57
-17.49
-22.56
-28.73
-35.59
-42.31
-47.73
-50.56
-49.80
-44.98
-36.49
-25.54
-13.86
-3.18
5.29
11.08
14.53
16.39
17.43
18.17
18.80
19.34
19.78
20.19
20.68
21.35
22.17
23.02
23.72
24.16
24.31
24.20
23.89
23.40
22.71
21.70
20.33
18.55
16.48
14.22
11.89
9.52
6.99
4.13
0.79
-3.07
-7.30
-11.59
-15.59
-18.91
-21.30
-22.74
-23.51
-24.21
-25.65
-28.62
-33.49
-39.93
-46.84
-52.61
-55.62
-54.77
-49.81
-41.38
-30.71
-19.23
-8.22
1.41
9.13
14.79
18.54
20.74
21.94
22.67
23.37
24.22
25.20
26.14
26.93
27.57
28.18
28.96
30.00
31.27
32.63
33.86
34.75
35.10
34.72
33.43
31.13
27.87
23.94
19.80
15.91
12.65
10.14
8.21
6.49
4.57
2.19
-0.73
-4.06
-7.56
-10.97
-14.15
-17.06
-19.83
-22.68
-25.92
-29.87
-34.70
-40.21
-45.63
-49.73
-51.04
-48.46
-41.65
-31.32
-19.04
-6.69
4.12
12.39
17.89
20.95
22.16
22.20
21.65
20.99
20.63
20.78
21.52
22.75
24.24
25.73
26.94
27.67
27.71
26.92
25.26
22.89
20.07
17.19
14.56
12.26
10.15
7.92
5.28
2.11
-1.43
-5.04
-8.38
-11.31
-13.90
-16.38
-19.02
-22.01
-25.43
-29.34
-33.76
-38.66
-43.76
-48.55
-52.10
-53.36
-51.45
-46.08
-37.79
-27.91
-18.18
-10.14
-4.67
-1.72
-0.59
-0.30
-0.08
0.41
1.23
2.43
4.24
7.14
11.54
17.50
24.53
31.66
37.73
41.76
43.18
41.93
38.37
33.14
26.99
20.71
15.03
10.48
7.37
5.73
5.30
5.66
6.29
6.75
6.71
5.95
4.32
1.70
-2.02
-6.92
-13.00
-20.16
-28.22
-36.82
-45.33
-52.71
-57.55
-58.38
-54.20
-44.97
-31.91
-17.15
-3.10
8.34
16.29
20.84
22.69
22.62
21.26
19.09
16.57
14.31
13.00
13.17
14.96
18.13
22.13
26.33
30.17
33.24
35.23
35.98
35.40
33.59
30.78
27.31
23.58
19.90
16.51
13.52
11.03
9.11
7.76
6.90
6.33
5.71
4.69
2.93
0.19
-3.73
-8.91
-15.29
-22.52
-29.85
-36.08
-39.81
-39.84
-35.58
-27.37
-16.41
-4.35
7.21
17.19
25.14
31.08
35.21
37.66
38.54
38.10
36.90
35.77
35.59
36.84
39.29
42.06
43.90
43.70
40.94
35.85
29.25
22.14
15.29
9.06
3.38
-2.04
-7.47
-13.06
-18.81
-24.61
-30.34
-35.82
-40.94
-45.61
-49.88
-53.90
-57.84
-61.72
-65.26
-67.87
-68.78
-67.26
-62.88
-55.70
-46.32
-35.74
-25.21
-15.93
-8.80
-4.22
-1.99
-1.47
-1.80
-2.26
-2.39
-2.00
-1.03
0.62
3.09
6.37
10.21
13.97
16.82
18.10
17.59
15.64
12.92
10.08
7.42
4.81
1.90
-1.49
-5.19
-8.71
-11.53
-13.33
-14.23
-14.73
-15.43
-16.89
-19.49
-23.34
-28.36
-34.07
-39.60
-43.72
-45.11
-42.86
-36.80
-27.75
-17.27
-7.05
1.57
8.09
12.72
16.08
18.74
20.95
22.56
23.34
23.27
22.66
22.05
21.90
22.39
23.29
24.13
24.49
24.29
23.78
23.35
23.23
23.22
22.78
21.22
18.12
13.53
8.02
2.40
-2.59
-6.53
-9.47
-11.76
-13.98
-16.69
-20.24
-24.68
-29.60
-34.13
-37.11
-37.51
-34.74
-29.03
-21.29
-12.80
-4.70
2.35
8.18
12.95
16.84
19.90
22.07
23.35
23.88
23.87
23.55
23.04
22.35
21.42
20.28
19.03
17.85
16.90
16.20
15.63
14.90
13.70
11.80
9.14
5.81
2.07
-1.81
-5.63
-9.30
-12.90
-16.61
-20.66
-25.19
-30.18
-35.30
-39.80
-42.65
-42.74
-39.36
-32.48
-22.93
-12.12
-1.63
7.30
14.05
18.57
21.28
22.68
23.27
23.43
23.45
23.59
24.03
24.85
25.98
27.23
28.29
28.91
28.91
28.25
27.05
25.51
23.78
21.92
19.83
17.26
14.04
10.12
5.73
1.28
-2.77
-6.05
-8.47
-10.27
-11.99
-14.31
-17.83
-22.83
-29.05
-35.65
-41.29
-44.53
-44.22
-39.97
-32.26
-22.30
-11.74
-2.12
5.43
10.46
13.14
14.03
13.84
13.13
12.27
11.49
10.99
10.95
11.52
12.68
14.22
15.72
16.74
16.97
16.41
15.32
14.06
12.86
11.75
10.52
8.91
6.76
4.08
1.08
-1.91
-4.60
-6.85
-8.72
-10.49
-12.55
-15.30
-19.05
-23.87
-29.53
-35.31
-40.10
-42.53
-41.46
-36.41
-27.91
-17.36
-6.65
2.56
9.37
13.83
16.68
18.73
20.49
21.91
22.63
22.39
21.35
20.07
19.27
19.43
20.51
22.08
23.48
24.23
24.26
23.78
23.11
22.39
21.46
19.96
17.51
13.94
9.38
4.24
-0.99
-5.82
-9.92
-13.12
-15.47
-17.25
-18.93
-21.12
-24.40
-29.17
-35.33
-42.17
-48.40
-52.49
-53.16
-49.81
-42.80
-33.30
-22.86
-12.92
-4.41
2.35
7.49
11.36
14.32
16.60
18.39
19.89
21.32
22.83
24.49
26.16
27.65
28.79
29.55
30.08
30.58
31.22
31.93
32.47
32.46
31.58
29.68
26.86
23.47
19.94
16.68
13.95
11.78
10.03
8.37
6.52
4.26
1.56
-1.51
-4.75
-8.01
-11.21
-14.34
-17.60
-21.28
-25.75
-31.25
-37.72
-44.59
-50.72
-54.70
-55.13
-51.22
-43.02
-31.62
-18.77
-6.49
3.63
10.79
15.12
17.43
18.77
20.00
21.51
23.26
24.97
26.42
27.56
28.52
29.49
30.45
31.21
31.44
30.92
29.74
28.23
26.87
25.95
25.49
25.10
24.28
22.63
20.07
16.90
13.67
10.96
9.13
8.14
7.50
6.52
4.53
1.23
-3.14
-7.92
-12.27
-15.62
-17.86
-19.40
-20.93
-23.11
-26.39
-30.84
-36.19
-41.85
-46.87
-50.09
-50.40
-47.08
-40.18
-30.59
-19.83
-9.52
-0.93
5.36
9.48
12.02
13.65
14.92
16.12
17.38
18.68
20.03
21.44
22.88
24.32
25.65
26.70
27.32
27.44
27.05
26.32
25.40
24.45
23.46
22.34
20.94
19.16
17.09
14.89
12.77
10.83
8.96
6.88
4.27
0.98
-2.86
-6.85
-10.54
-13.60
-15.99
-17.97
-19.89
-22.00
-24.31
-26.67
-28.87
-30.81
-32.68
-34.83
-37.69
-41.61
-46.76
-52.93
-59.53
-65.50
-69.46
-70.04
-66.35
-58.34
-46.94
-33.79
-20.72
-9.21
-0.05
6.73
11.56
15.08
17.85
20.26
22.49
24.61
26.64
28.59
30.49
32.41
34.38
36.36
38.13
39.36
39.83
39.42
38.29
36.76
35.14
33.57
32.08
30.58
28.96
27.28
25.67
24.34
23.49
23.20
23.38
23.75
23.96
23.57
22.33
20.20
17.36
14.15
10.82
7.53
4.22
0.79
-2.84
-6.58
-10.22
-13.58
-16.60
-19.43
-22.35
-25.72
-29.77
-34.65
-40.28
-46.43
-52.63
-58.07
-61.65
-62.20
-58.89
-51.51
-40.73
-27.99
-15.10
-3.72
5.07
10.93
14.22
15.62
15.89
15.68
15.37
15.22
15.43
16.12
17.35
19.07
21.01
22.81
24.02
24.35
23.75
22.48
20.92
19.39
17.96
16.42
14.40
11.63
8.12
4.25
0.57
-2.43
-4.56
-5.93
-6.88
-7.70
-8.43
-8.97
-9.11
-8.84
-8.43
-8.42
-9.49
-12.19
-16.77
-22.96
-29.87
-36.14
-40.20
-40.69
-37.00
-29.46
-19.29
-8.22
2.10
10.49
16.49
20.15
21.83
21.95
20.86
18.91
16.50
14.10
12.17
11.08
10.96
11.78
13.33
15.29
17.25
18.74
19.35
18.77
16.94
14.01
10.31
6.18
1.88
-2.45
-6.78
-11.04
-15.09
-18.75
-21.86
-24.38
-26.43
-28.24
-30.05
-32.08
-34.49
-37.44
-41.14
-45.74
-51.16
-56.91
-62.01
-65.10
-64.85
-60.44
-51.94
-40.33
-27.30
-14.62
-3.73
4.63
10.42
14.05
16.07
16.97
17.14
16.86
16.46
16.26
16.52
17.32
18.50
19.70
20.59
20.99
20.92
20.63
20.35
20.14
19.87
19.20
17.85
15.71
12.91
9.83
6.82
4.05
1.40
-1.57
-5.37
-10.33
-16.42
-23.16
-29.82
-35.70
-40.45
-44.23
-47.60
-51.29
-55.87
-61.58
-68.16
-74.89
-80.72
-84.35
-84.57
-80.57
-72.21
-60.18
-45.84
-30.95
-17.09
-5.41
3.66
10.22
14.75
17.92
20.35
22.57
24.99
27.80
31.01
34.44
37.81
40.85
43.35
45.24
46.54
47.26
47.42
46.98
45.91
44.18
41.79
38.76
35.17
31.14
26.87
22.60
18.48
14.57
10.70
6.58
1.97
-3.25
-8.89
-14.62
-20.09
-25.07
-29.63
-34.00
-38.56
-43.61
-49.27
-55.32
-61.15
-65.76
-67.95
-66.62
-61.14
-51.71
-39.35
-25.73
-12.66
-1.59
6.72
12.28
15.64
17.63
18.96
20.16
21.48
23.02
24.85
27.10
29.94
33.46
37.57
41.88
45.81
48.75
50.27
50.27
48.99
46.80
44.03
40.83
37.19
33.16
28.94
24.95
21.70
19.47
18.16
17.26
16.05
13.84
10.19
4.87
-2.17
-10.85
-20.83
-31.30
-40.81
-47.37
-49.06
-44.66
-34.19
-19.04
-1.51
15.98
31.55
44.21
53.74
60.36
64.30
65.74
64.88
62.17
58.39
54.54
51.51
49.78
49.17
48.94
48.08
45.62
41.04
34.35
26.05
16.92
7.74
-0.94
-8.82
-15.77
-21.75
-26.71
-30.61
-33.47
-35.45
-36.83
-37.91
-38.91
-39.85
-40.69
-41.50
-42.62
-44.69
-48.48
-54.53
-62.72
-72.13
-81.05
-87.50
-89.69
-86.60
-78.27
-65.72
-50.69
-35.04
-20.36
-7.64
2.75
10.96
17.30
22.11
25.60
27.99
29.58
30.76
31.97
33.51
35.50
37.74
39.94
41.83
43.30
44.43
45.37
46.16
46.58
46.22
44.68
41.80
37.84
33.33
28.92
25.02
21.62
18.36
14.65
9.96
3.94
-3.44
-11.93
-20.83
-29.01
-34.91
-36.91
-33.90
-25.77
-13.64
0.48
14.33
26.17
35.13
41.19
44.82
46.45
46.34
44.52
41.11
36.47
31.22
26.10
21.75
18.50
16.39
15.18
14.50
13.93
13.08
11.59
9.18
5.65
1.02
-4.55
-10.63
-16.65
-22.06
-26.45
-29.73
-32.15
-34.31
-37.06
-41.21
-47.29
-55.15
-63.81
-71.51
-76.13
-75.86
-69.91
-58.78
-44.19
-28.45
-13.72
-1.37
8.19
15.35
20.80
25.08
28.42
30.78
32.08
32.45
32.22
31.91
31.84
32.10
32.38
32.26
31.37
29.63
27.34
24.96
22.84
20.98
18.94
16.08
11.89
6.33
-0.15
-6.76
-12.78
-17.79
-21.86
-25.43
-29.15
-33.68
-39.49
-46.67
-54.73
-62.53
-68.37
-70.48
-67.60
-59.53
-47.33
-32.97
-18.67
-6.15
3.81
11.40
17.41
22.74
28.01
33.38
38.66
43.55
47.77
51.25
53.99
56.00
57.22
57.47
56.63
54.78
52.18
49.29
46.51
44.05
41.85
39.69
37.33
34.67
31.81
28.91
26.10
23.34
20.42
17.02
12.93
8.09
2.68
-2.97
-8.54
-13.82
-18.88
-23.98
-29.54
-35.85
-42.86
-49.88
-55.69
-58.74
-57.68
-51.94
-42.00
-29.36
-16.00
-3.72
6.39
14.21
20.21
25.14
29.45
33.31
36.58
39.14
40.94
42.05
42.51
42.32
41.46
40.04
38.34
36.73
35.54
34.87
34.50
34.08
33.21
31.72
29.65
27.22
24.68
22.16
19.65
17.01
14.16
11.05
7.81
4.57
1.47
-1.43
-4.24
-7.12
-10.30
-13.94
-18.12
-22.77
-27.68
-32.56
-37.08
-41.03
-44.39
-47.42
-50.56
-54.39
-59.31
-65.39
-72.13
-78.44
-82.82
-83.72
-80.04
-71.56
-59.07
-44.17
-28.79
-14.60
-2.58
7.04
14.72
21.13
26.87
32.26
37.28
41.74
45.47
48.38
50.52
52.00
52.91
53.32
53.27
52.82
52.11
51.27
50.43
49.60
48.67
47.46
45.76
43.51
40.72
37.53
34.15
30.81
27.69
24.95
22.67
20.81
19.25
17.79
16.18
14.25
11.94
9.37
6.75
4.35
2.30
0.62
-0.88
-2.44
-4.35
-6.78
-9.73
-12.99
-16.18
-18.94
-20.98
-22.25
-22.91
-23.25
-23.56
-24.03
-24.78
-25.95
-27.81
-30.80
-35.39
-41.88
-50.32
-60.36
-71.34
-82.22
-91.68
-98.04
-99.55
-94.82
-83.38
-66.14
-45.50
-24.86
-7.72
3.35
7.45
5.56
0.04
-6.19
-10.53
-11.27
-7.74
-0.15
10.72
23.70
37.37
50.14
60.42
66.91
68.94
66.68
61.14
53.84
46.38
40.02
35.52
33.13
32.69
33.84
36.11
38.94
41.76
43.99
45.06
44.52
42.02
37.54
31.36
24.14
16.75
10.12
4.99
1.72
0.26
0.15
0.71
1.22
1.09
-0.02
-2.12
-4.99
-8.32
-11.86
-15.61
-19.67
-24.18
-29.04
-33.84
-38.06
-41.20
-43.11
-44.07
-44.70
-45.78
-48.03
-51.86
-57.31
-63.95
-70.80
-76.41
-79.17
-77.79
-71.72
-61.51
-48.67
-35.19
-22.95
-13.10
-5.95
-1.14
2.02
4.21
5.92
7.43
8.96
10.72
12.88
15.49
18.40
21.31
23.85
25.76
26.98
27.67
28.13
28.57
29.04
29.37
29.28
28.58
27.22
25.39
23.39
21.42
19.55
17.64
15.52
13.08
10.34
7.49
4.72
2.19
-0.10
-2.30
-4.67
-7.40
-10.60
-14.22
-18.08
-21.97
-25.68
-29.07
-32.03
-34.54
-36.67
-38.70
-41.05
-44.30
-48.82
-54.53
-60.60
-65.52
-67.48
-65.08
-57.83
-46.54
-33.03
-19.57
-8.12
0.27
5.66
8.89
11.15
13.37
15.99
18.97
22.00
24.77
27.16
29.22
31.07
32.73
34.10
34.98
35.24
34.92
34.29
33.68
33.38
33.44
33.65
33.54
32.67
30.85
28.21
25.24
22.53
20.50
19.21
18.32
17.31
15.69
13.23
10.06
6.56
3.15
0.15
-2.35
-4.53
-6.71
-9.21
-12.29
-15.99
-20.19
-24.62
-28.98
-33.00
-36.53
-39.54
-42.15
-44.65
-47.44
-51.04
-55.78
-61.59
-67.76
-72.98
-75.57
-74.09
-67.90
-57.46
-44.30
-30.51
-18.09
-8.38
-1.73
2.40
5.04
7.25
9.73
12.64
15.81
18.92
21.74
24.16
26.16
27.68
28.67
29.11
29.09
28.88
28.82
29.15
29.92
30.89
31.65
31.81
31.15
29.65
27.53
25.11
22.76
20.70
19.01
17.55
16.03
14.21
11.90
9.19
6.27
3.37
0.63
-2.08
-5.08
-8.78
-13.44
-18.95
-24.74
-29.92
-33.51
-34.79
-33.60
-30.43
-26.36
-22.78
-21.05
-22.08
-26.13
-32.58
-40.04
-46.71
-50.81
-51.12
-47.26
-39.67
-29.33
-17.39
-4.79
7.78
19.78
30.60
39.40
45.21
47.11
44.62
37.96
28.17
16.93
6.22
-2.11
-6.71
-6.98
-3.11
3.99
12.88
21.83
29.15
33.54
34.32
31.58
26.10
19.08
11.73
4.97
-0.68
-5.09
-8.27
-10.26
-11.02
-10.53
-8.92
-6.54
-4.00
-2.04
-1.33
-2.24
-4.79
-8.67
-13.36
-18.30
-23.05
-27.35
-31.18
-34.79
-38.63
-43.19
-48.61
-54.45
-59.60
-62.46
-61.58
-56.27
-47.05
-35.49
-23.71
-13.64
-6.44
-2.30
-0.65
-0.50
-0.84
-0.86
-0.01
1.94
4.96
8.81
13.10
17.48
21.69
25.56
28.97
31.76
33.72
34.72
34.79
34.20
33.41
32.90
32.97
33.61
34.48
35.08
34.98
34.04
32.41
30.48
28.60
26.96
25.45
23.74
21.41
18.19
14.10
9.43
4.63
0.16
-3.73
-7.02
-9.78
-12.19
-14.43
-16.76
-19.58
-23.37
-28.64
-35.52
-43.50
-51.28
-57.02
-58.87
-55.67
-47.40
-35.27
-21.35
-7.87
3.43
11.70
17.02
20.07
21.75
22.77
23.59
24.38
25.24
26.21
27.35
28.67
30.11
31.56
32.90
34.07
35.07
35.99
36.85
37.57
37.92
37.52
36.07
33.38
29.59
25.08
20.37
15.91
11.93
8.39
5.03
1.55
-2.26
-6.41
-10.73
-14.94
-18.82
-22.32
-25.62
-29.14
-33.39
-38.69
-44.88
-51.11
-55.98
-57.84
-55.43
-48.34
-37.32
-24.04
-10.59
1.21
10.30
16.46
20.18
22.25
23.36
24.01
24.50
25.02
25.78
27.03
28.98
31.65
34.86
38.19
41.13
43.28
44.44
44.72
44.37
43.67
42.77
41.66
40.22
38.35
36.07
33.52
30.91
28.39
26.03
23.78
21.52
19.17
16.68
14.11
11.48
8.82
5.95
2.56
-1.82
-7.51
-14.44
-21.88
-28.44
-32.44
-32.39
-27.58
-18.36
-6.05
7.54
20.64
31.98
40.94
47.45
51.86
54.72
56.69
58.42
60.46
63.18
66.61
70.52
74.51
78.17
81.28
83.77
85.75
87.43
89.14
91.23
94.01
97.54
101.48
105.09
107.53
108.36
107.88
107.10
107.26
109.09
112.45
116.35
119.49
120.94
120.55
118.82
116.51
114.16
111.89
109.61
107.28
105.23
104.18
104.90
107.90
112.91
118.82
123.77
125.82
123.67
117.23
107.75
97.20
87.33
78.77
70.51
60.18
45.01
23.07
-5.49
-37.78
-68.37
-90.55
-98.22
-88.10
-61.18
-22.73
19.13
56.04
82.01
94.96
96.42
90.02
79.41
66.78
52.58
36.11
16.38
-7.36
-35.17
-65.67
-95.20
-117.62
-125.57
-113.37
-80.22
-31.81
20.99
66.12
95.10
105.81
102.12
90.69
77.14
63.98
50.95
37.09
22.58
9.15
-1.13
-7.40
-10.80
-13.86
-19.34
-28.73
-41.63
-56.07
-69.49
-79.96
-86.97
-91.56
-95.82
-101.83
-110.61
-121.56
-132.72
-141.56
-146.19
-146.13
-142.45
-137.26
-132.79
-130.57
-131.07
-133.78
-137.70
-141.83
-145.53
-148.73
-151.88
-155.91
-162.06
-171.60
-185.74
-205.50
-231.55
-263.77
-300.70
-339.26
-375.14
-403.99
-422.99
-431.97
-433.24
-430.32
-425.98
-420.77
-413.02
-399.86
-378.91
-349.67
-313.60
-273.40
-231.71
-190.28
-149.84
-110.77
-73.91
-40.98
-14.53
2.86
9.41
4.79
-9.73
-31.49
-56.96
-82.30
-103.83
-118.65
-125.03
-122.68
-112.73
-97.24
-78.43
-58.17
-37.70
-17.81
0.81
17.59
32.14
44.55
55.34
65.14
74.21
82.07
87.58
89.37
86.32
77.93
64.36
46.32
24.81
0.88
-24.57
-50.80
-77.13
-102.87
-127.24
-149.42
-168.78
-184.96
-197.82
-207.08
-212.23
-212.57
-207.74
-198.26
-185.70
-172.08
-159.00
-146.69
-133.80
-118.13
-97.92
-72.80
-44.09
-14.12
14.75
40.84
63.36
82.15
97.32
109.16
118.17
125.28
131.83
139.52
150.12
164.93
184.12
206.07
227.37
243.82
252.11
251.43
243.88
233.12
222.14
211.49
199.16
182.42
160.27
134.79
110.43
91.60
80.03
73.93
69.12
61.64
49.96
35.64
22.13
12.78
9.38
11.69
18.23
27.42
38.47
51.68
67.99
88.21
112.25
138.82
165.45
189.22
207.61
219.27
224.37
224.35
221.12
216.09
209.66
201.26
190.15
176.28
161.00
146.87
136.87
133.22
136.65
146.31
160.51
177.53
196.15
215.44
234.22
250.89
263.80
272.23
277.08
280.55
284.92
291.05
297.72
302.30
302.30
296.85
286.98
274.76
261.77
248.27
233.20
215.34
194.23
170.59
145.77
120.90
96.31
71.57
46.06
19.37
-8.38
-36.75
-65.33
-94.06
-123.45
-154.30
-187.22
-221.83
-256.51
-288.43
-314.44
-332.18
-340.94
-341.88
-337.42
-330.19
-322.17
-314.29
-306.68
-299.20
-291.88
-284.97
-278.73
-273.24
-268.31
-263.61
-258.86
-253.98
-249.02
-244.10
-239.22
-234.18
-228.65
-222.15
-214.15
-203.98
-190.85
-173.93
-152.50
-126.30
-95.91
-62.77
-29.08
2.72
30.56
53.06
69.70
80.55
86.00
86.51
82.75
75.61
66.14
55.10
42.56
27.74
9.34
-13.55
-40.65
-70.12
-99.10
-124.66
-144.88
-159.53
-169.69
-177.13
-183.27
-188.65
-193.03
-195.88
-196.88
-196.03
-193.44
-188.95
-182.09
-172.44
-160.12
-146.20
-132.47
-120.78
-112.23
-106.70
-102.88
-98.92
-92.92
-83.36
-69.29
-50.42
-27.28
-1.29
25.48
51.03
74.20
95.29
115.91
138.22
163.97
193.70
226.53
260.43
292.92
321.65
344.89
361.74
372.02
375.98
373.95
366.21
353.02
334.98
313.23
289.47
265.44
242.30
220.15
198.17
175.07
149.69
121.38
89.96
55.61
18.76
-19.74
-58.43
-95.08
-126.99
-151.69
-167.58
-174.53
-173.58
-166.29
-154.02
-137.66
-117.74
-94.81
-69.95
-44.61
-20.35
1.96
22.62
42.93
64.31
87.79
113.65
141.47
170.66
200.29
229.84
259.35
289.06
318.55
346.36
370.04
386.53
393.23
387.94
370.38
342.69
308.49
271.24
233.37
196.27
160.68
127.70
97.49
70.25
46.47
26.13
8.00
-9.67
-27.99
-46.70
-63.56
-77.26
-86.89
-91.89
-87.25
-68.81
-37.24
1.30
33.95
59.10
77.60
90.02
99.27
105.81
108.39
105.37
95.98
81.05
63.43
45.05
27.33
11.31
-3.15
-17.31
-32.78
-50.48
-70.02
-89.35
-107.17
-122.64
-135.42
-146.10
-156.08
-166.96
-180.08
-196.25
-215.44
-237.56
-261.29
-283.28
-298.73
-302.64
-291.62
-265.46
-227.39
-182.84
-138.05
-98.05
-65.70
-42.11
-27.49
-21.65
-23.80
-32.01
-42.85
-52.11
-55.99
-52.50
-42.27
-28.31
-14.94
-6.16
-4.48
-10.36
-22.62
-39.08
-57.33
-75.18
-90.77
-102.60
-109.49
-110.70
-105.89
-95.11
-78.66
-57.15
-31.59
-3.48
25.10
51.95
75.19
93.83
107.92
118.36
126.34
132.73
137.77
141.10
142.23
140.99
137.84
133.74
129.65
125.93
122.16
117.36
110.65
101.82
91.52
80.92
70.98
62.08
53.97
46.31
39.18
33.08
28.45
24.86
20.64
13.07
-0.67
-22.36
-51.89
-87.27
-125.19
-162.20
-195.71
-224.42
-248.43
-268.81
-287.33
-306.03
-326.69
-350.04
-374.92
-397.91
-413.95
-418.02
-407.14
-381.72
-345.64
-304.63
-264.01
-226.76
-192.98
-160.53
-126.39
-88.23
-45.34
0.77
46.42
86.35
115.19
129.09
127.35
112.88
91.19
68.17
47.84
31.17
16.54
1.50
-15.42
-33.77
-51.67
-66.83
-77.57
-83.06
-82.95
-76.97
-64.77
-46.21
-21.83
6.98
38.14
69.34
98.49
123.88
144.13
158.32
166.43
169.97
172.25
177.75
190.77
213.63
245.55
282.61
319.17
349.75
370.67
380.72
380.60
371.75
355.37
332.09
302.24
266.54
226.40
183.80
140.81
99.08
59.48
22.09
-13.57
-48.13
-82.03
-115.33
-147.63
-178.17
-206.21
-231.35
-253.90
-274.87
-295.58
-317.08
-339.79
-363.43
-387.37
-410.86
-433.07
-452.64
-467.45
-474.72
-471.83
-457.59
-432.96
-401.05
-366.00
-331.63
-300.21
-272.31
-247.32
-224.45
-203.29
-183.88
-166.37
-150.61
-136.02
-121.81
-107.27
-92.06
-76.34
-60.70
-45.85
-32.32
-20.26
-9.32
1.27
12.40
24.77
38.59
53.56
68.94
84.00
98.29
111.93
125.53
139.84
155.51
172.92
192.32
213.96
237.87
263.32
288.26
309.20
321.98
323.35
312.31
290.74
262.62
232.31
203.01
175.97
151.09
127.97
106.76
88.10
72.27
58.32
43.97
26.58
4.74
-20.69
-46.48
-68.06
-81.28
-83.85
-75.87
-59.52
-38.05
-14.69
8.06
28.69
46.47
61.14
72.60
80.92
86.31
89.28
90.60
91.17
91.77
92.87
94.46
96.23
97.83
99.02
99.79
100.13
99.88
98.66
96.01
91.81
86.38
80.48
74.81
69.70
64.84
59.46
52.76
44.38
34.51
23.77
12.78
1.89
-8.94
-19.91
-31.31
-43.39
-56.62
-71.65
-89.16
-109.17
-130.45
-150.09
-164.04
-168.19
-159.85
-138.83
-107.65
-70.80
-33.24
0.92
29.37
51.64
68.56
81.43
91.36
99.10
105.06
109.63
113.36
116.93
120.84
125.23
129.74
133.64
136.24
137.10
136.15
133.61
129.71
124.67
118.61
111.78
104.61
97.68
91.47
86.16
81.52
76.95
71.87
65.92
59.21
52.18
45.42
39.34
33.88
28.45
21.94
12.89
-0.08
-17.83
-39.98
-64.49
-87.68
-104.96
-112.13
-106.89
-89.65
-63.60
-33.52
-4.24
20.88
40.58
55.44
66.92
76.30
84.13
90.27
94.34
96.34
96.87
97.05
97.99
100.39
104.15
108.48
112.28
114.68
115.49
115.22
114.74
114.75
115.24
115.38
113.93
109.78
102.57
92.85
81.89
71.03
61.10
52.14
43.55
34.53
24.54
13.60
2.20
-8.96
-19.20
-28.27
-36.28
-43.69
-51.14
-59.34
-68.99
-80.61
-94.38
-109.71
-125.07
-137.91
-145.16
-144.10
-133.30
-113.24
-86.32
-56.22
-26.82
-1.23
18.96
33.94
45.05
54.02
62.37
71.16
80.86
91.41
102.30
112.90
122.82
131.72
139.28
145.29
149.99
154.09
158.63
164.28
170.73
176.79
179.72
175.85
161.87
136.56
101.36
59.90
16.58
-24.78
-60.13
-87.83
-108.66
-124.70
-137.43
-146.84
-151.88
-151.44
-144.54
-127.00
-96.43
-53.68
-2.74
51.41
104.51
153.95
198.73
240.47
287.44
344.84
410.70
476.05
529.90
564.09
575.66
566.17
541.54
516.03
499.61
494.16
494.54
494.68
491.55
485.50
477.79
422.85
301.64
130.03
-49.93
-201.41
-309.97
-378.82
-414.41
-432.43
-441.77
-439.74
-424.63
-400.06
-375.15
-356.48
-348.23
-351.45
-365.94
-389.18
-412.63
-430.24
-440.94
-448.40
-457.27
-470.86
-490.52
-517.19
-550.65
-587.15
-623.53
-657.36
-685.79
-703.80
-705.13
-684.95
-643.08
-583.67
-512.36
-435.62
-358.68
-284.69
-214.59
-148.47
-86.59
-29.91
21.27
68.48
114.43
162.10
213.85
271.05
333.67
399.75
465.22
524.12
569.61
595.92
600.37
584.45
553.16
512.92
469.14
424.84
380.69
336.28
291.59
247.46
205.14
165.51
128.60
93.95
61.53
32.09
7.00
-12.66
-26.96
-37.53
-47.07
-58.17
-72.08
-87.89
-102.68
-112.43
-113.47
-103.86
-84.05
-56.65
-25.37
6.11
35.06
59.79
79.33
92.93
99.89
99.85
93.25
81.48
66.60
50.72
35.37
21.20
8.13
-4.36
-16.67
-28.94
-41.00
-52.58
-63.47
-73.82
-84.18
-95.50
-109.01
-125.81
-146.45
-170.40
-195.98
-220.61
-241.62
-257.29
-267.53
-273.85
-278.33
-282.36
-285.40
-284.70
-276.25
-256.34
-223.25
-178.27
-125.72
-71.79
-23.65
12.86
34.72
42.52
40.36
34.96
33.98
43.76
67.16
102.11
142.92
182.81
216.25
240.39
254.86
260.66
258.61
248.48
228.32
197.39
157.97
115.07
74.58
41.01
16.32
-0.11
-10.67
-21.21
-35.20
-51.79
-67.17
-77.75
-82.08
-80.67
-75.12
-67.48
-66.39
-77.15
-98.69
-125.40
-152.18
-177.06
-200.37
-223.30
-246.83
-281.76
-333.16
-395.88
-458.27
-510.82
-550.75
-580.59
-605.16
-629.28
-670.02
-736.05
-821.13
-908.60
-982.29
-1033.30
-1059.57
-1063.74
-965.22
-739.29
-431.97
-127.13
116.72
286.68
395.77
462.66
502.49
525.35
523.95
494.78
446.91
395.84
354.01
325.43
308.21
298.49
293.09
279.87
253.16
218.20
183.65
157.59
142.36
136.17
135.85
138.67
136.30
124.32
104.88
84.11
67.54
56.98
51.53
49.45
49.23
46.66
39.53
28.82
17.45
8.17
1.93
-1.64
-3.35
-3.91
-4.94
-7.32
-10.72
-14.16
-16.60
-17.71
-17.67
-16.85
-15.62
-14.30
-13.14
-12.34
-12.07
-12.35
-13.16
-14.48
-16.27
-18.43
-20.88
-23.47
-26.05
-28.46
-30.54
-32.16
-33.25
-33.79
-33.82
-33.37
-32.51
-31.24
-29.62
-27.64
-25.31
-22.66
-19.74
-16.58
-13.12
-9.28
-4.84
0.40
6.65
13.98
22.29
31.33
40.75
50.23
59.58
68.74
77.80
86.81
95.72
104.25
111.97
118.42
123.30
126.66
128.90
130.69
132.70
135.43
138.96
143.14
147.64
152.28
157.17
162.72
169.54
178.31
189.66
204.02
221.40
241.07
261.36
279.79
293.60
300.65
300.16
292.97
281.10
266.91
252.12
237.47
222.93
208.24
193.42
178.92
165.25
152.62
140.68
128.73
116.17
102.88
89.31
76.36
64.86
55.20
47.11
39.74
31.95
22.68
11.30
-2.10
-16.57
-30.36
-41.27
-47.20
-46.79
-39.96
-27.95
-13.02
2.32
16.04
27.04
35.20
40.99
44.99
47.56
48.83
48.87
47.93
46.51
45.21
44.46
44.35
44.54
44.46
43.62
41.86
39.40
36.67
34.03
31.53
28.82
25.31
20.51
14.29
6.99
-0.66
-7.83
-13.95
-18.85
-22.80
-26.40
-30.31
-35.13
-41.21
-48.51
-56.45
-63.93
-69.35
-71.09
-67.97
-59.73
-47.21
-32.19
-16.79
-2.86
8.41
16.67
22.14
25.33
26.73
26.76
25.84
24.44
23.09
22.26
22.19
22.82
23.81
24.68
25.05
24.70
23.69
22.16
20.22
17.82
14.75
10.67
5.41
-0.93
-7.91
-14.83
-21.01
-26.03
-29.96
-33.33
-37.00
-41.83
-48.30
-56.11
-64.12
-70.48
-73.20
-70.79
-62.93
-50.56
-35.62
-20.37
-6.70
4.34
12.59
18.43
22.44
25.06
26.55
27.07
26.81
26.11
25.40
25.09
25.39
26.24
27.23
27.80
27.46
26.01
23.64
20.79
17.95
15.31
12.70
9.66
5.70
0.62
-5.35
-11.63
-17.60
-22.80
-27.15
-30.85
-34.30
-37.98
-42.26
-47.52
-53.94
-61.31
-68.86
-75.17
-78.45
-77.11
-70.37
-58.70
-43.73
-27.68
-12.65
0.04
10.05
17.79
23.97
29.15
33.49
36.86
39.11
40.29
40.73
40.97
41.45
42.28
43.19
43.71
43.39
42.14
40.24
38.20
36.50
35.31
34.42
33.35
31.60
28.87
25.19
20.88
16.40
12.17
8.43
5.19
2.31
-0.48
-3.43
-6.77
-10.62
-14.95
-19.61
-24.32
-28.74
-32.66
-36.02
-39.02
-42.05
-45.58
-50.12
-56.02
-63.26
-71.35
-79.14
-84.97
-87.02
-83.93
-75.33
-62.11
-46.23
-30.08
-15.73
-4.38
3.82
9.46
13.40
16.36
18.75
20.70
22.28
23.64
25.00
26.52
28.20
29.82
31.07
31.68
31.60
30.99
30.11
29.14
28.04
26.58
24.43
21.42
17.61
13.38
9.20
5.48
2.37
-0.33
-3.04
-6.18
-9.96
-14.26
-18.64
-22.59
-25.81
-28.29
-30.45
-32.95
-36.56
-41.77
-48.67
-56.67
-64.57
-70.67
-73.28
-71.14
-63.91
-52.36
-38.07
-23.09
-9.22
2.30
11.07
17.33
21.69
24.82
27.22
29.16
30.72
31.90
32.71
33.22
33.55
33.81
34.04
34.19
34.13
33.74
32.97
31.84
30.41
28.74
26.84
24.65
22.07
19.05
15.63
11.93
8.17
4.58
1.39
-1.34
-3.66
-5.78
-8.01
-10.62
-13.81
-17.55
-21.68
-25.89
-29.95
-33.73
-37.25
-40.64
-44.09
-47.80
-52.01
-56.95
-62.74
-69.15
-75.39
-80.10
-81.67
-78.74
-70.82
-58.60
-43.75
-28.44
-14.58
-3.31
5.15
11.26
15.80
19.44
22.56
25.28
27.57
29.40
30.83
32.01
33.14
34.32
35.49
36.46
37.03
37.10
36.73
36.13
35.52
34.94
34.22
33.01
31.00
28.10
24.59
20.97
17.78
15.32
13.51
11.92
10.05
7.54
4.39
0.95
-2.31
-5.05
-7.25
-9.22
-11.42
-14.23
-17.72
-21.64
-25.57
-29.12
-32.11
-34.63
-37.04
-39.81
-43.37
-47.97
-53.51
-59.48
-64.91
-68.54
-69.14
-65.87
-58.59
-48.04
-35.59
-22.89
-11.45
-2.20
4.51
8.91
11.51
12.91
13.64
14.07
14.46
14.95
15.63
16.53
17.67
19.05
20.55
22.00
23.16
23.82
23.87
23.37
22.53
21.52
20.47
19.26
17.72
15.62
12.91
9.72
6.37
3.26
0.66
-1.34
-2.91
-4.40
-6.22
-8.64
-11.69
-15.16
-18.72
-22.07
-25.06
-27.78
-30.46
-33.45
-37.05
-41.50
-46.89
-53.01
-59.19
-64.27
-66.81
-65.50
-59.70
-49.82
-37.31
-24.19
-12.40
-3.18
3.20
7.32
10.14
12.51
14.88
17.30
19.63
21.77
23.77
25.78
27.87
29.95
31.73
32.89
33.26
32.96
32.27
31.57
31.03
30.56
29.86
28.61
26.64
24.08
21.25
18.55
16.23
14.32
12.58
10.72
8.49
5.81
2.80
-0.38
-3.64
-6.99
-10.50
-14.24
-18.09
-21.81
-25.12
-27.79
-29.84
-31.45
-32.94
-34.70
-37.13
-40.50
-44.90
-50.00
-54.97
-58.51
-59.17
-55.90
-48.47
-37.65
-25.04
-12.47
-1.48
7.14
13.29
17.43
20.16
21.98
23.17
23.88
24.23
24.42
24.75
25.44
26.64
28.24
30.00
31.57
32.71
33.32
33.48
33.34
33.01
32.47
31.57
30.12
28.02
25.27
22.08
18.69
15.40
12.37
9.69
7.38
5.37
3.62
2.03
0.48
-1.24
-3.32
-5.90
-8.99
-12.41
-15.93
-19.25
-22.24
-24.86
-27.31
-29.84
-32.78
-36.44
-40.91
-46.00
-51.08
-55.17
-57.07
-55.82
-51.00
-42.95
-32.70
-21.69
-11.28
-2.49
4.22
8.80
11.49
12.67
12.76
12.18
11.39
10.82
10.79
11.46
12.82
14.67
16.73
18.70
20.36
21.53
22.18
22.32
21.99
21.20
19.94
18.16
15.92
13.34
10.69
8.22
6.14
4.45
2.95
1.28
-0.92
-3.82
-7.33
-11.08
-14.64
-17.63
-19.93
-21.74
-23.50
-25.76
-28.96
-33.26
-38.38
-43.57
-47.67
-49.45
-47.92
-42.76
-34.51
-24.39
-13.99
-4.68
2.73
8.08
11.64
13.82
14.95
15.19
14.75
13.89
13.07
12.72
13.09
14.15
15.57
16.94
17.91
18.42
18.60
18.62
18.61
18.46
17.93
16.73
14.69
11.82
8.38
4.73
1.24
-1.84
-4.40
-6.55
-8.48
-10.47
-12.72
-15.36
-18.36
-21.56
-24.69
-27.50
-29.84
-31.79
-33.63
-35.77
-38.69
-42.69
-47.72
-53.27
-58.34
-61.65
-61.99
-58.63
-51.66
-41.98
-31.11
-20.65
-11.82
-5.10
-0.29
3.28
6.31
9.26
12.20
15.00
17.44
19.47
21.23
22.98
24.92
27.02
28.98
30.37
30.92
30.66
29.97
29.42
29.40
29.95
30.70
31.02
30.41
28.67
26.04
23.04
20.24
17.99
16.31
14.94
13.46
11.51
8.89
5.67
2.13
-1.42
-4.69
-7.58
-10.15
-12.60
-15.09
-17.80
-20.87
-24.49
-28.85
-34.04
-39.88
-45.69
-50.36
-52.62
-51.46
-46.59
-38.61
-28.83
-18.79
-9.78
-2.46
3.15
7.38
10.59
12.98
14.52
15.21
15.17
14.77
14.50
14.77
15.73
17.17
18.74
20.02
20.79
21.08
21.06
20.90
20.63
20.08
18.99
17.16
14.57
11.46
8.22
5.23
2.69
0.57
-1.37
-3.41
-5.73
-8.30
-10.86
-13.11
-14.80
-15.87
-16.56
-17.28
-18.55
-20.84
-24.46
-29.39
-35.22
-41.14
-45.98
-48.51
-47.79
-43.42
-35.84
-26.13
-15.78
-6.23
1.52
7.09
10.70
12.88
14.27
15.32
16.29
17.30
18.45
19.81
21.50
23.51
25.73
27.87
29.61
30.69
30.97
30.51
29.44
27.89
25.98
23.80
21.42
18.98
16.64
14.58
12.88
11.49
10.19
8.63
6.46
3.42
-0.48
-5.00
-9.72
-14.17
-18.07
-21.38
-24.34
-27.34
-30.78
-34.80
-39.16
-43.19
-45.91
-46.35
-43.92
-38.63
-31.22
-22.79
-14.56
-7.36
-1.54
3.07
6.86
10.23
13.41
16.41
19.15
21.54
23.60
25.41
27.09
28.72
30.26
31.58
32.52
32.98
33.01
32.73
32.28
31.75
31.05
30.04
28.61
26.76
24.66
22.52
20.54
18.81
17.34
16.09
15.03
14.19
13.45
12.66
11.54
9.89
7.66
5.02
2.27
-0.33
-2.70
-5.00
-7.52
-10.47
-13.83
-17.36
-20.75
-23.72
-26.23
-28.47
-30.79
-33.55
-37.10
-41.68
-47.41
-54.15
-61.40
-68.26
-73.47
-75.73
-74.03
-68.06
-58.39
-46.32
-33.51
-21.48
-11.23
-3.01
3.43
8.64
13.12
17.11
20.68
23.80
26.54
29.07
31.63
34.37
37.26
40.07
42.48
44.24
45.31
45.84
46.06
46.17
46.21
45.98
45.19
43.58
41.06
37.77
34.04
30.24
26.73
23.65
21.01
18.69
16.57
14.50
12.36
10.01
7.32
4.24
0.80
-2.81
-6.34
-9.64
-12.67
-15.61
-18.75
-22.36
-26.59
-31.41
-36.62
-41.76
-46.20
-49.13
-49.72
-47.40
-42.09
-34.38
-25.41
-16.51
-8.74
-2.65
1.90
5.39
8.38
11.18
13.77
16.00
17.74
19.05
20.12
21.12
22.07
22.75
22.83
22.07
20.51
18.44
16.33
14.60
13.47
12.86
12.43
11.79
10.63
8.90
6.84
4.89
3.45
2.69
2.38
1.95
0.75
-1.63
-5.19
-9.48
-13.83
-17.66
-20.74
-23.21
-25.53
-28.24
-31.75
-36.19
-41.30
-46.48
-50.80
-53.24
-52.90
-49.32
-42.68
-33.76
-23.81
-14.11
-5.63
1.13
6.24
10.11
13.27
16.13
18.86
21.45
23.77
25.73
27.35
28.70
29.94
31.13
32.30
33.36
34.22
34.78
34.99
34.86
34.41
33.61
32.45
30.87
28.90
26.66
24.33
22.13
20.20
18.59
17.20
15.89
14.54
13.04
11.34
9.38
7.14
4.58
1.68
-1.53
-5.04
-8.81
-12.85
-17.25
-22.06
-27.36
-33.19
-39.49
-46.05
-52.39
-57.70
-60.97
-61.21
-57.82
-50.93
-41.40
-30.64
-20.16
-11.16
-4.20
0.82
4.43
7.27
9.79
12.16
14.32
16.17
17.70
19.03
20.27
21.43
22.35
22.76
22.51
21.68
20.58
19.65
19.15
19.00
18.85
18.21
16.81
14.67
12.14
9.65
7.49
5.69
4.04
2.26
0.17
-2.21
-4.68
-6.96
-8.95
-10.69
-12.41
-14.38
-16.79
-19.74
-23.16
-26.93
-30.80
-34.39
-37.13
-38.32
-37.31
-33.72
-27.71
-19.94
-11.47
-3.44
3.30
8.36
11.83
14.09
15.64
16.82
17.81
18.60
19.10
19.25
19.08
18.70
18.26
17.95
17.81
17.82
17.85
17.70
17.25
16.40
15.15
13.59
11.83
9.99
8.13
6.26
4.32
2.25
-0.02
-2.52
-5.26
-8.18
-11.17
-14.07
-16.72
-19.05
-21.10
-23.17
-25.64
-28.91
-33.08
-37.79
-42.14
-44.95
-45.10
-41.98
-35.73
-27.24
-17.89
-9.08
-1.85
3.42
6.94
9.34
11.31
13.34
15.55
17.83
19.93
21.67
23.03
24.06
24.83
25.32
25.44
25.12
24.39
23.43
22.47
21.72
21.22
20.85
20.37
19.46
17.94
15.73
12.95
9.85
6.78
4.03
1.71
-0.24
-2.09
-4.12
-6.52
-9.26
-12.12
-14.83
-17.16
-19.09
-20.78
-22.51
-24.60
-27.34
-30.94
-35.48
-40.78
-46.32
-51.22
-54.33
-54.59
-51.37
-44.82
-35.81
-25.75
-16.11
-7.94
-1.68
2.82
6.09
8.74
11.19
13.65
16.13
18.53
20.75
22.73
24.45
25.94
27.22
28.27
29.03
29.41
29.38
28.98
28.36
27.71
27.15
26.66
26.05
25.04
23.42
21.12
18.29
15.24
12.28
9.61
7.29
5.19
3.12
0.88
-1.67
-4.63
-8.07
-11.98
-16.26
-20.67
-24.87
-28.56
-31.61
-34.17
-36.65
-39.57
-43.43
-48.35
-54.02
-59.55
-63.72
-65.22
-63.18
-57.45
-48.67
-38.11
-27.19
-17.11
-8.51
-1.55
3.92
8.12
11.21
13.35
14.78
15.87
17.02
18.53
20.50
22.75
24.96
26.83
28.15
28.90
29.27
29.42
29.51
29.48
29.11
28.10
26.20
23.33
19.62
15.46
11.26
7.38
3.97
0.96
-1.89
-4.87
-8.13
-11.67
-15.30
-18.77
-21.90
-24.69
-27.32
-30.12
-33.52
-37.89
-43.41
-49.92
-56.78
-62.93
-67.00
-67.74
-64.40
-57.04
-46.53
-34.34
-22.01
-10.77
-1.29
6.29
12.23
16.92
20.69
23.77
26.32
28.46
30.34
32.13
34.00
36.01
38.14
40.24
42.09
43.53
44.45
44.89
44.92
44.60
43.89
42.74
41.09
38.96
36.43
33.58
30.43
26.98
23.25
19.41
15.72
12.49
9.84
7.65
5.44
2.68
-1.06
-5.85
-11.32
-16.83
-21.75
-25.79
-29.05
-32.06
-35.51
-40.01
-45.87
-52.95
-60.64
-67.89
-73.39
-75.80
-74.08
-67.82
-57.43
-44.12
-29.56
-15.50
-3.29
6.43
13.72
19.15
23.46
27.29
30.97
34.58
38.03
41.23
44.21
47.03
49.75
52.27
54.37
55.80
56.46
56.46
56.11
55.70
55.37
54.98
54.23
52.84
50.72
48.02
45.02
42.04
39.30
36.81
34.49
32.22
29.87
27.35
24.65
21.72
18.57
15.20
11.62
7.81
3.72
-0.71
-5.53
-10.69
-16.02
-21.24
-25.99
-30.01
-33.26
-36.00
-38.79
-42.34
-47.20
-53.52
-60.78
-67.76
-72.82
-74.36
-71.30
-63.53
-51.90
-37.99
-23.61
-10.28
1.03
10.03
16.86
21.88
25.44
27.89
29.48
30.55
31.38
32.26
33.32
34.58
35.93
37.18
38.18
38.87
39.27
39.42
39.37
39.11
38.55
37.57
36.03
33.89
31.18
28.03
24.66
21.30
18.16
15.34
12.85
10.59
8.43
6.19
3.78
1.06
-1.99
-5.37
-8.99
-12.65
-16.14
-19.28
-22.06
-24.68
-27.60
-31.34
-36.30
-42.42
-49.03
-54.89
-58.54
-58.70
-54.75
-46.92
-36.26
-24.19
-12.17
-1.29
7.81
14.90
19.98
23.22
24.85
25.24
24.87
24.24
23.82
23.90
24.58
25.78
27.30
28.88
30.29
31.30
31.74
31.51
30.59
29.09
27.21
25.15
23.03
20.82
18.43
15.78
12.91
10.01
7.29
4.91
2.78
0.67
-1.76
-4.80
-8.53
-12.79
-17.25
-21.56
-25.44
-28.78
-31.66
-34.32
-37.08
-40.27
-44.19
-48.97
-54.49
-60.26
-65.40
-68.70
-68.96
-65.31
-57.65
-46.71
-33.97
-21.16
-9.68
-0.28
7.03
12.73
17.37
21.29
24.52
26.95
28.54
29.46
30.11
30.89
32.04
33.52
35.02
36.14
36.65
36.51
35.93
35.19
34.44
33.70
32.79
31.53
29.82
27.70
25.28
22.67
19.93
17.07
14.11
11.13
8.26
5.62
3.27
1.12
-0.98
-3.26
-5.87
-8.91
-12.32
-16.00
-19.78
-23.51
-27.13
-30.67
-34.30
-38.27
-42.88
-48.26
-54.16
-59.93
-64.43
-66.37
-64.72
-59.06
-49.83
-38.26
-26.02
-14.69
-5.40
1.49
6.32
9.81
12.73
15.61
18.56
21.42
23.94
25.91
27.34
28.29
28.90
29.25
29.45
29.66
30.02
30.63
31.39
32.01
32.09
31.36
29.81
27.67
25.28
22.96
20.87
18.97
17.13
15.23
13.17
11.00
8.78
6.59
4.48
2.38
0.13
-2.41
-5.32
-8.55
-11.87
-15.09
-18.01
-20.59
-22.88
-25.06
-27.31
-29.91
-33.13
-37.15
-41.94
-47.00
-51.36
-53.82
-53.28
-49.17
-41.72
-31.90
-21.14
-10.93
-2.36
4.04
8.34
11.03
12.75
14.07
15.35
16.73
18.16
19.54
20.79
21.87
22.82
23.63
24.28
24.69
24.82
24.70
24.44
24.15
23.84
23.41
22.67
21.38
19.38
16.73
13.68
10.62
7.93
5.78
4.11
2.67
1.11
-0.82
-3.24
-6.10
-9.31
-12.70
-16.14
-19.51
-22.70
-25.66
-28.37
-30.94
-33.47
-36.02
-38.44
-40.33
-41.08
-40.04
-36.76
-31.18
-23.73
-15.24
-6.74
0.81
6.75
10.86
13.23
14.19
14.15
13.50
12.60
11.80
11.41
11.62
12.46
13.79
15.38
16.95
18.29
19.20
19.57
19.28
18.29
16.64
14.49
12.09
9.65
7.33
5.09
2.76
0.19
-2.69
-5.78
-8.83
-11.54
-13.72
-15.39
-16.71
-18.02
-19.65
-21.88
-24.86
-28.64
-33.11
-37.85
-42.15
-44.99
-45.33
-42.45
-36.31
-27.65
-17.78
-8.19
-0.04
6.08
10.17
12.67
14.14
15.06
15.78
16.48
17.23
18.07
19.01
20.07
21.27
22.58
23.90
25.02
25.73
25.86
25.39
24.46
23.30
22.11
20.94
19.72
18.33
16.70
14.89
13.02
11.14
9.24
7.23
5.01
2.62
0.20
-2.04
-3.99
-5.66
-7.23
-8.95
-11.06
-13.64
-16.59
-19.67
-22.60
-25.19
-27.50
-29.80
-32.56
-36.24
-41.02
-46.60
-52.14
-56.39
-58.04
-56.12
-50.36
-41.31
-30.27
-18.84
-8.50
-0.25
5.58
9.25
11.40
12.79
14.10
15.77
18.02
20.75
23.65
26.30
28.38
29.72
30.42
30.71
30.83
30.89
30.82
30.54
30.00
29.27
28.47
27.69
26.95
26.15
25.19
24.01
22.63
21.12
19.55
17.98
16.48
15.09
13.84
12.73
11.65
10.41
8.75
6.44
3.38
-0.35
-4.51
-8.79
-12.87
-16.58
-19.90
-22.97
-26.06
-29.44
-33.35
-37.89
-42.86
-47.64
-51.24
-52.45
-50.30
-44.50
-35.63
-25.09
-14.59
-5.62
1.02
5.28
7.73
9.11
10.07
11.05
12.27
13.86
15.82
18.10
20.50
22.74
24.49
25.47
25.53
24.71
23.23
21.45
19.73
18.33
17.30
16.49
15.63
14.48
12.89
10.94
8.79
6.68
4.79
3.15
1.64
0.03
-1.90
-4.28
-7.04
-9.93
-12.62
-14.88
-16.70
-18.34
-20.22
-22.77
-26.18
-30.21
-34.19
-37.13
-37.95
-35.93
-30.97
-23.71
-15.33
-7.18
-0.27
4.94
8.58
11.11
12.97
14.43
15.52
16.21
16.55
16.68
16.82
17.10
17.58
18.21
18.87
19.45
19.86
20.04
19.98
19.70
19.20
18.43
17.27
15.61
13.37
10.63
7.64
4.78
2.43
0.74
-0.40
-1.37
-2.66
-4.69
-7.65
-11.36
-15.42
-19.29
-22.54
-25.03
-26.96
-28.83
-31.28
-34.77
-39.37
-44.59
-49.40
-52.48
-52.55
-48.86
-41.52
-31.49
-20.39
-9.96
-1.50
4.44
8.11
10.25
11.66
12.89
14.20
15.57
16.98
18.42
19.91
21.44
22.89
24.13
25.02
25.50
25.54
25.12
24.25
23.02
21.60
20.23
19.15
18.45
18.02
17.60
16.85
15.56
13.71
11.52
9.34
7.48
6.07
5.01
3.97
2.58
0.64
-1.88
-4.75
-7.70
-10.47
-12.94
-15.15
-17.22
-19.30
-21.57
-24.31
-27.78
-32.12
-37.13
-42.12
-46.00
-47.52
-45.76
-40.45
-32.21
-22.27
-12.21
-3.35
3.55
8.43
11.79
14.33
16.64
19.00
21.45
23.83
25.94
27.70
29.05
30.01
30.56
30.71
30.49
29.99
29.31
28.55
27.79
27.03
26.28
25.48
24.62
23.63
22.44
20.96
19.21
17.29
15.30
13.40
11.64
10.01
8.40
6.76
5.05
3.31
1.56
-0.22
-2.11
-4.25
-6.77
-9.69
-12.86
-16.04
-18.98
-21.55
-23.85
-26.24
-29.16
-32.91
-37.36
-41.82
-45.17
-46.16
-43.92
-38.33
-30.12
-20.62
-11.29
-3.27
2.96
7.50
10.82
13.41
15.54
17.21
18.33
18.90
19.11
19.30
19.80
20.74
21.94
23.02
23.55
23.31
22.36
21.02
19.66
18.52
17.55
16.50
15.02
12.90
10.17
7.14
4.22
1.79
-0.03
-1.44
-2.84
-4.66
-7.07
-9.97
-13.02
-15.80
-18.06
-19.77
-21.13
-22.41
-23.92
-25.97
-28.79
-32.58
-37.27
-42.41
-47.02
-49.83
-49.57
-45.49
-37.71
-27.27
-15.84
-5.18
3.41
9.37
12.95
14.91
16.16
17.34
18.72
20.24
21.65
22.76
23.57
24.23
24.97
25.91
26.96
27.85
28.26
27.96
26.99
25.57
24.12
22.92
22.04
21.30
20.33
18.82
16.71
14.24
11.82
9.85
8.49
7.55
6.63
5.29
3.23
0.44
-2.95
-6.69
-10.56
-14.40
-18.07
-21.44
-24.41
-26.97
-29.22
-31.43
-34.04
-37.45
-41.78
-46.67
-51.18
-53.87
-53.29
-48.54
-39.71
-27.98
-15.29
-3.64
5.58
11.89
15.74
18.03
19.71
21.38
23.25
25.27
27.32
29.35
31.41
33.56
35.78
37.89
39.53
40.33
40.06
38.78
36.82
34.65
32.63
30.81
28.93
26.57
23.47
19.64
15.47
11.49
8.15
5.56
3.46
1.36
-1.23
-4.62
-8.76
-13.32
-17.85
-21.90
-25.25
-27.97
-30.28
-32.49
-34.90
-37.71
-40.97
-44.65
-48.47
-51.86
-53.98
-53.83
-50.65
-44.27
-35.35
-25.29
-15.78
-8.21
-3.27
-0.74
0.16
0.30
0.31
0.36
0.39
0.31
0.31
0.67
1.74
3.62
6.09
8.73
11.06
12.76
13.67
13.80
13.23
12.06
10.46
8.64
6.87
5.32
4.08
3.01
1.89
0.55
-0.98
-2.46
-3.56
-4.05
-3.99
-3.80
-4.11
-5.56
-8.53
-12.98
-18.46
-24.22
-29.27
-32.59
-33.25
-30.61
-24.56
-15.64
-5.10
5.41
14.31
20.53
23.75
24.40
23.30
21.28
18.94
16.59
14.43
12.70
11.65
11.53
12.37
13.92
15.69
17.12
17.75
17.37
15.99
13.83
11.23
8.49
5.87
3.43
1.16
-1.12
-3.55
-6.23
-9.14
-12.11
-14.94
-17.47
-19.62
-21.47
-23.24
-25.23
-27.81
-31.26
-35.67
-40.70
-45.52
-48.88
-49.45
-46.27
-39.17
-28.96
-17.23
-5.81
3.78
10.80
15.27
17.79
19.12
19.88
20.41
20.87
21.36
22.00
22.94
24.28
25.98
27.84
29.48
30.47
30.43
29.23
26.97
24.02
20.82
17.81
15.17
12.89
10.83
8.76
6.57
4.22
1.79
-0.62
-2.93
-5.09
-7.10
-8.97
-10.79
-12.75
-15.09
-18.13
-22.07
-26.84
-31.97
-36.55
-39.41
-39.50
-36.20
-29.65
-20.74
-10.86
-1.47
6.36
12.09
15.84
18.06
19.31
20.10
20.76
21.50
22.45
23.65
25.04
26.44
27.58
28.24
28.30
27.79
26.90
25.81
24.69
23.58
22.39
20.99
19.26
17.19
14.89
12.57
10.43
8.54
6.77
4.87
2.55
-0.31
-3.61
-7.06
-10.33
-13.21
-15.68
-17.87
-20.02
-22.36
-25.16
-28.71
-33.18
-38.42
-43.76
-47.95
-49.51
-47.24
-40.76
-30.82
-19.03
-7.36
2.56
9.89
14.60
17.30
18.69
19.28
19.29
18.78
17.83
16.76
16.05
16.19
17.34
19.28
21.37
22.92
23.44
22.92
21.73
20.42
19.35
18.54
17.70
16.47
14.64
12.22
9.42
6.53
3.75
1.18
-1.17
-3.38
-5.58
-7.96
-10.81
-14.42
-19.04
-24.67
-30.90
-36.86
-41.35
-43.09
-41.16
-35.38
-26.51
-16.02
-5.68
2.99
9.21
12.96
14.81
15.52
15.65
15.52
15.18
14.73
14.32
14.23
14.70
15.77
17.27
18.80
19.93
20.29
19.75
18.42
16.61
14.73
13.13
11.96
11.06
10.02
8.33
5.68
2.10
-2.01
-6.07
-9.60
-12.45
-14.88
-17.33
-20.29
-24.01
-28.49
-33.50
-38.64
-43.31
-46.73
-48.04
-46.42
-41.51
-33.54
-23.50
-12.81
-2.97
4.95
10.53
13.96
15.85
16.86
17.52
18.12
18.80
19.62
20.57
21.67
22.84
24.03
25.15
26.13
26.88
27.28
27.20
26.46
25.02
23.02
20.71
18.43
16.39
14.54
12.62
10.30
7.34
3.76
-0.19
-4.10
-7.62
-10.58
-13.00
-15.09
-17.13
-19.40
-22.14
-25.53
-29.64
-34.29
-38.98
-42.80
-44.64
-43.45
-38.68
-30.59
-20.30
-9.45
0.28
7.72
12.53
15.19
16.55
17.43
18.31
19.24
20.04
20.54
20.78
20.94
21.25
21.80
22.48
23.02
23.16
22.70
21.69
20.25
18.58
16.82
15.02
13.19
11.32
9.46
7.66
5.97
4.29
2.47
0.36
-2.11
-4.86
-7.74
-10.60
-13.44
-16.36
-19.53
-23.08
-26.97
-31.00
-34.76
-37.66
-38.98
-38.02
-34.30
-27.82
-19.24
-9.75
-0.76
6.54
11.55
14.33
15.43
15.55
15.31
15.04
14.92
15.01
15.42
16.23
17.48
19.03
20.62
21.83
22.31
21.88
20.65
18.96
17.23
15.76
14.63
13.72
12.76
11.56
10.06
8.30
6.36
4.25
1.90
-0.71
-3.55
-6.39
-9.00
-11.19
-13.02
-14.77
-16.88
-19.79
-23.76
-28.78
-34.43
-39.87
-43.95
-45.46
-43.48
-37.79
-29.04
-18.59
-8.17
0.79
7.51
12.03
15.01
17.24
19.28
21.26
23.02
24.31
25.12
25.68
26.35
27.36
28.65
29.89
30.69
30.80
30.27
29.37
28.41
27.51
26.60
25.41
23.74
21.52
18.86
16.03
13.28
10.85
8.86
7.31
5.99
4.59
2.73
0.16
-3.10
-6.73
-10.25
-13.22
-15.43
-17.05
-18.48
-20.22
-22.67
-26.07
-30.44
-35.50
-40.65
-44.95
-47.25
-46.51
-42.21
-34.69
-25.10
-15.12
-6.37
0.13
4.21
6.50
7.99
9.56
11.66
14.26
16.94
19.27
20.98
22.14
22.97
23.75
24.61
25.46
26.09
26.32
26.15
25.74
25.35
25.11
24.91
24.39
23.11
20.77
17.42
13.49
9.66
6.50
4.24
2.72
1.40
-0.27
-2.62
-5.55
-8.72
-11.69
-14.17
-16.20
-18.02
-20.04
-22.63
-26.06
-30.45
-35.62
-41.02
-45.70
-48.48
-48.36
-44.87
-38.36
-29.95
-21.14
-13.28
-7.23
-3.18
-0.79
0.52
1.31
1.98
2.73
3.66
4.86
6.42
8.36
10.64
13.03
15.20
16.80
17.68
17.91
17.81
17.70
17.74
17.82
17.55
16.57
14.74
12.22
9.45
6.93
4.92
3.36
1.96
0.31
-1.79
-4.30
-6.93
-9.33
-11.27
-12.76
-14.04
-15.49
-17.54
-20.52
-24.61
-29.75
-35.44
-40.77
-44.43
-45.15
-42.11
-35.34
-25.89
-15.45
-5.79
1.84
7.02
10.18
12.09
13.58
15.09
16.70
18.30
19.74
20.98
22.14
23.35
24.68
26.03
27.17
27.83
27.87
27.29
26.28
25.08
23.90
22.84
21.84
20.76
19.48
18.00
16.42
14.90
13.60
12.51
11.55
10.49
9.14
7.32
4.97
2.09
-1.19
-4.72
-8.30
-11.67
-14.68
-17.25
-19.52
-21.75
-24.38
-27.79
-32.18
-37.44
-43.04
-48.02
-51.18
-51.43
-48.11
-41.37
-32.11
-21.81
-12.05
-4.00
1.81
5.51
7.66
8.93
9.84
10.72
11.70
12.85
14.21
15.80
17.62
19.49
21.16
22.32
22.81
22.66
22.15
21.71
21.70
22.17
22.87
23.35
23.14
22.09
20.46
18.79
17.65
17.30
17.64
18.22
18.56
18.32
17.47
16.20
14.75
13.25
11.69
9.98
8.05
5.92
3.63
1.19
-1.39
-4.18
-7.16
-10.21
-13.13
-15.72
-17.89
-19.76
-21.71
-24.23
-27.69
-32.07
-36.73
-40.48
-41.87
-39.74
-33.70
-24.42
-13.40
-2.44
6.92
13.84
18.29
20.76
21.93
22.34
22.29
21.91
21.30
20.65
20.19
20.13
20.51
21.13
21.68
21.85
21.50
20.67
19.55
18.32
17.00
15.49
13.53
10.95
7.70
3.91
-0.11
-3.99
-7.38
-10.07
-12.07
-13.57
-14.89
-16.34
-18.05
-19.99
-21.96
-23.74
-25.36
-27.06
-29.29
-32.49
-36.80
-41.82
-46.63
-49.92
-50.44
-47.46
-41.06
-32.13
-22.13
-12.61
-4.69
1.14
5.02
7.48
9.11
10.33
11.39
12.42
13.53
14.86
16.47
18.31
20.13
21.60
22.44
22.53
22.04
21.25
20.43
19.62
18.64
17.15
14.85
11.71
7.95
4.05
0.47
-2.48
-4.75
-6.59
-8.37
-10.43
-12.98
-16.03
-19.44
-23.00
-26.61
-30.29
-34.21
-38.63
-43.65
-49.10
-54.39
-58.55
-60.48
-59.27
-54.59
-46.80
-36.92
-26.35
-16.49
-8.34
-2.33
1.64
4.07
5.60
6.85
8.24
10.02
12.22
14.75
17.43
20.07
22.50
24.61
26.35
27.68
28.65
29.26
29.56
29.51
29.02
27.96
26.22
23.82
20.94
17.89
14.98
12.41
10.25
8.42
6.82
5.36
3.99
2.59
0.98
-1.15
-4.07
-7.97
-12.89
-18.76
-25.40
-32.43
-39.23
-44.84
-48.12
-48.01
-44.04
-36.56
-26.78
-16.36
-6.90
0.57
5.77
9.08
11.15
12.64
13.98
15.34
16.74
18.14
19.58
21.14
22.84
24.59
26.12
27.11
27.29
26.61
25.30
23.75
22.34
21.21
20.18
18.84
16.79
13.95
10.66
7.58
5.42
4.59
4.96
5.92
6.64
6.39
4.75
1.65
-2.72
-8.02
-13.80
-19.42
-24.00
-26.54
-26.25
-22.85
-16.81
-9.18
-1.29
5.71
11.14
14.79
16.89
17.77
17.75
17.13
16.22
15.39
15.03
15.46
16.74
18.69
20.87
22.74
23.84
23.91
23.02
21.44
19.56
17.64
15.71
13.60
10.99
7.68
3.66
-0.80
-5.26
-9.27
-12.60
-15.27
-17.61
-20.08
-23.13
-27.08
-31.91
-37.22
-42.15
-45.59
-46.44
-43.99
-38.22
-29.79
-19.89
-9.90
-1.01
6.09
11.28
14.84
17.28
19.03
20.32
21.14
21.44
21.27
20.94
20.91
21.58
23.04
24.87
26.34
26.69
25.56
23.16
20.20
17.48
15.47
14.15
12.96
11.18
8.31
4.32
-0.34
-5.01
-9.07
-12.23
-14.63
-16.68
-18.89
-21.71
-25.38
-29.96
-35.35
-41.23
-47.07
-52.02
-55.07
-55.20
-51.79
-44.91
-35.37
-24.61
-14.15
-5.20
1.71
6.74
10.46
13.53
16.38
19.13
21.70
23.97
25.93
27.68
29.35
31.00
32.52
33.74
34.50
34.74
34.58
34.23
33.83
33.43
32.88
31.97
30.53
28.58
26.29
23.89
21.56
19.29
16.85
13.91
10.21
5.77
0.89
-3.94
-8.25
-11.86
-14.92
-17.90
-21.35
-25.71
-31.11
-37.26
-43.43
-48.52
-51.32
-50.84
-46.62
-39.00
-29.07
-18.40
-8.50
-0.44
5.41
9.32
11.91
13.82
15.52
17.23
19.06
21.05
23.26
25.71
28.39
31.20
33.96
36.42
38.42
39.83
40.58
40.64
39.93
38.36
35.88
32.52
28.44
23.95
19.41
15.12
11.24
7.70
4.35
0.98
-2.47
-5.93
-9.20
-12.11
-14.61
-16.85
-19.16
-21.94
-25.50
-29.94
-34.94
-39.85
-43.64
-45.20
-43.66
-38.70
-30.76
-20.98
-10.91
-2.00
4.79
9.22
11.63
12.72
13.17
13.45
13.83
14.39
15.21
16.28
17.60
19.01
20.34
21.41
22.15
22.65
23.04
23.42
23.66
23.48
22.55
20.68
17.96
14.70
11.35
8.24
5.49
2.99
0.54
-2.01
-4.70
-7.42
-10.11
-12.73
-15.35
-18.03
-20.84
-23.73
-26.74
-29.96
-33.61
-37.84
-42.44
-46.76
-49.63
-49.82
-46.51
-39.71
-30.39
-20.12
-10.55
-2.82
2.77
6.61
9.41
11.78
13.95
15.77
17.04
17.69
17.96
18.27
19.03
20.39
22.10
23.70
24.69
24.81
24.17
23.14
22.16
21.51
21.16
20.84
20.19
18.95
17.11
14.90
12.67
10.71
9.08
7.60
5.94
3.79
1.02
-2.20
-5.53
-8.55
-10.95
-12.72
-14.10
-15.55
-17.50
-20.31
-24.03
-28.49
-33.19
-37.43
-40.29
-40.86
-38.47
-32.96
-24.77
-14.95
-4.82
4.39
11.83
17.27
20.96
23.39
25.06
26.37
27.49
28.51
29.44
30.28
31.03
31.70
32.26
32.63
32.66
32.24
31.31
29.96
28.36
26.66
24.89
22.93
20.59
17.76
14.48
11.00
7.64
4.60
1.91
-0.61
-3.26
-6.24
-9.56
-13.02
-16.28
-19.06
-21.22
-22.85
-24.24
-25.74
-27.69
-30.31
-33.68
-37.66
-41.92
-45.76
-48.27
-48.49
-45.78
-40.08
-32.08
-23.01
-14.23
-6.75
-1.05
2.98
5.71
7.48
8.51
8.87
8.65
8.10
7.54
7.36
7.78
8.81
10.22
11.70
12.96
13.80
14.18
14.09
13.54
12.48
10.88
8.78
6.28
3.60
0.96
-1.52
-3.86
-6.19
-8.66
-11.37
-14.26
-17.23
-20.16
-23.03
-25.95
-29.10
-32.60
-36.45
-40.49
-44.25
-47.02
-47.91
-46.10
-41.20
-33.47
-23.91
-13.98
-5.12
1.76
6.45
9.32
10.97
11.85
12.21
12.13
11.76
11.42
11.54
12.39
13.98
15.94
17.71
18.84
19.09
18.58
17.66
16.72
16.00
15.48
14.99
14.19
12.88
11.02
8.77
6.42
4.21
2.29
0.62
-0.94
-2.59
-4.47
-6.67
-9.18
-11.89
-14.65
-17.27
-19.57
-21.46
-23.00
-24.41
-26.14
-28.68
-32.32
-36.96
-41.89
-45.90
-47.61
-46.04
-40.89
-32.82
-23.18
-13.50
-5.04
1.59
6.41
9.87
12.44
14.46
16.06
17.27
18.22
19.13
20.34
22.08
24.35
26.90
29.30
31.20
32.43
33.08
33.36
33.41
33.21
32.61
31.47
29.76
27.65
25.34
23.04
20.84
18.76
16.82
15.10
13.67
12.54
11.57
10.40
8.68
6.17
2.86
-0.98
-4.98
-8.78
-12.20
-15.29
-18.28
-21.50
-25.27
-29.82
-35.12
-40.85
-46.30
-50.48
-52.31
-50.98
-46.20
-38.38
-28.52
-18.00
-8.19
-0.05
5.97
9.99
12.51
14.13
15.37
16.51
17.59
18.57
19.47
20.36
21.42
22.79
24.42
26.09
27.41
28.05
27.85
26.93
25.56
24.06
22.57
21.06
19.29
17.05
14.28
11.14
7.96
5.02
2.42
0.05
-2.39
-5.17
-8.35
-11.71
-14.86
-17.46
-19.40
-20.95
-22.65
-25.14
-28.80
-33.54
-38.68
-43.04
-45.37
-44.66
-40.56
-33.50
-24.55
-15.08
-6.43
0.56
5.54
8.65
10.34
11.06
11.18
10.97
10.59
10.24
10.14
10.57
11.63
13.31
15.29
17.12
18.35
18.69
18.14
16.94
15.44
13.89
12.38
10.79
8.92
6.63
3.93
1.01
-1.87
-4.59
-7.19
-9.82
-12.66
-15.75
-18.88
-21.78
-24.23
-26.31
-28.42
-31.15
-35.01
-40.09
-45.88
-51.23
-54.73
-55.08
-51.68
-44.74
-35.33
-24.95
-15.00
-6.43
0.44
5.77
9.94
13.27
15.97
18.23
20.26
22.38
24.81
27.62
30.57
33.23
35.15
36.03
35.89
35.04
34.01
33.21
32.84
32.69
32.28
31.08
28.82
25.58
21.82
18.10
14.85
12.20
10.00
7.93
5.68
3.10
0.21
-2.84
-5.84
-8.66
-11.25
-13.69
-16.20
-19.07
-22.63
-27.18
-32.76
-39.07
-45.32
-50.32
-52.74
-51.57
-46.51
-38.25
-28.28
-18.38
-9.98
-3.70
0.73
4.15
7.47
11.22
15.37
19.51
23.15
26.00
28.12
29.77
31.26
32.78
34.41
36.04
37.58
38.93
39.98
40.64
40.82
40.45
39.50
37.97
35.86
33.20
30.01
26.36
22.38
18.22
13.98
9.73
5.50
1.33
-2.67
-6.34
-9.62
-12.48
-14.99
-17.20
-19.10
-20.63
-21.74
-22.50
-23.17
-24.13
-25.74
-28.24
-31.62
-35.61
-39.68
-43.06
-44.91
-44.42
-41.07
-34.84
-26.32
-16.59
-6.92
1.64
8.43
13.31
16.56
18.61
19.90
20.78
21.52
22.33
23.35
24.58
25.96
27.34
28.59
29.59
30.32
30.79
31.00
30.94
30.52
29.60
28.01
25.60
22.35
18.43
14.26
10.34
7.10
4.66
2.78
0.99
-1.14
-3.74
-6.60
-9.35
-11.71
-13.66
-15.48
-17.59
-20.34
-23.96
-28.41
-33.43
-38.47
-42.74
-45.34
-45.43
-42.59
-36.94
-29.20
-20.43
-11.68
-3.75
3.02
8.62
13.17
16.84
19.69
21.75
23.08
23.85
24.27
24.55
24.83
25.12
25.36
25.43
25.25
24.77
23.97
22.76
21.07
18.86
16.25
13.43
10.65
8.13
5.86
3.75
1.59
-0.77
-3.41
-6.36
-9.55
-12.93
-16.37
-19.72
-22.86
-25.81
-28.77
-32.11
-36.25
-41.36
-47.20
-52.99
-57.52
-59.50
-57.92
-52.51
-43.85
-33.30
-22.46
-12.77
-4.96
0.96
5.58
9.55
13.35
17.06
20.49
23.49
26.01
28.25
30.43
32.66
34.84
36.67
37.82
38.08
37.48
36.28
34.85
33.50
32.33
31.24
29.91
28.05
25.56
22.59
19.53
16.77
14.54
12.77
11.13
9.18
6.62
3.39
-0.31
-4.09
-7.54
-10.40
-12.66
-14.53
-16.45
-18.85
-22.10
-26.42
-31.73
-37.71
-43.65
-48.60
-51.42
-51.10
-47.13
-39.78
-30.10
-19.61
-9.77
-1.46
5.19
10.60
15.39
19.90
24.13
27.80
30.68
32.71
34.12
35.21
36.19
37.07
37.70
37.91
37.66
37.06
36.34
35.72
35.26
34.78
33.94
32.35
29.77
26.27
22.23
18.21
14.76
12.23
10.59
9.50
8.45
6.92
4.57
1.35
-2.50
-6.59
-10.47
-13.87
-16.73
-19.19
-21.47
-23.81
-26.40
-29.48
-33.20
-37.57
-42.21
-46.25
-48.51
-47.88
-43.82
-36.71
-27.71
-18.40
-10.16
-3.71
0.98
4.36
7.01
9.27
11.20
12.65
13.55
13.96
14.13
14.41
15.04
15.99
16.99
17.67
17.77
17.29
16.56
15.95
15.67
15.55
15.15
14.00
11.95
9.29
6.61
4.44
2.92
1.76
0.38
-1.65
-4.37
-7.41
-10.22
-12.42
-14.02
-15.41
-17.10
-19.49
-22.69
-26.54
-30.71
-34.78
-38.23
-40.41
-40.60
-38.22
-33.06
-25.60
-16.86
-8.24
-0.97
4.22
7.30
8.82
9.57
10.18
11.02
12.07
13.14
14.04
14.71
15.24
15.78
16.45
17.25
18.03
18.59
18.80
18.62
18.12
17.38
16.37
14.94
12.92
10.27
7.19
4.10
1.43
-0.56
-1.93
-3.02
-4.31
-6.14
-8.64
-11.66
-14.86
-17.91
-20.66
-23.11
-25.53
-28.31
-31.83
-36.25
-41.29
-46.15
-49.69
-50.70
-48.36
-42.58
-34.10
-24.26
-14.56
-6.15
0.45
5.39
9.23
12.57
15.75
18.75
21.31
23.20
24.40
25.13
25.74
26.52
27.51
28.52
29.25
29.49
29.23
28.66
28.06
27.62
27.30
26.82
25.81
24.00
21.34
18.07
14.67
11.62
9.24
7.56
6.25
4.81
2.79
-0.03
-3.55
-7.36
-11.04
-14.29
-17.11
-19.76
-22.53
-25.69
-29.31
-33.39
-37.87
-42.56
-47.11
-50.79
-52.63
-51.67
-47.39
-40.03
-30.61
-20.63
-11.53
-4.16
1.27
5.18
8.20
10.87
13.47
16.06
18.58
20.97
23.20
25.27
27.15
28.73
29.90
30.54
30.62
30.16
29.33
28.35
27.44
26.71
26.12
25.47
24.52
23.06
21.02
18.53
15.81
13.17
10.81
8.85
7.22
5.77
4.28
2.56
0.56
-1.67
-3.98
-6.16
-8.09
-9.73
-11.23
-12.79
-14.64
-16.99
-19.94
-23.60
-27.90
-32.56
-36.96
-40.23
-41.39
-39.75
-35.20
-28.31
-20.17
-12.05
-5.00
0.46
4.27
6.73
8.29
9.30
10.04
10.69
11.38
12.23
13.29
14.57
15.97
17.39
18.67
19.72
20.43
20.80
20.75
20.21
19.13
17.52
15.50
13.31
11.25
9.49
7.95
6.36
4.42
1.99
-0.77
-3.44
-5.67
-7.33
-8.66
-10.05
-11.90
-14.39
-17.47
-21.06
-25.13
-29.58
-34.12
-38.04
-40.30
-39.85
-36.14
-29.45
-20.89
-11.95
-4.00
2.14
6.39
9.10
10.82
12.02
12.94
13.67
14.22
14.58
14.78
14.88
14.96
15.10
15.34
15.72
16.17
16.58
16.79
16.65
16.00
14.70
12.77
10.28
7.53
4.85
2.56
0.78
-0.65
-2.09
-4.00
-6.68
-10.15
-14.12
-18.13
-21.77
-24.75
-27.12
-29.12
-31.21
-33.88
-37.55
-42.27
-47.68
-52.87
-56.63
-57.74
-55.41
-49.58
-40.97
-30.88
-20.75
-11.70
-4.35
1.29
5.54
8.88
11.68
14.15
16.32
18.11
19.44
20.26
20.63
20.65
20.50
20.34
20.27
20.33
20.48
20.64
20.75
20.74
20.47
19.75
18.40
16.29
13.51
10.33
7.15
4.27
1.81
-0.38
-2.58
-5.02
-7.72
-10.51
-13.12
-15.40
-17.43
-19.54
-22.23
-25.93
-30.74
-36.27
-41.58
-45.40
-46.47
-44.01
-38.01
-29.28
-19.17
-9.13
-0.23
7.00
12.60
16.92
20.36
23.24
25.76
28.02
30.09
31.99
33.73
35.21
36.34
37.01
37.20
36.97
36.47
35.87
35.28
34.70
34.01
33.05
31.66
29.75
27.41
24.79
22.09
19.42
16.80
14.10
11.15
7.83
4.17
0.35
-3.38
-6.83
-9.96
-12.97
-16.21
-20.00
-24.60
-30.02
-35.93
-41.69
-46.36
-48.84
-48.26
-44.25
-37.18
-28.15
-18.66
-10.10
-3.34
1.42
4.54
6.59
8.05
9.13
9.85
10.21
10.30
10.38
10.73
11.58
12.93
14.51
15.89
16.58
16.30
15.05
13.11
10.89
8.73
6.74
4.73
2.38
-0.57
-4.15
-8.10
-12.01
-15.53
-18.63
-21.59
-24.84
-28.68
-33.08
-37.64
-41.80
-45.02
-46.93
-47.27
-45.79
-42.18
-36.20
-27.97
-18.11
-7.69
2.03
10.09
16.15
20.45
23.55
25.98
27.96
29.49
30.56
31.24
31.81
32.54
33.57
34.78
35.85
36.41
36.23
35.23
33.58
31.53
29.34
27.16
24.98
22.60
19.75
16.20
11.90
7.07
2.14
-2.42
-6.30
-9.53
-12.46
-15.67
-19.72
-24.95
-31.26
-38.01
-44.12
-48.29
-49.47
-47.10
-41.41
-33.29
-24.04
-14.90
-6.78
-0.03
5.42
9.89
13.70
17.02
19.95
22.50
24.76
26.77
28.59
30.22
31.57
32.57
33.21
33.58
33.85
34.20
34.71
35.39
36.09
36.63
36.82
36.49
35.57
34.11
32.24
30.19
28.16
26.32
24.68
23.22
21.84
20.42
18.86
17.11
15.20
13.22
11.38
9.84
8.74
8.01
7.34
6.38
4.79
2.49
-0.35
-3.38
-6.21
-8.62
-10.65
-12.55
-14.63
-17.19
-20.35
-24.04
-28.01
-31.92
-35.46
-38.47
-41.08
-43.64
-46.70
-50.76
-56.04
-62.30
-68.75
-74.14
-77.02
-76.20
-71.10
-62.04
-50.18
-37.17
-24.69
-13.93
-5.37
1.16
6.27
10.62
14.73
18.85
23.01
27.08
30.85
34.09
36.62
38.31
39.21
39.43
39.20
38.76
38.36
38.17
38.24
38.49
38.69
38.59
37.97
36.76
35.09
33.17
31.25
29.52
28.04
26.77
25.67
24.67
23.67
22.61
21.40
20.03
18.49
16.85
15.18
13.51
11.83
10.06
8.08
5.76
3.00
-0.18
-3.60
-6.95
-9.88
-12.13
-13.74
-14.94
-16.14
-17.70
-19.72
-22.11
-24.61
-27.03
-29.31
-31.64
-34.21
-37.24
-40.85
-45.13
-50.06
-55.40
-60.59
-64.63
-66.34
-64.59
-58.90
-49.65
-38.10
-26.03
-15.13
-6.46
-0.28
3.84
6.63
8.75
10.53
12.06
13.30
14.29
15.25
16.47
18.09
20.00
21.86
23.27
23.99
24.06
23.77
23.52
23.54
23.84
24.08
23.79
22.53
20.12
16.72
12.80
9.01
5.92
3.82
2.60
1.80
0.81
-0.82
-3.25
-6.29
-9.52
-12.52
-15.02
-16.99
-18.63
-20.25
-22.23
-24.87
-28.32
-32.43
-36.69
-40.20
-41.89
-40.82
-36.54
-29.31
-20.03
-10.02
-0.51
7.58
13.86
18.36
21.29
22.88
23.33
22.92
22.09
21.38
21.32
22.12
23.63
25.35
26.70
27.30
27.12
26.45
25.70
25.09
24.57
23.81
22.44
20.22
17.20
13.71
10.17
6.99
4.38
2.32
0.59
-1.12
-3.17
-5.79
-9.00
-12.60
-16.25
-19.58
-22.44
-24.91
-27.40
-30.46
-34.51
-39.68
-45.51
-51.05
-55.01
-56.17
-53.77
-47.79
-38.99
-28.70
-18.43
-9.41
-2.32
2.79
6.34
8.92
11.10
13.21
15.35
17.47
19.49
21.37
23.14
24.82
26.36
27.62
28.42
28.67
28.41
27.82
27.09
26.33
25.50
24.50
23.22
21.66
19.88
17.98
16.01
13.95
11.82
9.72
7.77
6.10
4.72
3.45
2.02
0.11
-2.48
-5.76
-9.57
-13.61
-17.57
-21.26
-24.64
-27.88
-31.21
-34.92
-39.19
-44.05
-49.32
-54.45
-58.60
-60.66
-59.60
-54.82
-46.50
-35.58
-23.55
-11.96
-1.93
6.04
12.07
16.65
20.34
23.55
26.56
29.44
32.20
34.80
37.14
39.10
40.53
41.31
41.33
40.62
39.38
37.95
36.71
35.97
35.79
35.92
35.90
35.30
33.87
31.68
29.05
26.41
24.07
22.15
20.53
18.94
17.08
14.75
11.93
8.76
5.46
2.28
-0.67
-3.39
-6.10
-9.03
-12.34
-15.96
-19.60
-22.83
-25.38
-27.19
-28.50
-29.73
-31.28
-33.40
-36.21
-39.73
-43.84
-48.12
-51.81
-53.75
-52.77
-48.09
-39.87
-29.26
-18.18
-8.57
-1.75
1.98
3.27
3.23
2.89
2.83
3.14
3.64
4.25
5.09
6.49
8.67
11.57
14.72
17.43
19.15
19.72
19.50
19.12
19.19
19.96
21.15
22.13
22.21
21.00
18.65
15.67
12.82
10.60
9.14
8.14
7.08
5.51
3.30
0.60
-2.26
-4.96
-7.33
-9.46
-11.51
-13.73
-16.35
-19.65
-23.83
-28.95
-34.72
-40.39
-44.81
-46.72
-45.15
-39.86
-31.42
-21.14
-10.59
-1.21
6.15
11.37
14.86
17.25
19.11
20.71
22.08
23.14
23.92
24.59
25.41
26.63
28.26
30.12
31.88
33.19
33.88
33.92
33.42
32.54
31.39
30.02
28.39
26.42
24.08
21.36
18.38
15.35
12.46
9.90
7.74
5.86
4.02
1.97
-0.54
-3.61
-7.22
-11.31
-15.68
-20.11
-24.32
-28.02
-31.03
-33.38
-35.35
-37.42
-40.15
-43.93
-48.78
-54.18
-59.16
-62.42
-62.79
-59.58
-52.84
-43.39
-32.56
-21.83
-12.37
-4.77
0.86
4.87
7.77
10.04
12.08
14.13
16.32
18.66
21.02
23.19
24.93
26.11
26.75
27.08
27.42
28.07
29.08
30.24
31.16
31.47
30.99
29.83
28.32
26.91
25.86
25.19
24.68
24.01
22.87
21.08
18.62
15.63
12.34
8.97
5.72
2.66
-0.26
-3.16
-6.13
-9.19
-12.21
-15.04
-17.49
-19.59
-21.56
-23.77
-26.65
-30.48
-35.34
-40.93
-46.63
-51.47
-54.27
-53.97
-49.89
-42.07
-31.39
-19.42
-7.91
1.63
8.43
12.52
14.52
15.29
15.60
15.90
16.38
17.11
18.13
19.50
21.18
23.06
24.86
26.25
27.01
27.17
26.92
26.59
26.36
26.20
25.83
24.85
22.95
20.11
16.61
12.98
9.73
7.13
5.12
3.35
1.38
-1.12
-4.23
-7.76
-11.41
-14.87
-17.95
-20.63
-23.05
-25.48
-28.31
-31.85
-36.29
-41.40
-46.48
-50.47
-52.16
-50.64
-45.65
-37.68
-27.81
-17.37
-7.56
0.83
7.37
12.02
14.88
16.19
16.28
15.66
14.89
14.51
14.83
15.88
17.40
19.00
20.37
21.38
22.05
22.49
22.77
22.80
22.42
21.45
19.80
17.60
15.10
12.56
10.18
7.94
5.68
3.17
0.25
-3.07
-6.61
-10.12
-13.41
-16.48
-19.49
-22.71
-26.36
-30.55
-35.27
-40.36
-45.50
-50.19
-53.66
-54.97
-53.22
-47.90
-39.26
-28.30
-16.62
-5.89
2.63
8.54
12.22
14.55
16.48
18.57
20.93
23.24
25.12
26.42
27.28
28.12
29.23
30.67
32.09
32.99
33.00
32.12
30.71
29.26
28.04
26.90
25.42
23.08
19.73
15.72
11.70
8.39
6.11
4.69
3.51
1.90
-0.62
-4.09
-8.17
-12.26
-15.86
-18.76
-21.08
-23.24
-25.76
-29.13
-33.67
-39.42
-46.03
-52.69
-58.18
-61.09
-60.27
-55.22
-46.35
-34.87
-22.49
-10.83
-0.98
6.64
12.28
16.50
19.87
22.84
25.62
28.29
30.85
33.22
35.32
37.02
38.25
39.00
39.33
39.36
39.18
38.85
38.33
37.53
36.38
34.86
32.99
30.80
28.31
25.52
22.43
19.16
15.88
12.85
10.29
8.26
6.67
5.18
3.37
0.85
-2.54
-6.63
-11.00
-15.10
-18.56
-21.29
-23.57
-25.83
-28.53
-31.93
-36.09
-40.89
-45.97
-50.80
-54.55
-56.20
-54.78
-49.71
-41.13
-30.03
-18.00
-6.75
2.44
9.11
13.54
16.46
18.63
20.45
21.99
23.13
23.81
24.21
24.66
25.49
26.77
28.28
29.60
30.29
30.20
29.45
28.37
27.29
26.33
25.36
24.09
22.25
19.74
16.67
13.34
10.01
6.86
3.92
1.02
-2.01
-5.29
-8.79
-12.29
-15.50
-18.22
-20.44
-22.41
-24.64
-27.60
-31.54
-36.23
-40.96
-44.66
-46.20
-44.78
-40.12
-32.61
-23.15
-12.99
-3.30
5.04
11.64
16.56
20.07
22.51
24.04
24.75
24.69
24.03
23.11
22.31
21.96
22.15
22.73
23.43
24.02
24.38
24.50
24.40
23.99
23.06
21.42
19.05
16.15
13.10
10.32
7.94
5.78
3.42
0.44
-3.30
-7.55
-11.81
-15.56
-18.58
-21.06
-23.56
-26.85
-31.54
-37.88
-45.53
-53.51
-60.42
-64.65
-64.97
-60.84
-52.67
-41.70
-29.60
-17.97
-7.93
0.03
5.87
9.89
12.45
13.93
14.77
15.42
16.30
17.68
19.61
21.91
24.26
26.39
28.10
29.34
30.15
30.56
30.56
30.06
28.93
27.05
24.39
21.11
17.52
14.03
11.00
8.61
6.76
5.17
3.43
1.21
-1.65
-5.10
-8.94
-12.93
-16.82
-20.51
-24.01
-27.44
-31.10
-35.28
-40.22
-45.83
-51.46
-55.94
-57.84
-55.95
-49.84
-40.17
-28.45
-16.53
-5.92
2.62
9.16
14.19
18.23
21.50
23.99
25.66
26.70
27.52
28.58
30.14
32.12
34.15
35.79
36.76
37.03
36.81
36.37
35.97
35.70
35.51
35.19
34.45
33.00
30.61
27.28
23.28
19.07
15.13
11.78
8.95
6.27
3.23
-0.50
-4.89
-9.55
-13.89
-17.45
-20.10
-22.17
-24.30
-27.17
-31.20
-36.40
-42.28
-47.99
-52.48
-54.72
-53.96
-49.89
-42.75
-33.31
-22.71
-12.17
-2.71
5.06
10.95
15.06
17.66
19.12
19.86
20.33
20.92
21.92
23.33
24.95
26.48
27.58
28.10
28.06
27.60
26.88
25.99
24.91
23.55
21.86
19.84
17.58
15.20
12.80
10.44
8.07
5.64
3.09
0.45
-2.28
-5.06
-7.89
-10.81
-13.79
-16.82
-19.91
-23.19
-26.92
-31.30
-36.26
-41.26
-45.30
-47.16
-45.84
-40.92
-32.81
-22.57
-11.61
-1.24
7.58
14.41
19.24
22.33
24.02
24.61
24.40
23.64
22.63
21.68
21.08
21.05
21.63
22.69
23.93
25.01
25.58
25.49
24.72
23.43
21.79
19.95
17.96
15.75
13.23
10.33
7.06
3.52
-0.14
-3.77
-7.33
-10.83
-14.41
-18.23
-22.47
-27.26
-32.68
-38.80
-45.56
-52.69
-59.49
-64.86
-67.45
-66.18
-60.69
-51.58
-40.31
-28.60
-17.88
-8.85
-1.56
4.34
9.17
13.03
15.88
17.72
18.75
19.37
20.00
20.90
22.15
23.60
24.98
26.06
26.69
26.83
26.50
25.84
24.89
23.69
22.21
20.45
18.43
16.27
14.08
11.88
9.58
6.94
3.71
-0.22
-4.73
-9.47
-14.00
-17.97
-21.24
-23.93
-26.36
-29.03
-32.47
-37.13
-43.15
-50.20
-57.27
-62.85
-65.25
-63.16
-56.20
-45.13
-31.66
-17.84
-5.50
4.33
11.47
16.38
19.76
22.25
24.27
26.12
28.06
30.39
33.39
37.11
41.28
45.40
48.92
51.53
53.37
54.87
56.55
58.64
60.98
63.10
64.52
65.05
64.81
64.16
63.39
62.51
61.36
59.76
57.74
55.64
53.95
53.06
53.08
53.71
54.37
54.50
53.78
52.26
50.35
48.54
47.15
46.17
45.20
43.67
40.93
36.53
30.22
22.07
12.47
2.11
-8.01
-16.73
-23.04
-26.36
-26.71
-24.77
-21.52
-18.02
-14.98
-12.68
-11.03
-9.81
-8.87
-8.23
-8.02
-8.36
-9.10
-9.89
-10.17
-9.49
-7.68
-4.96
-1.91
0.79
2.55
3.08
2.50
1.28
-0.10
-1.32
-2.44
-3.91
-6.29
-9.87
-14.51
-19.56
-24.24
-28.03
-30.97
-33.58
-36.56
-40.56
-45.93
-52.72
-61.00
-70.82
-82.31
-95.09
-107.88
-118.81
-126.00
-128.29
-125.50
-118.29
-107.51
-93.89
-77.54
-58.04
-34.90
-8.58
19.58
47.47
72.86
94.12
110.10
120.69
126.68
129.04
127.65
122.21
113.17
102.46
93.64
88.78
88.05
89.56
90.00
84.92
72.43
54.44
35.31
19.61
5.92
-11.11
-37.10
-74.88
-124.75
-181.92
-237.59
-281.67
-304.30
-303.30
-280.62
-239.97
-187.05
-132.42
-87.37
-60.56
-55.23
-66.72
-91.08
-122.85
-155.54
-161.10
-121.23
-37.30
69.16
154.95
215.94
256.23
279.47
293.63
301.06
299.59
287.51
265.99
239.53
216.33
198.61
185.92
177.24
170.76
162.75
150.59
134.21
116.32
102.61
94.22
90.35
89.76
90.68
90.28
86.58
79.30
70.05
62.34
56.92
53.37
51.04
49.00
45.94
41.08
34.54
27.38
21.61
17.84
16.08
16.14
17.64
20.02
22.87
26.06
29.79
34.55
40.35
47.01
54.28
61.85
69.45
76.86
83.87
90.26
95.84
100.37
103.64
105.46
105.63
104.02
100.52
95.13
87.91
79.03
68.67
57.10
44.60
31.50
18.14
4.89
-7.89
-19.87
-30.75
-40.36
-48.63
-55.65
-61.57
-66.58
-70.85
-74.53
-77.67
-80.33
-82.57
-84.49
-86.26
-88.03
-89.93
-92.03
-94.33
-96.82
-99.49
-102.37
-105.58
-109.24
-113.49
-118.54
-124.67
-132.17
-141.34
-152.14
-164.08
-176.16
-187.05
-195.46
-200.40
-201.60
-199.47
-195.02
-189.48
-183.99
-179.41
-176.24
-174.74
-174.83
-176.15
-177.96
-179.26
-178.96
-176.15
-170.39
-161.80
-151.06
-139.08
-126.78
-114.83
-103.68
-93.51
-84.45
-76.56
-69.74
-63.91
-58.90
-54.59
-50.83
-47.62
-44.85
-42.51
-40.49
-38.83
-37.42
-36.00
-34.04
-30.78
-25.38
-17.34
-6.75
5.48
17.95
29.36
38.96
46.91
54.00
61.03
67.50
72.32
74.70
74.60
72.64
70.02
68.14
67.89
69.16
70.02
68.58
64.28
58.16
52.07
47.80
46.28
47.27
49.35
48.88
43.45
33.21
20.22
6.43
-7.32
-21.06
-35.23
-50.05
-70.27
-97.55
-128.15
-155.34
-174.05
-182.67
-182.26
-175.28
-164.65
-163.59
-179.37
-207.80
-237.33
-258.42
-267.63
-266.30
-258.20
-247.68
-255.23
-291.92
-351.00
-414.74
-469.06
-509.09
-536.27
-554.26
-566.61
-597.81
-661.09
-748.33
-838.82
-917.82
-982.63
-1038.02
-1090.12
-1004.08
-730.78
-338.56
47.95
351.36
560.61
696.98
786.22
847.87
893.17
904.82
872.27
805.39
728.08
660.39
611.19
580.34
563.57
555.51
534.81
490.15
428.29
366.86
319.13
288.73
272.60
266.01
265.25
257.65
236.82
206.81
177.79
155.95
143.51
138.56
138.34
140.60
138.79
129.43
114.31
98.48
85.60
76.54
70.15
65.01
60.21
53.51
43.90
32.09
19.97
8.94
-0.66
-9.34
-17.89
-27.16
-38.08
-51.49
-68.96
-89.75
-111.77
-132.66
-150.63
-164.67
-174.77
-181.08
-183.74
-183.00
-179.19
-172.43
-163.27
-152.52
-140.88
-128.69
-115.66
-100.81
-82.26
-62.47
-42.36
-22.67
-3.97
13.34
29.12
43.43
56.36
67.81
77.46
85.30
90.96
93.97
94.00
90.99
85.18
76.95
66.58
54.21
40.31
25.19
9.35
-6.42
-20.95
-32.90
-41.13
-45.08
-44.99
-41.45
-35.45
-27.87
-19.03
-8.59
4.28
20.40
40.11
62.88
87.76
113.41
138.69
163.05
186.63
210.29
235.55
264.52
299.36
341.18
388.51
436.48
477.24
502.16
505.00
484.36
444.15
391.87
335.34
279.91
227.35
176.65
125.95
74.33
22.39
-27.98
-74.44
-114.62
-146.14
-166.71
-174.51
-169.22
-152.63
-128.83
-103.37
-81.55
-66.77
-59.56
-57.67
-57.32
-54.77
-47.72
-35.77
-20.07
-2.34
15.77
33.10
48.57
60.96
68.75
70.37
64.80
52.08
33.39
10.94
-12.47
-33.80
-50.11
-59.04
-59.32
-51.23
-36.64
-18.55
-0.37
14.92
25.29
29.74
28.17
21.17
9.83
-4.41
-19.96
-35.41
-49.96
-63.66
-77.36
-92.18
-108.64
-125.80
-140.94
-150.14
-149.77
-138.26
-117.21
-91.24
-66.37
-47.84
-38.25
-37.15
-41.74
-48.40
-54.00
-56.61
-55.57
-51.18
-44.50
-36.97
-30.05
-24.73
-21.27
-19.39
-18.75
-19.37
-21.72
-26.31
-33.21
-41.82
-51.17
-60.54
-69.81
-79.44
-89.88
-101.04
-112.09
-121.88
-129.58
-135.09
-139.02
-142.17
-145.03
-147.62
-149.74
-151.37
-152.93
-155.14
-158.70
-163.89
-170.44
-177.51
-183.77
-187.54
-186.90
-180.11
-166.23
-145.53
-119.57
-90.81
-61.62
-33.59
-7.29
17.38
40.47
61.44
79.20
92.63
101.22
105.43
106.40
105.43
103.38
100.45
96.40
90.89
83.86
75.44
65.82
55.10
43.39
31.27
20.03
11.61
7.98
10.09
17.11
26.11
32.72
32.45
22.14
1.08
-28.58
-62.44
-95.09
-121.55
-138.65
-145.64
-144.09
-137.18
-128.54
-121.42
-118.05
-119.64
-126.60
-138.85
-155.90
-176.89
-200.43
-224.70
-247.63
-267.26
-282.07
-291.07
-293.84
-290.32
-280.63
-264.88
-243.12
-215.42
-181.97
-143.30
-100.44
-54.97
-8.86
35.81
77.30
114.62
147.77
177.70
205.86
233.71
262.09
291.00
319.71
347.16
372.57
395.84
417.82
440.23
465.47
496.18
534.26
579.67
629.30
676.73
713.43
731.19
724.81
693.99
643.34
580.68
514.38
451.07
394.53
345.86
304.48
269.04
238.02
209.71
182.20
153.51
121.98
86.73
48.03
7.38
-33.02
-70.98
-105.19
-135.90
-164.96
-195.33
-230.44
-273.53
-326.80
-390.62
-462.49
-536.59
-604.34
-656.45
-685.83
-689.97
-671.83
-638.29
-597.26
-554.75
-513.54
-473.68
-434.31
-395.29
-357.58
-322.38
-289.86
-258.64
-226.67
-192.71
-157.51
-123.62
-94.11
-70.80
-52.99
-37.60
-20.40
2.34
32.65
70.49
114.18
161.35
209.62
257.01
302.30
345.03
385.71
425.95
468.28
515.28
568.23
625.73
683.08
733.06
767.97
782.38
775.12
749.58
712.22
670.02
628.16
589.09
552.86
518.51
485.12
452.33
420.08
388.20
356.14
323.10
288.28
251.05
211.13
168.82
125.02
81.27
39.53
1.73
-30.76
-57.56
-79.34
-97.49
-113.64
-129.37
-146.03
-164.73
-185.81
-208.10
-228.35
-241.66
-243.16
-230.43
-205.42
-174.44
-146.04
-127.69
-123.03
-131.08
-147.81
-168.71
-191.08
-214.55
-240.10
-268.17
-297.35
-324.60
-346.71
-362.25
-372.76
-382.64
-397.27
-420.67
-453.40
-491.94
-529.82
-559.88
-576.65
-577.77
-564.00
-538.14
-503.53
-463.01
-418.46
-371.07
-321.68
-271.08
-220.16
-169.85
-120.88
-73.73
-28.67
13.85
53.03
87.82
117.45
142.17
163.73
185.14
209.58
238.88
272.26
305.76
332.94
346.30
339.26
308.05
253.00
179.10
95.37
13.05
-56.73
-105.60
-129.97
-131.68
-117.44
-97.39
-82.98
-84.52
-108.51
-155.28
-218.30
-285.56
-343.27
-380.41
-392.20
-380.86
-353.48
-318.26
-281.26
-245.29
-210.83
-177.84
-146.97
-119.33
-95.31
-73.69
-51.77
-26.67
3.02
36.41
70.85
102.96
130.49
153.23
173.07
193.08
216.51
245.80
281.85
323.44
366.95
406.53
435.22
446.79
437.83
409.00
364.72
311.12
253.35
193.68
131.57
65.48
-4.79
-76.89
-146.44
-208.76
-260.77
-301.53
-331.52
-351.35
-360.90
-359.66
-347.55
-326.10
-298.68
-269.71
-243.37
-222.25
-206.78
-195.40
-185.41
-174.12
-159.71
-141.73
-121.00
-98.99
-77.13
-56.15
-36.05
-16.24
3.98
25.04
46.88
68.89
90.03
108.94
124.16
134.51
139.19
137.90
130.75
118.15
100.78
79.82
57.16
35.55
18.21
8.11
7.09
15.15
30.37
49.52
69.03
85.96
98.68
106.89
111.17
112.46
111.55
108.93
104.90
99.79
94.02
88.10
82.52
77.60
73.48
70.12
67.37
65.10
63.14
61.33
59.39
56.97
53.56
48.71
42.17
33.99
24.58
14.49
4.23
-6.00
-16.36
-27.31
-39.34
-52.68
-67.16
-82.01
-95.89
-106.88
-112.81
-111.64
-102.10
-84.14
-59.16
-29.63
1.62
32.16
60.50
86.09
108.97
129.33
147.23
162.70
175.97
187.71
198.89
210.41
222.67
235.37
247.71
258.92
268.60
276.94
284.41
291.34
297.56
302.52
305.54
306.32
305.08
302.30
298.27
292.67
284.66
273.37
258.47
240.44
220.30
199.11
177.53
156.08
135.71
118.44
107.05
104.02
109.95
122.56
137.01
147.48
149.37
140.90
123.36
100.09
74.80
50.26
27.75
7.24
-12.03
-31.24
-51.79
-75.16
-102.60
-134.59
-170.30
-207.13
-240.81
-266.33
-279.68
-279.65
-269.01
-254.16
-243.29
-243.48
-257.93
-284.44
-316.06
-343.61
-359.01
-358.11
-341.87
-315.69
-287.29
-264.29
-252.17
-253.16
-266.15
-287.34
-311.47
-333.09
-347.73
-352.63
-347.17
-332.76
-312.23
-288.91
-265.84
-245.21
-228.11
-214.53
-203.51
-193.42
-182.34
-168.55
-151.08
-130.08
-106.81
-83.14
-60.89
-41.09
-23.71
-7.73
8.29
25.57
44.54
64.70
84.99
104.21
121.71
137.60
152.74
168.38
185.87
206.39
230.75
259.04
290.17
321.55
349.31
369.19
377.92
374.42
360.14
338.43
313.14
287.31
262.57
239.43
218.09
199.08
183.29
171.43
163.45
158.26
154.08
149.26
142.84
134.91
126.34
118.25
111.38
105.86
101.27
96.97
92.50
87.78
83.09
78.81
75.17
72.11
69.35
66.50
63.26
59.41
54.85
49.61
43.88
38.09
32.90
29.02
26.89
26.47
27.11
27.68
26.88
23.71
17.77
9.51
0.09
-8.83
-15.64
-19.09
-18.62
-14.35
-6.86
2.96
14.19
25.89
37.18
47.40
56.27
64.07
71.51
79.40
88.28
98.11
108.42
118.69
128.74
138.73
148.79
158.49
166.43
170.49
168.54
159.40
143.42
122.56
99.60
77.13
56.70
38.36
20.96
2.68
-18.36
-43.89
-75.29
-113.23
-156.77
-202.40
-243.86
-273.23
-283.41
-270.78
-236.87
-187.85
-132.16
-77.48
-28.32
14.33
51.88
86.28
118.67
149.14
177.24
202.49
224.61
243.15
257.18
265.30
266.10
258.74
243.49
221.80
195.96
168.40
140.98
114.59
88.90
62.65
34.24
2.55
-32.07
-67.25
-98.85
-122.11
-133.62
-133.03
-123.63
-111.37
-102.42
-100.63
-106.16
-115.98
-125.80
-132.35
-134.69
-134.05
-132.48
-131.55
-131.66
-132.38
-133.20
-134.09
-135.45
-137.64
-140.45
-143.02
-144.17
-142.98
-139.24
-133.50
-126.85
-120.53
-115.51
-112.30
-110.84
-110.68
-111.07
-111.34
-111.05
-110.20
-109.23
-108.84
-109.71
-112.07
-115.46
-118.68
-120.10
-118.17
-112.04
-101.94
-89.18
-75.71
-63.38
-53.38
-45.95
-40.59
-36.57
-33.41
-31.13
-30.05
-30.49
-32.33
-35.02
-37.72
-39.71
-40.64
-40.61
-39.91
-38.84
-37.45
-35.63
-33.25
-30.30
-27.09
-24.00
-21.45
-19.69
-18.80
-18.71
-19.29
-20.36
-21.75
-23.30
-24.93
-26.53
-28.00
-29.10
-29.44
-28.48
-25.76
-21.02
-14.38
-6.38
2.10
10.02
16.37
20.39
21.75
20.75
18.28
15.78
14.72
16.08
19.75
24.27
26.90
24.24
13.17
-8.08
-39.03
-76.68
-115.90
-150.78
-176.15
-189.13
-189.63
-179.94
-163.50
-143.59
-122.64
-102.29
-83.97
-69.28
-60.04
-57.58
-62.01
-71.90
-84.48
-96.37
-104.35
-105.92
-99.69
-85.45
-64.27
-38.46
-11.21
14.02
34.27
47.67
53.67
52.95
47.07
38.12
28.28
19.44
12.75
8.32
5.21
1.89
-3.07
-10.28
-19.32
-29.03
-38.18
-46.20
-53.46
-60.96
-69.84
-80.78
-93.97
-109.08
-125.51
-142.53
-159.20
-174.38
-187.05
-196.54
-202.71
-205.85
-206.06
-202.75
-194.53
-179.52
-156.10
-123.53
-82.56
-35.50
14.01
61.87
104.63
140.41
169.27
192.60
211.85
227.40
238.17
242.51
239.57
230.45
218.22
206.89
199.73
198.45
203.41
214.78
233.59
261.68
300.35
348.36
400.93
450.07
486.81
504.24
499.81
476.04
439.03
395.92
352.28
310.87
271.85
234.09
196.48
158.48
119.92
80.72
40.88
1.01
-37.19
-70.85
-96.66
-112.14
-116.84
-112.72
-103.62
-93.87
-86.88
-84.15
-85.30
-88.79
-92.98
-96.94
-100.62
-104.54
-109.21
-114.70
-120.66
-126.65
-132.53
-138.53
-145.10
-152.37
-159.87
-166.58
-171.38
-173.63
-173.60
-172.39
-171.52
-172.20
-174.92
-179.30
-184.39
-189.13
-192.77
-195.14
-196.59
-197.87
-199.94
-203.75
-209.93
-218.48
-228.45
-237.80
-243.69
-243.05
-233.55
-214.42
-186.85
-153.87
-119.38
-87.17
-59.88
-38.54
-22.68
-11.00
-2.08
5.09
10.87
15.25
18.05
19.26
19.00
17.49
14.89
11.33
6.98
2.09
-2.98
-7.99
-12.94
-18.16
-24.13
-31.20
-39.31
-47.88
-56.02
-62.81
-67.76
-70.90
-72.78
-74.14
-75.55
-77.17
-78.66
-79.41
-78.84
-76.73
-73.50
-70.15
-68.17
-69.26
-74.79
-85.18
-99.29
-114.21
-125.60
-128.78
-120.17
-98.65
-66.06
-26.85
13.35
49.34
77.72
97.38
109.27
115.54
118.55
120.22
121.67
123.27
124.92
126.31
127.24
127.68
127.69
127.36
126.74
125.80
124.52
122.90
121.00
118.88
116.52
113.74
110.21
105.55
99.41
91.67
82.52
72.42
62.09
52.20
43.27
35.45
28.50
21.89
14.97
7.11
-2.21
-13.30
-26.12
-40.02
-53.49
-64.17
-69.31
-66.62
-55.18
-35.94
-11.61
14.17
38.02
57.70
72.50
82.89
89.89
94.50
97.36
98.83
99.21
98.87
98.22
97.58
97.10
96.67
96.09
95.22
94.07
92.85
91.81
91.06
90.35
89.17
86.86
82.89
77.21
70.26
62.84
55.76
49.54
44.17
39.22
34.09
28.33
21.88
15.06
8.41
2.45
-2.52
-6.60
-10.32
-14.57
-20.36
-28.43
-38.79
-50.37
-60.93
-67.62
-67.82
-60.14
-45.14
-25.30
-4.44
13.37
24.80
27.86
22.10
8.33
-11.85
-36.40
-63.19
-90.06
-114.89
-135.64
-150.45
-157.82
-156.71
-146.67
-127.79
-100.69
-66.47
-26.74
16.37
60.29
102.36
140.21
172.27
197.97
217.67
232.33
243.24
251.76
259.27
267.02
275.82
285.76
295.98
304.81
310.43
311.48
307.70
299.95
289.78
278.87
268.36
258.69
249.57
240.26
229.72
216.90
200.85
181.12
158.02
133.03
108.77
88.53
75.55
71.94
77.91
91.47
108.77
125.02
135.77
138.00
130.85
115.58
94.81
71.44
47.78
25.16
4.25
-14.49
-30.40
-42.91
-52.07
-59.03
-65.90
-75.02
-87.88
-104.53
-123.55
-142.84
-160.59
-175.82
-188.52
-199.13
-208.12
-215.75
-222.07
-227.09
-230.87
-233.60
-235.47
-236.66
-237.19
-236.98
-235.87
-233.76
-230.79
-227.43
-224.40
-222.27
-221.09
-220.00
-217.32
-211.05
-199.58
-182.48
-160.72
-136.50
-112.41
-90.59
-72.22
-57.37
-45.45
-35.79
-28.06
-22.30
-18.57
-16.63
-15.78
-15.06
-13.65
-11.21
-8.04
-4.80
-2.16
-0.48
0.29
0.44
0.32
0.11
-0.25
-1.01
-2.50
-5.00
-8.63
-13.27
-18.54
-23.90
-28.78
-32.74
-35.70
-37.98
-40.20
-43.18
-47.62
-53.85
-61.61
-69.94
-77.21
-81.45
-80.81
-74.18
-61.62
-44.47
-24.99
-5.74
11.19
24.66
34.63
41.87
47.52
52.54
57.44
62.27
66.73
70.48
73.35
75.43
77.00
78.34
79.64
80.92
82.14
83.34
84.65
86.29
88.35
90.69
92.92
94.52
95.02
94.27
92.31
89.31
85.37
80.32
73.85
65.65
55.68
44.23
31.90
19.41
7.39
-3.69
-13.48
-21.74
-28.27
-33.04
-36.23
-38.36
-40.20
-42.55
-45.97
-50.58
-56.07
-61.84
-67.27
-71.93
-75.75
-78.99
-82.15
-85.89
-90.74
-96.95
-104.13
-111.12
-116.07
-116.79
-111.45
-99.29
-81.00
-58.72
-35.51
-14.45
1.98
12.66
17.87
19.11
18.54
18.19
19.28
21.81
24.47
25.29
22.33
14.39
1.36
-15.73
-35.07
-54.41
-71.46
-84.20
-91.17
-91.79
-86.57
-77.00
-65.29
-53.72
-44.26
-38.01
-35.17
-35.10
-36.61
-38.36
-39.32
-39.02
-37.74
-36.31
-35.62
-36.24
-38.12
-40.62
-42.83
-44.02
-43.99
-43.18
-42.60
-43.48
-46.95
-53.54
-62.84
-73.21
-82.06
-86.43
-83.93
-73.65
-56.57
-35.29
-13.19
6.79
22.91
34.94
43.69
50.33
55.75
60.41
64.40
67.78
70.70
73.38
75.96
78.33
80.21
81.19
81.00
79.60
77.16
74.02
70.53
67.00
63.59
60.34
57.10
53.62
49.65
44.98
39.63
33.78
27.78
22.06
17.08
13.26
10.86
9.97
10.40
11.72
13.38
14.81
15.56
15.39
14.26
12.23
9.44
6.02
2.12
-2.10
-6.37
-10.41
-13.99
-17.11
-20.09
-23.48
-27.91
-33.86
-41.40
-50.27
-60.01
-70.23
-80.76
-91.57
-102.60
-113.58
-123.98
-133.03
-139.74
-143.02
-141.65
-134.52
-121.01
-101.51
-77.74
-52.64
-29.62
-11.53
0.39
6.84
9.97
12.36
15.85
20.87
26.66
32.02
36.21
39.42
42.62
46.89
52.75
59.91
67.56
74.85
81.39
87.31
92.92
98.27
102.91
105.97
106.60
104.34
99.41
92.59
84.94
77.44
70.76
65.11
60.34
55.99
51.57
46.66
41.11
35.03
28.77
22.70
16.99
11.52
5.92
-0.20
-7.01
-14.34
-21.69
-28.43
-34.12
-38.60
-42.14
-45.33
-48.94
-53.77
-60.30
-68.39
-77.02
-84.29
-87.79
-85.35
-75.76
-59.35
-38.01
-14.63
7.80
26.98
41.83
52.49
59.93
65.37
69.83
73.84
77.55
80.85
83.69
86.14
88.42
90.78
93.35
96.12
99.01
101.90
104.77
107.57
110.23
112.63
114.58
115.91
116.51
116.34
115.38
113.60
111.01
107.68
103.83
99.64
95.16
90.19
84.28
76.96
68.00
57.62
46.52
35.64
25.84
17.58
10.83
5.15
-0.05
-5.23
-10.58
-16.06
-21.57
-27.07
-32.62
-38.38
-44.49
-51.00
-57.97
-65.56
-74.18
-84.39
-96.66
-110.89
-126.11
-140.47
-151.58
-157.26
-156.21
-148.47
-135.37
-119.04
-101.69
-85.12
-70.46
-58.26
-48.68
-41.57
-36.53
-32.89
-29.78
-26.40
-22.30
-17.59
-12.85
-8.77
-5.78
-3.84
-2.46
-0.96
1.14
3.94
7.18
10.40
13.11
15.00
15.91
15.87
15.05
13.57
11.66
9.56
7.54
5.91
4.85
4.38
4.34
4.27
3.75
2.53
0.74
-1.20
-2.76
-3.67
-4.09
-4.62
-5.94
-8.46
-12.01
-15.95
-19.49
-22.19
-24.19
-26.18
-28.94
-32.89
-37.70
-42.55
-46.47
-48.94
-50.18
-51.15
-53.07
-56.96
-63.17
-71.13
-79.40
-85.93
-88.49
-85.41
-76.09
-61.30
-42.98
-23.77
-6.11
8.38
19.18
26.72
31.86
35.48
38.15
40.20
41.77
43.02
44.21
45.48
46.91
48.35
49.53
50.20
50.31
50.04
49.76
49.86
50.56
51.77
53.12
54.07
54.15
53.06
50.81
47.70
44.24
41.00
38.41
36.58
35.21
33.67
31.28
27.64
22.92
17.88
13.55
10.71
9.31
8.29
5.80
-0.15
-11.13
-27.91
-50.42
-77.87
-108.77
-140.83
-170.98
-195.80
-212.50
-219.95
-219.34
-213.64
-206.33
-199.58
-193.34
-185.49
-173.25
-154.88
-130.67
-102.89
-74.63
-48.56
-26.06
-7.36
7.90
19.99
28.85
34.36
36.79
36.94
36.02
35.13
34.77
34.76
34.39
32.83
29.54
24.40
17.70
9.84
1.19
-8.08
-18.12
-29.31
-42.22
-57.39
-75.11
-95.21
-116.92
-138.70
-158.32
-173.03
-180.01
-177.06
-163.02
-138.24
-104.40
-64.28
-21.22
21.37
60.28
92.88
117.31
132.78
139.64
139.35
133.96
125.42
114.97
102.81
88.40
71.13
51.01
29.07
7.06
-13.17
-30.55
-45.23
-58.65
-72.82
-89.54
-109.45
-131.47
-152.77
-169.25
-176.62
-171.43
-152.20
-119.91
-77.93
-31.35
14.27
54.08
84.92
105.79
117.71
123.07
124.77
125.33
126.31
128.16
130.53
132.72
134.06
134.20
133.08
130.87
127.93
124.71
121.65
119.02
116.76
114.39
111.16
106.27
99.27
90.23
79.81
69.00
58.72
49.53
41.42
33.88
26.21
17.90
8.84
-0.55
-9.63
-17.81
-24.99
-31.68
-38.93
-48.05
-60.10
-75.38
-92.97
-110.57
-124.74
-131.72
-128.61
-114.45
-90.72
-61.03
-29.94
-1.59
21.44
38.50
50.47
58.96
65.50
71.13
76.29
81.07
85.38
89.11
92.14
94.35
95.73
96.38
96.54
96.57
96.82
97.54
98.76
100.27
101.64
102.37
101.97
100.09
96.62
91.77
86.00
79.94
74.27
69.47
65.76
62.97
60.66
58.30
55.50
52.08
48.13
43.93
39.79
35.98
32.65
29.80
27.29
24.83
22.00
18.40
13.71
7.88
1.19
-5.90
-12.79
-19.08
-24.70
-29.96
-35.48
-41.93
-49.80
-59.10
-69.34
-79.65
-89.02
-96.74
-102.75
-107.70
-112.97
-120.22
-130.80
-144.93
-161.19
-176.27
-185.68
-185.08
-171.82
-146.13
-111.20
-72.26
-34.84
-3.14
20.86
37.42
48.20
55.32
60.60
65.25
69.95
74.88
79.89
84.59
88.43
90.91
91.72
90.90
88.81
86.10
83.50
81.60
80.73
80.75
81.13
81.14
80.00
77.26
72.85
67.14
60.80
54.55
48.98
44.39
40.76
37.82
35.18
32.49
29.53
26.23
22.75
19.28
16.03
13.05
10.18
7.05
3.26
-1.46
-6.99
-12.82
-18.29
-22.84
-26.37
-29.32
-32.50
-36.68
-42.24
-48.99
-56.24
-63.11
-68.94
-73.49
-77.11
-80.68
-85.41
-92.49
-102.64
-115.42
-128.87
-139.59
-143.54
-137.37
-119.85
-92.56
-59.51
-25.83
3.95
27.18
43.40
53.81
60.24
64.31
67.07
69.22
71.27
73.75
77.00
80.97
85.15
88.71
90.95
91.58
90.87
89.50
88.26
87.67
87.78
88.19
88.25
87.32
85.03
81.33
76.55
71.22
65.91
61.10
57.11
53.97
51.49
49.29
46.90
43.93
40.22
35.87
31.26
26.88
23.11
20.06
17.49
14.85
11.53
7.05
1.31
-5.35
-12.30
-18.82
-24.49
-29.34
-33.90
-38.93
-45.07
-52.50
-60.83
-69.30
-77.13
-83.88
-89.65
-95.04
-100.98
-108.47
-118.28
-130.51
-144.24
-157.20
-166.04
-167.04
-157.41
-136.47
-106.20
-70.84
-35.55
-4.82
18.75
34.73
44.49
50.13
53.69
56.63
59.75
63.30
67.23
71.23
74.90
77.74
79.37
79.62
78.65
76.94
75.14
73.89
73.52
73.88
74.39
74.20
72.55
69.01
63.66
56.98
49.70
42.51
35.98
30.44
25.98
22.46
19.50
16.56
13.11
8.73
3.41
-2.41
-7.99
-12.60
-15.87
-18.10
-20.09
-22.96
-27.56
-34.07
-41.90
-49.95
-57.05
-62.54
-66.48
-69.77
-73.81
-80.02
-89.35
-101.73
-115.73
-128.60
-136.75
-136.85
-126.89
-107.11
-80.04
-49.81
-20.77
3.73
22.14
34.64
42.52
47.30
50.19
51.84
52.56
52.63
52.39
52.28
52.64
53.53
54.73
55.81
56.41
56.37
55.85
55.16
54.58
54.14
53.57
52.40
50.14
46.51
41.58
35.80
29.82
24.35
19.88
16.55
14.07
11.86
9.29
5.99
1.98
-2.37
-6.46
-9.85
-12.45
-14.59
-16.95
-20.26
-25.05
-31.47
-39.22
-47.67
-56.01
-63.58
-69.99
-75.30
-80.03
-85.06
-91.44
-99.97
-110.72
-122.53
-132.84
-138.11
-134.86
-120.93
-96.54
-64.43
-29.16
4.48
32.86
54.40
69.52
79.84
87.21
93.09
98.29
103.21
108.06
112.96
117.88
122.59
126.63
129.51
130.96
131.13
130.65
130.41
131.21
133.38
136.51
139.59
141.35
140.84
137.91
133.32
128.38
124.33
121.74
120.23
118.66
115.72
110.42
102.50
92.27
80.43
67.75
54.91
42.53
31.15
21.13
12.40
4.41
-3.84
-13.44
-25.06
-38.71
-53.58
-68.48
-82.23
-94.02
-103.53
-110.72
-115.63
-118.19
-118.35
-116.36
-112.97
-109.39
-106.92
-106.38
-107.63
-109.40
-109.67
-106.25
-97.58
-83.11
-63.50
-40.47
-16.48
5.70
23.60
35.59
41.25
41.50
38.18
33.43
28.97
25.63
23.33
21.43
18.87
14.80
8.66
0.36
-9.65
-20.46
-31.00
-40.41
-48.52
-55.73
-62.71
-69.84
-76.85
-82.88
-87.00
-88.72
-88.40
-87.00
-85.53
-84.53
-83.86
-82.96
-81.27
-78.60
-75.39
-72.35
-70.17
-69.25
-69.65
-71.32
-74.17
-78.06
-82.68
-87.26
-90.46
-90.69
-86.60
-77.67
-64.55
-48.87
-32.85
-18.45
-6.89
1.56
7.45
11.66
15.06
18.25
21.43
24.53
27.36
29.69
31.38
32.35
32.64
32.40
31.82
31.18
30.72
30.55
30.65
30.77
30.54
29.58
27.65
24.73
21.06
17.04
13.04
9.33
5.93
2.72
-0.53
-4.03
-7.82
-11.83
-15.81
-19.52
-22.73
-25.43
-27.80
-30.28
-33.44
-37.89
-43.96
-51.42
-59.26
-65.68
-68.59
-66.16
-57.66
-43.78
-26.51
-8.50
7.87
21.16
31.19
38.67
44.69
50.15
55.52
60.80
65.70
69.88
72.99
74.69
74.75
73.09
69.90
65.61
60.84
56.20
52.12
48.75
45.98
43.47
40.83
37.66
33.80
29.32
24.49
19.69
15.20
11.11
7.31
3.54
-0.37
-4.38
-8.27
-11.79
-14.83
-17.54
-20.25
-23.28
-26.80
-30.67
-34.54
-38.03
-40.90
-43.24
-45.42
-48.00
-51.58
-56.53
-62.96
-70.42
-77.95
-84.02
-86.86
-84.96
-77.61
-65.22
-49.40
-32.48
-16.84
-4.20
4.80
10.57
14.28
17.25
20.49
24.43
28.95
33.57
37.79
41.31
44.08
46.29
48.11
49.66
50.88
51.73
52.26
52.64
53.07
53.57
53.92
53.66
52.45
50.28
47.68
45.51
44.43
44.43
44.43
42.71
37.55
28.28
15.68
1.86
-10.60
-19.70
-24.97
-27.61
-30.29
-36.56
-50.11
-73.96
-109.56
-155.83
-208.72
-261.62
-306.70
-336.83
-347.28
-336.79
-307.45
-263.92
-212.29
-158.98
-109.74
-68.81
-38.23
-17.67
-4.75
3.93
11.47
19.75
29.13
38.79
47.37
53.55
56.44
55.70
51.69
45.48
38.80
33.67
31.76
33.95
39.99
48.71
58.51
67.95
76.18
83.03
88.88
94.27
99.57
104.79
109.41
112.57
113.39
111.32
106.53
99.93
92.93
86.93
82.78
80.44
79.10
77.54
74.68
70.01
63.70
56.36
48.71
41.18
33.84
26.59
19.43
12.73
7.07
2.88
0.06
-2.17
-4.94
-9.25
-15.38
-22.89
-30.83
-38.39
-45.19
-51.38
-57.35
-63.48
-70.05
-77.34
-85.63
-95.09
-105.21
-114.52
-120.67
-121.13
-114.17
-99.73
-79.51
-56.55
-34.03
-14.38
1.24
12.90
21.45
27.91
33.19
37.78
41.98
45.91
49.72
53.53
57.39
61.06
64.05
65.54
64.93
62.15
57.92
53.70
51.04
50.87
52.98
55.96
57.80
56.88
52.66
45.86
38.05
30.80
25.02
20.57
16.54
11.82
5.71
-1.76
-9.93
-17.80
-24.49
-29.61
-33.31
-36.29
-39.54
-44.06
-50.64
-59.45
-69.80
-80.14
-88.23
-91.73
-88.94
-79.40
-64.09
-45.18
-25.25
-6.63
9.17
21.61
30.97
37.98
43.51
48.28
52.71
56.91
60.70
63.78
65.86
66.90
67.01
66.48
65.62
64.68
63.85
63.29
63.09
63.24
63.61
63.88
63.63
62.49
60.22
56.87
52.70
48.15
43.72
39.91
37.11
35.62
35.58
36.88
39.14
41.69
43.77
44.76
44.37
42.75
40.32
37.52
34.57
31.41
27.79
23.54
18.69
13.50
8.32
3.36
-1.42
-6.38
-11.99
-18.61
-26.19
-34.11
-41.37
-46.83
-49.81
-50.34
-49.31
-48.24
-48.76
-52.26
-59.57
-70.76
-84.99
-100.43
-114.40
-123.77
-125.76
-118.78
-103.04
-80.59
-54.71
-29.00
-6.52
10.68
21.62
26.02
24.06
16.14
2.99
-14.31
-34.43
-56.04
-78.13
-100.16
-121.96
-143.42
-164.25
-183.85
-201.53
-216.73
-229.18
-238.97
-246.45
-252.27
-257.54
-263.83
-273.20
-287.48
-307.50
-332.23
-358.62
-382.21
-398.51
-404.39
-399.05
-384.05
-362.44
-337.58
-312.07
-287.26
-263.48
-240.54
-218.31
-196.87
-176.36
-156.74
-137.64
-118.49
-98.83
-78.51
-57.74
-37.02
-16.82
2.63
21.34
39.56
57.59
75.63
93.67
111.55
129.04
146.02
162.60
179.16
196.14
213.71
231.45
248.20
262.34
272.38
277.58
278.34
276.03
272.50
269.25
267.06
265.81
264.91
263.71
261.86
259.33
256.22
252.43
247.65
241.41
233.34
223.39
211.93
199.69
187.45
175.80
164.95
154.74
144.78
134.72
124.41
113.99
103.78
94.15
85.32
77.32
69.98
63.00
56.05
48.96
41.67
34.34
27.22
20.53
14.34
8.54
2.80
-3.36
-10.48
-19.05
-29.32
-41.05
-53.19
-63.96
-71.10
-72.60
-67.46
-56.10
-40.31
-22.63
-5.50
9.43
21.52
31.00
38.59
45.11
51.24
57.46
64.05
71.05
78.20
85.04
90.95
95.40
98.11
99.16
98.97
98.14
97.26
96.73
96.65
96.84
96.94
96.56
95.38
93.27
90.28
86.59
82.49
78.31
74.29
70.56
67.06
63.61
59.95
55.91
51.50
46.88
42.34
38.10
34.20
30.43
26.46
21.95
16.77
11.04
5.10
-0.63
-5.83
-10.39
-14.42
-18.21
-22.17
-26.73
-32.31
-39.13
-47.02
-55.15
-62.11
-66.10
-65.50
-59.49
-48.30
-33.28
-16.35
0.57
16.07
29.43
40.61
49.96
58.06
65.55
73.03
80.96
89.48
98.44
107.48
116.30
124.94
133.76
143.34
154.13
166.26
179.60
194.07
209.77
227.02
246.02
266.46
287.37
307.51
325.87
342.08
356.16
367.94
376.33
379.27
374.34
359.99
336.46
305.95
271.89
237.68
205.73
176.97
151.27
128.02
106.72
87.19
69.43
53.51
39.36
26.87
15.89
6.25
-2.34
-10.31
-18.22
-26.63
-35.90
-46.13
-57.13
-68.60
-80.33
-92.40
-105.19
-119.38
-135.79
-155.12
-177.56
-202.36
-227.68
-250.74
-268.73
-279.81
-284.13
-284.17
-284.13
-288.76
-301.72
-324.28
-354.78
-389.02
-421.51
-447.07
-462.11
-465.34
-457.52
-440.67
-417.28
-389.70
-360.14
-330.85
-304.15
-282.02
-265.53
-254.32
-246.78
-240.98
-235.83
-231.88
-230.91
-234.74
-243.66
-255.66
-266.87
-272.94
-270.64
-258.78
-238.07
-210.22
-176.96
-139.49
-98.55
-54.80
-9.09
37.90
85.91
135.22
186.12
238.04
289.02
335.89
375.15
404.32
422.77
431.79
433.74
430.99
425.03
416.22
404.22
388.59
369.28
346.64
321.33
294.06
265.58
236.61
207.89
180.02
153.45
128.44
105.30
84.55
66.96
53.37
44.19
39.24
37.61
37.94
38.86
39.35
38.94
37.70
35.98
34.36
33.57
34.45
37.93
44.71
55.03
68.39
83.49
98.47
111.43
120.88
126.10
127.23
125.05
120.61
114.84
108.30
101.11
93.03
83.72
72.97
60.99
48.33
35.66
23.42
11.58
-0.37
-13.18
-27.51
-43.75
-61.99
-82.17
-104.02
-126.92
-149.79
-171.11
-189.24
-203.04
-212.25
-217.57
-220.19
-221.17
-221.00
-219.56
-216.56
-211.99
-206.35
-200.54
-195.53
-192.04
-190.44
-190.86
-193.36
-197.74
-203.33
-208.58
-211.18
-208.57
-198.93
-182.07
-159.69
-134.92
-111.15
-90.82
-74.77
-62.32
-52.06
-42.74
-33.80
-25.34
-17.80
-11.52
-6.63
-3.12
-1.02
-0.39
-1.30
-3.65
-7.05
-10.95
-14.74
-17.94
-20.32
-21.87
-22.79
-23.39
-23.94
-24.64
-25.52
-26.44
-27.21
-27.65
-27.65
-27.18
-26.32
-25.16
-23.86
-22.64
-21.72
-21.21
-21.04
-20.87
-20.30
-19.05
-17.11
-14.87
-12.88
-11.62
-11.23
-11.49
-11.90
-11.92
-11.27
-9.98
-8.45
-7.26
-7.01
-8.02
-10.25
-13.23
-16.30
-18.83
-20.49
-21.42
-22.15
-23.40
-25.85
-29.89
-35.40
-41.53
-46.69
-48.74
-45.54
-35.71
-19.21
2.35
26.16
48.98
68.09
81.96
90.43
94.43
95.47
95.02
94.20
93.59
93.28
93.03
92.39
90.94
88.25
84.04
78.23
71.10
63.27
55.60
48.86
43.45
39.12
35.08
30.19
23.56
14.81
4.32
-6.89
-17.50
-26.26
-32.47
-36.09
-37.86
-38.86
-40.10
-42.07
-44.57
-46.90
-48.48
-49.12
-49.25
-49.75
-51.55
-55.22
-60.79
-67.57
-74.21
-78.69
-78.81
-72.69
-59.72
-41.08
-19.82
-0.04
14.28
20.75
19.14
11.27
0.13
-11.32
-20.98
-27.86
-32.00
-33.85
-33.88
-32.30
-29.10
-24.20
-17.72
-9.97
-1.50
7.16
15.72
24.15
32.58
41.08
49.39
56.89
62.62
65.62
65.13
60.84
52.90
41.85
28.55
14.08
-0.47
-14.07
-25.93
-35.60
-43.03
-48.50
-52.47
-55.29
-57.10
-57.69
-56.75
-54.05
-49.80
-44.75
-40.12
-37.24
-37.17
-40.23
-45.73
-51.92
-56.16
-55.60
-47.95
-32.20
-9.15
18.73
48.05
75.53
99.01
117.94
133.41
147.47
162.19
178.58
195.95
211.86
222.66
224.78
216.00
196.38
168.23
135.29
101.47
69.80
42.09
19.14
1.24
-11.48
-19.16
-22.43
-22.57
-21.33
-20.40
-20.96
-23.42
-27.49
-32.55
-37.96
-43.27
-48.21
-52.59
-56.27
-59.19
-61.34
-62.88
-63.98
-64.76
-65.24
-65.25
-64.68
-63.55
-62.12
-60.88
-60.44
-61.24
-63.39
-66.60
-70.27
-73.74
-76.57
-78.83
-81.16
-84.73
-90.92
-100.74
-114.15
-129.46
-143.24
-151.02
-148.63
-133.73
-106.95
-71.97
-34.49
-0.42
25.89
42.66
50.60
52.09
49.94
46.53
43.40
41.33
40.65
41.35
43.13
45.40
47.30
47.98
46.91
44.11
40.27
36.37
33.33
31.57
30.78
30.20
28.88
26.25
22.30
17.53
12.70
8.45
5.04
2.37
0.13
-1.98
-4.07
-5.99
-7.50
-8.47
-9.01
-9.50
-10.50
-12.43
-15.32
-18.75
-21.99
-24.31
-25.37
-25.32
-24.85
-24.91
-26.47
-30.20
-36.11
-43.22
-49.16
-50.49
-43.52
-25.67
3.14
40.02
79.67
116.18
144.83
163.37
172.22
173.57
170.28
164.87
159.07
153.68
148.61
142.93
135.18
123.85
108.13
88.33
65.94
43.05
21.62
2.82
-13.09
-26.57
-38.31
-48.93
-58.83
-68.20
-77.08
-85.38
-92.84
-98.95
-102.97
-104.13
-101.97
-96.57
-88.72
-79.72
-70.95
-63.42
-57.51
-53.02
-49.47
-46.54
-44.21
-42.65
-41.99
-42.04
-42.33
-42.32
-41.77
-40.85
-40.08
-39.99
-40.87
-42.72
-45.42
-49.04
-54.03
-61.12
-71.02
-83.91
-99.27
-115.85
-132.12
-146.63
-158.36
-166.90
-172.35
-175.37
-177.10
-178.95
-182.19
-187.10
-192.36
-194.99
-191.19
-177.85
-154.06
-121.70
-84.93
-48.59
-16.56
9.35
29.32
44.79
57.38
68.24
77.95
86.71
94.74
102.27
109.55
116.61
123.20
128.90
133.24
136.00
137.38
138.08
139.04
141.19
144.98
150.14
155.72
160.47
163.35
163.97
162.68
160.34
157.96
156.27
155.50
155.48
155.78
155.87
155.20
153.09
148.71
141.18
129.74
114.16
95.03
73.86
52.74
33.85
18.63
7.31
-1.18
-8.59
-16.48
-25.35
-34.42
-42.01
-46.52
-47.21
-44.59
-40.24
-36.16
-34.12
-35.17
-39.21
-44.84
-49.43
-49.79
-43.35
-29.62
-11.08
6.94
17.78
15.62
-2.77
-37.06
-83.81
-137.49
-191.82
-240.84
-279.87
-306.44
-320.71
-325.28
-324.06
-320.59
-316.79
-312.57
-306.73
-298.32
-287.65
-276.23
-265.87
-257.54
-251.01
-245.18
-239.13
-232.73
-226.72
-222.04
-219.04
-216.95
-214.13
-208.76
-199.66
-186.76
-171.19
-154.71
-138.92
-124.61
-111.35
-97.75
-82.04
-62.90
-40.08
-14.52
12.01
37.74
61.64
83.89
105.71
128.72
154.25
182.93
214.66
248.91
284.66
320.20
352.80
379.05
395.96
402.31
399.54
391.15
380.93
370.97
360.75
348.07
330.94
309.36
285.39
261.55
238.68
214.66
184.95
144.56
90.28
21.98
-57.31
-142.12
-225.66
-300.93
-361.78
-404.04
-426.50
-431.12
-422.24
-405.07
-384.13
-362.33
-341.02
-320.73
-301.76
-284.35
-268.34
-252.72
-235.77
-215.56
-190.95
-162.13
-130.70
-98.91
-68.72
-40.88
-14.74
11.38
39.24
69.69
102.15
134.68
164.87
190.79
211.81
228.78
243.55
258.25
274.66
294.08
317.26
344.09
373.03
400.73
422.55
434.05
432.90
420.06
399.37
375.58
351.93
328.84
304.40
276.31
244.01
209.38
175.88
146.65
122.85
103.43
86.12
68.88
50.90
32.66
15.30
-0.23
-13.71
-25.73
-37.20
-48.85
-60.88
-72.81
-83.72
-92.65
-99.06
-103.13
-105.86
-108.91
-114.20
-123.52
-137.96
-157.51
-180.80
-205.09
-226.66
-241.51
-246.14
-238.37
-217.81
-185.94
-145.86
-101.63
-57.52
-17.17
17.09
44.53
65.89
82.80
96.92
109.27
120.05
128.87
135.33
139.57
142.39
144.89
148.04
152.25
157.27
162.52
167.39
171.57
175.09
178.11
180.64
182.37
182.72
181.06
177.15
171.32
164.57
158.27
153.73
151.78
152.50
155.24
158.79
161.67
162.29
159.27
151.83
140.21
126.05
112.29
102.42
99.31
103.94
114.76
127.86
138.09
140.60
132.29
112.57
83.37
48.37
11.84
-22.41
-51.86
-75.58
-94.00
-108.39
-120.14
-130.25
-139.05
-146.34
-151.61
-154.38
-154.33
-151.37
-145.58
-137.18
-126.61
-114.49
-101.61
-88.67
-76.05
-63.63
-50.77
-36.57
-20.27
-1.61
19.01
40.65
62.12
82.25
99.99
114.36
124.42
129.36
128.93
123.93
116.56
110.32
109.16
116.30
133.02
158.07
187.92
217.79
243.06
260.39
268.29
266.89
257.29
240.89
219.00
192.90
164.01
134.00
104.52
76.71
50.75
25.87
0.90
-24.83
-50.76
-74.90
-94.33
-106.26
-109.04
-102.98
-90.45
-75.51
-63.03
-57.64
-62.72
-79.64
-107.41
-142.97
-182.05
-220.38
-254.91
-284.48
-309.88
-333.27
-357.14
-383.02
-410.55
-437.05
-458.08
-468.90
-466.41
-450.59
-424.81
-394.56
-365.33
-340.61
-320.95
-304.63
-289.27
-273.43
-257.37
-242.62
-230.95
-223.56
-220.90
-222.88
-229.22
-239.22
-251.32
-262.77
-269.91
-269.15
-258.28
-237.30
-208.47
-175.36
-141.58
-109.62
-80.41
-53.51
-27.72
-1.66
25.66
54.54
84.24
112.94
137.97
156.49
166.48
167.42
160.52
148.17
132.89
116.43
99.33
81.44
62.83
44.60
29.10
19.26
17.44
24.39
38.81
57.88
78.18
96.86
112.41
124.60
134.10
141.75
148.12
153.34
157.30
159.96
161.49
162.29
162.74
163.03
163.03
162.39
160.78
158.11
154.64
150.85
147.28
144.20
141.51
138.77
135.42
130.99
125.29
118.49
111.00
103.36
96.04
89.29
83.19
77.65
72.63
68.10
64.08
60.53
57.25
53.91
50.13
45.72
40.73
35.49
30.43
25.83
21.73
17.89
13.90
9.42
4.27
-1.44
-7.43
-13.35
-18.87
-23.84
-28.30
-32.48
-36.83
-41.92
-48.30
-56.26
-65.39
-74.39
-81.23
-83.58
-79.74
-69.29
-53.41
-34.53
-15.57
1.09
14.13
23.47
29.85
34.35
37.94
41.27
44.65
48.20
51.82
55.32
58.40
60.80
62.28
62.76
62.35
61.26
59.84
58.44
57.32
56.57
56.03
55.30
53.87
51.26
47.27
42.04
36.08
30.04
24.57
20.07
16.54
13.68
11.02
8.11
4.74
0.90
-3.20
-7.33
-11.36
-15.31
-19.38
-23.88
-29.22
-35.74
-43.54
-52.26
-60.83
-67.63
-70.80
-68.88
-61.39
-49.13
-33.98
-18.29
-4.13
7.26
15.63
21.44
25.50
28.54
31.09
33.39
35.54
37.49
39.15
40.39
41.14
41.42
41.33
41.09
40.90
40.96
41.35
42.04
42.87
43.54
43.71
43.06
41.46
38.92
35.71
32.17
28.60
25.18
21.91
18.69
15.40
11.97
8.43
4.86
1.44
-1.70
-4.51
-7.10
-9.76
-12.86
-16.71
-21.37
-26.58
-31.87
-36.75
-40.92
-44.45
-47.76
-51.44
-56.12
-62.20
-69.63
-77.69
-84.95
-89.54
-89.60
-84.00
-72.81
-57.40
-40.10
-23.37
-9.11
1.82
9.56
14.88
18.72
21.85
24.72
27.55
30.41
33.28
36.12
38.79
41.14
42.95
44.11
44.57
44.51
44.18
43.88
43.86
44.18
44.72
45.14
45.06
44.15
42.27
39.55
36.38
33.26
30.63
28.70
27.34
26.16
24.69
22.55
19.66
16.26
12.77
9.65
7.20
5.40
3.98
2.49
0.51
-2.19
-5.54
-9.28
-13.02
-16.45
-19.43
-22.03
-24.51
-27.28
-30.80
-35.49
-41.45
-48.26
-54.84
-59.57
-60.79
-57.34
-49.04
-36.80
-22.26
-7.29
6.62
18.56
28.26
35.79
41.46
45.64
48.85
51.73
54.94
59.04
64.20
70.21
76.50
82.38
87.37
91.41
94.98
98.87
103.90
110.44
118.17
126.10
132.90
137.39
139.03
138.13
135.66
132.82
130.57
129.25
128.35
126.48
121.56
111.17
93.18
66.49
31.75
-8.45
-50.16
-89.24
-122.71
-149.53
-170.50
-187.25
-201.04
-212.08
-219.64
-222.78
-221.20
-215.64
-207.57
-198.63
-189.95
-181.83
-173.88
-165.31
-155.30
-143.31
-129.13
-112.94
-95.14
-76.11
-56.02
-34.83
-12.44
10.92
34.54
57.20
77.68
95.29
110.06
122.73
134.14
144.65
153.93
161.03
165.06
165.72
163.53
159.63
155.16
150.79
146.50
141.76
135.93
128.68
120.10
110.60
100.76
91.00
81.61
72.61
63.92
55.40
46.91
38.45
30.09
22.01
14.43
7.49
1.24
-4.43
-9.79
-15.21
-21.17
-28.07
-36.11
-45.01
-53.93
-61.55
-66.37
-67.18
-63.41
-55.37
-44.05
-30.92
-17.50
-5.14
5.23
13.17
18.84
22.98
26.67
31.02
36.79
44.09
52.50
61.35
70.13
78.73
87.38
96.31
105.43
114.22
121.84
127.54
130.97
132.30
132.04
130.65
128.23
124.44
118.71
110.65
100.26
88.06
74.90
61.59
48.68
36.28
24.11
11.62
-1.87
-17.04
-34.38
-53.98
-75.18
-96.50
-115.81
-130.75
-139.49
-141.35
-136.93
-127.92
-116.42
-104.21
-92.39
-81.29
-70.83
-60.86
-51.50
-43.04
-35.83
-30.10
-25.85
-22.90
-21.04
-20.18
-20.37
-21.84
-24.90
-29.81
-36.72
-45.51
-55.82
-67.07
-78.62
-89.83
-100.19
-109.26
-116.73
-122.44
-126.29
-128.34
-128.76
-127.91
-126.28
-124.40
-122.74
-121.55
-120.74
-119.92
-118.57
-116.33
-113.27
-109.99
-107.41
-106.32
-106.85
-108.08
-108.18
-104.95
-96.73
-83.18
-65.45
-45.89
-27.19
-11.38
0.69
9.37
15.66
20.60
24.83
28.55
31.71
34.34
36.71
39.15
41.91
44.93
47.94
50.51
52.38
53.51
54.07
54.15
53.65
52.12
48.98
43.72
36.26
27.10
17.25
7.87
-0.08
-6.17
-10.57
-13.91
-16.88
-19.99
-23.42
-26.99
-30.46
-33.61
-36.39
-38.89
-41.20
-43.33
-45.29
-47.09
-48.80
-50.53
-52.26
-53.87
-55.15
-56.01
-56.61
-57.37
-58.79
-61.14
-64.26
-67.58
-70.44
-72.39
-73.53
-74.41
-75.82
-78.45
-82.53
-87.62
-92.64
-95.96
-95.96
-91.33
-81.66
-67.59
-50.73
-33.26
-17.37
-4.67
3.93
8.41
9.37
7.81
4.90
1.76
-0.73
-2.10
-2.35
-1.74
-0.62
0.79
2.52
4.79
7.77
11.41
15.27
18.76
21.31
22.57
22.58
21.66
20.24
18.73
17.29
15.92
14.53
13.04
11.42
9.70
7.93
6.15
4.43
2.85
1.49
0.45
-0.30
-0.86
-1.36
-1.84
-2.21
-2.32
-2.20
-2.14
-2.75
-4.77
-8.86
-15.49
-24.94
-37.28
-52.13
-68.37
-83.88
-95.73
-100.92
-97.37
-84.85
-65.19
-41.77
-18.38
1.91
17.38
27.79
33.87
36.77
37.65
37.46
36.90
36.49
36.52
37.09
38.02
38.97
39.52
39.29
38.13
36.11
33.54
30.85
28.45
26.57
25.23
24.24
23.19
21.71
19.50
16.57
13.21
9.88
7.06
4.95
3.40
1.97
0.08
-2.65
-6.25
-10.38
-14.44
-17.90
-20.53
-22.51
-24.32
-26.53
-29.48
-33.18
-37.30
-41.37
-44.97
-47.91
-50.28
-52.40
-54.68
-57.58
-61.57
-66.98
-73.82
-81.46
-88.51
-92.94
-92.58
-85.91
-72.68
-54.29
-33.37
-13.02
4.21
16.97
25.33
30.40
33.66
36.41
39.36
42.68
46.15
49.45
52.30
54.51
55.96
56.56
56.28
55.18
53.53
51.74
50.29
49.53
49.45
49.66
49.48
48.25
45.58
41.62
36.94
32.34
28.46
25.50
23.22
21.03
18.34
14.81
10.59
6.09
1.90
-1.51
-4.10
-6.20
-8.48
-11.71
-16.59
-23.59
-32.86
-44.24
-57.29
-71.44
-86.08
-100.77
-115.30
-129.71
-144.02
-157.93
-170.59
-180.43
-185.41
-183.60
-173.86
-156.54
-133.63
-108.45
-84.74
-65.61
-52.60
-45.29
-41.56
-38.55
-33.72
-25.59
-14.03
0.26
16.29
33.30
50.76
67.97
83.79
96.70
105.35
109.25
109.20
107.08
104.98
104.19
104.65
105.11
103.96
100.20
93.85
85.86
77.50
69.62
62.27
54.84
46.51
36.79
25.87
14.54
3.94
-5.02
-12.01
-17.47
-22.48
-28.41
-36.44
-47.02
-59.46
-71.94
-81.79
-86.25
-83.31
-72.44
-54.85
-33.19
-10.69
9.81
26.58
39.19
48.27
54.90
60.11
64.62
68.82
72.89
76.84
80.57
83.83
86.27
87.54
87.54
86.49
84.90
83.40
82.50
82.40
82.99
83.83
84.34
84.00
82.42
79.52
75.52
70.86
66.06
61.52
57.33
53.27
48.93
43.92
38.11
31.68
25.12
18.99
13.71
9.36
5.55
1.59
-3.31
-9.69
-17.57
-26.41
-35.24
-43.08
-49.31
-53.97
-57.78
-62.00
-67.95
-76.58
-87.93
-100.80
-112.74
-120.52
-121.08
-112.60
-95.28
-71.46
-44.88
-19.51
1.74
17.61
28.48
35.68
40.70
44.63
48.03
51.09
53.90
56.53
59.04
61.38
63.27
64.33
64.27
63.05
61.01
58.71
56.76
55.43
54.52
53.38
51.21
47.46
42.09
35.63
28.90
22.65
17.25
12.60
8.18
3.40
-2.16
-8.52
-15.37
-22.19
-28.50
-34.14
-39.34
-44.64
-50.81
-58.53
-68.12
-79.19
-90.55
-100.14
-105.50
-104.38
-95.54
-79.36
-57.88
-34.29
-11.93
6.67
20.37
29.48
35.19
39.00
42.03
44.86
47.51
49.78
51.40
52.26
52.40
51.91
50.95
49.67
48.27
46.98
46.06
45.65
45.71
45.89
45.65
44.44
41.87
37.88
32.72
26.90
20.98
15.51
10.87
7.28
4.75
3.08
1.92
0.91
-0.27
-1.79
-3.72
-6.10
-8.93
-12.23
-15.88
-19.65
-23.15
-26.06
-28.34
-30.41
-33.05
-36.95
-42.23
-47.96
-52.21
-52.60
-47.19
-35.29
-17.81
3.02
24.39
43.60
58.68
68.64
73.50
74.21
72.48
70.30
69.24
69.92
71.76
73.41
73.47
71.27
67.04
61.63
55.88
50.18
44.48
38.57
32.41
26.16
20.01
14.12
8.54
3.43
-0.83
-3.79
-5.17
-5.17
-4.44
-3.84
-4.04
-5.30
-7.52
-10.42
-13.82
-17.66
-21.85
-26.17
-30.20
-33.54
-35.88
-37.21
-37.76
-37.85
-37.78
-37.71
-37.86
-38.66
-40.83
-45.15
-51.97
-60.68
-69.50
-75.84
-77.09
-71.67
-59.66
-42.75
-23.68
-5.26
10.43
22.35
30.36
34.75
35.99
34.66
31.62
28.10
25.53
25.05
27.02
30.60
34.18
36.05
35.29
32.33
28.85
26.99
28.39
33.31
40.55
47.80
52.37
51.64
43.58
27.08
2.52
-27.82
-59.81
-88.15
-107.89
-115.94
-111.99
-98.26
-78.45
-56.37
-35.05
-16.56
-2.33
6.43
8.81
4.66
-4.89
-17.36
-29.38
-37.58
-39.63
-34.78
-24.01
-9.56
5.95
20.49
33.24
44.70
56.16
68.59
81.75
93.83
101.80
102.38
93.08
73.03
43.29
6.81
-31.98
-67.77
-95.25
-110.27
-110.91
-98.14
-75.60
-48.59
-22.44
-1.18
13.22
20.66
22.20
19.39
13.79
6.85
-0.05
-5.70
-9.26
-10.53
-10.01
-8.76
-7.89
-8.18
-9.74
-12.12
-14.53
-16.35
-17.38
-18.01
-18.96
-20.97
-24.42
-29.20
-34.74
-40.20
-44.86
-48.39
-51.00
-53.50
-56.95
-62.31
-69.75
-78.37
-86.07
-90.06
-87.88
-78.27
-61.78
-40.71
-18.25
2.53
19.55
32.11
40.63
46.07
49.48
51.64
53.11
54.33
55.66
57.31
59.22
61.07
62.36
62.69
61.88
60.11
57.86
55.64
53.90
52.87
52.53
52.61
52.69
52.21
50.60
47.42
42.51
36.16
29.05
22.17
16.50
12.65
10.71
10.15
10.01
9.31
7.49
4.59
1.24
-1.90
-4.50
-6.77
-9.31
-12.83
-17.89
-24.90
-34.31
-46.57
-61.74
-78.89
-95.92
-109.89
-118.15
-119.61
-115.29
-107.98
-100.75
-95.39
-91.55
-87.06
-79.25
-66.46
-48.95
-28.88
-9.26
7.33
19.65
27.94
33.39
37.31
40.71
44.04
47.65
51.99
57.60
64.67
72.59
79.93
84.88
86.09
83.36
77.78
71.13
64.98
60.01
55.82
51.46
46.02
39.19
31.38
23.35
15.85
9.20
3.23
-2.56
-8.80
-15.87
-23.80
-32.27
-40.67
-48.32
-54.63
-59.21
-61.92
-62.90
-62.43
-61.02
-59.29
-57.95
-57.68
-58.96
-62.10
-67.17
-73.92
-81.67
-89.19
-94.69
-96.19
-92.07
-81.72
-65.94
-46.78
-26.94
-8.90
5.79
16.74
24.51
30.05
34.33
38.04
41.56
45.11
48.77
52.45
55.89
58.62
60.13
60.05
58.37
55.44
51.97
48.74
46.41
45.24
45.06
45.40
45.66
45.44
44.62
43.29
41.64
39.69
37.23
33.99
29.85
25.05
20.23
16.16
13.28
11.43
9.78
7.22
2.86
-3.48
-11.16
-18.99
-25.88
-31.34
-35.82
-40.49
-46.76
-55.60
-67.15
-80.58
-94.23
-106.21
-115.00
-120.04
-122.19
-123.99
-129.56
-143.84
-171.13
-213.28
-268.08
-329.04
-386.72
-431.55
-457.00
-461.54
-448.61
-424.73
-396.73
-369.55
-345.59
-325.23
-308.24
-294.45
-283.86
-276.07
-269.72
-262.61
-252.38
-237.40
-217.36
-193.36
-167.17
-140.53
-114.42
-88.90
-63.45
-37.51
-11.14
14.81
38.81
59.15
74.57
84.60
89.66
90.79
89.18
85.82
81.24
75.62
69.02
61.61
53.85
46.43
40.14
35.57
33.03
32.49
33.71
36.39
40.31
45.42
51.70
59.11
67.52
76.70
86.36
96.29
106.42
116.85
127.78
139.51
152.36
166.60
182.24
198.88
215.62
231.21
244.31
253.91
259.62
261.73
260.98
258.29
254.39
249.73
244.45
238.58
232.07
224.84
216.73
207.56
197.16
185.52
172.87
159.69
146.54
133.97
122.32
111.62
101.66
92.08
82.57
72.99
63.47
54.33
45.89
38.31
31.45
24.79
17.60
9.21
-0.66
-11.55
-22.22
-30.81
-35.37
-34.45
-27.63
-15.72
-0.49
15.85
31.36
44.80
55.84
64.82
72.43
79.28
85.72
91.84
97.49
102.55
106.90
110.53
113.56
116.13
118.44
120.70
123.08
125.75
128.84
132.40
136.36
140.45
144.16
146.73
147.34
145.41
140.85
134.20
126.58
119.26
113.17
108.52
104.77
100.81
95.45
87.92
78.11
66.69
54.89
44.06
35.24
28.79
24.35
21.01
17.81
14.10
9.81
5.36
1.51
-0.97
-1.53
-0.10
2.78
5.75
6.73
3.24
-6.91
-24.82
-49.81
-79.41
-109.81
-136.94
-157.44
-169.36
-172.22
-166.68
-154.12
-136.19
-114.70
-91.52
-68.49
-47.19
-28.74
-13.53
-1.27
8.76
17.26
24.47
29.97
32.76
31.81
26.60
17.70
6.71
-4.18
-13.01
-18.78
-21.61
-22.35
-21.74
-19.87
-15.95
-8.91
1.93
16.13
32.07
47.29
59.12
65.37
64.93
58.00
46.29
32.62
20.30
12.21
9.92
13.24
20.33
28.37
34.54
36.90
34.96
29.75
23.49
18.83
17.96
21.87
29.89
39.89
49.02
54.68
55.52
51.74
44.98
37.60
31.95
29.72
31.65
37.56
46.57
57.38
68.58
78.85
87.14
92.82
95.76
96.45
95.86
95.22
95.52
96.99
98.74
98.82
94.73
84.16
65.75
39.66
7.75
-26.58
-58.87
-84.42
-99.42
-101.89
-92.45
-74.32
-52.42
-32.13
-17.93
-12.48
-16.52
-29.22
-48.80
-73.03
-99.58
-126.24
-151.25
-173.57
-192.99
-209.96
-225.05
-238.30
-248.88
-255.07
-254.76
-246.11
-228.15
-201.15
-166.81
-128.14
-89.01
-53.37
-24.39
-3.55
9.54
16.89
21.18
24.79
29.06
34.17
39.35
43.43
45.32
44.46
41.20
36.91
33.83
34.43
40.50
52.30
68.29
85.61
101.06
112.18
117.93
118.71
115.90
111.21
106.09
101.43
97.43
93.77
89.80
84.91
78.85
71.89
64.84
58.90
55.36
55.36
59.59
68.03
79.78
93.10
105.72
115.59
121.62
124.14
124.89
126.39
130.99
139.91
152.85
167.98
182.53
193.54
198.62
196.31
186.27
169.19
146.85
122.07
98.51
80.06
69.89
69.47
78.08
93.12
111.17
129.14
145.01
157.80
166.87
171.42
170.50
163.49
150.81
134.15
115.99
98.61
83.20
69.57
56.56
42.72
27.04
9.32
-9.88
-29.55
-48.78
-67.05
-84.51
-101.90
-120.25
-140.34
-162.37
-185.76
-209.36
-231.97
-252.78
-271.76
-289.67
-307.86
-328.00
-351.77
-380.38
-413.79
-449.94
-484.44
-511.16
-523.89
-518.50
-494.52
-455.34
-406.83
-355.09
-304.64
-257.86
-215.66
-178.54
-147.13
-121.74
-101.40
-83.29
-63.07
-36.27
0.27
47.54
104.37
167.84
233.77
297.01
351.65
391.79
412.72
412.29
391.62
354.62
306.64
252.60
195.93
138.61
82.19
28.79
-18.55
-56.71
-83.84
-100.40
-109.08
-113.64
-117.15
-120.66
-122.97
-121.59
-114.38
-100.87
-82.84
-63.72
-47.33
-36.57
-32.58
-34.61
-40.66
-48.31
-55.66
-61.61
-65.81
-68.31
-69.10
-68.04
-64.96
-59.89
-53.32
-46.05
-38.98
-32.72
-27.54
-23.39
-20.22
-18.13
-17.43
-18.49
-21.50
-26.29
-32.31
-38.82
-45.05
-50.45
-54.89
-58.71
-62.66
-67.60
-73.97
-81.18
-87.30
-89.33
-84.16
-69.92
-47.04
-18.42
11.42
37.89
57.83
70.26
76.15
77.45
76.04
73.14
69.28
64.73
59.89
55.43
52.09
50.26
49.66
49.39
48.15
44.80
38.82
30.52
20.94
11.34
2.75
-4.52
-10.88
-17.17
-24.16
-32.16
-40.80
-49.27
-56.64
-62.34
-66.37
-69.33
-72.23
-76.11
-81.80
-89.70
-99.58
-110.37
-120.08
-125.89
-124.69
-114.12
-93.54
-64.65
-31.32
1.53
29.36
49.34
60.83
65.01
64.04
60.07
54.74
49.06
43.68
39.05
35.52
33.17
31.73
30.63
29.19
26.96
23.98
20.74
18.02
16.43
16.02
16.11
15.55
13.16
8.30
1.19
-7.13
-15.22
-21.87
-26.57
-29.67
-32.30
-35.94
-41.91
-50.69
-61.48
-72.02
-78.96
-78.92
-69.66
-51.10
-25.57
2.85
29.66
51.32
66.00
73.60
75.21
72.30
66.29
58.41
49.83
41.71
34.98
30.16
27.13
25.25
23.65
21.68
19.16
16.40
13.93
12.14
10.98
9.86
7.84
4.02
-2.09
-10.34
-19.94
-29.76
-38.69
-45.99
-51.56
-55.98
-60.37
-66.12
-74.31
-85.22
-97.69
-109.10
-115.75
-113.99
-101.57
-78.76
-48.55
-15.81
14.23
37.64
52.74
60.16
61.96
60.52
57.62
54.15
50.43
46.76
43.74
42.27
43.23
46.99
53.08
60.27
67.01
71.95
74.35
74.10
71.50
66.88
60.30
51.60
40.57
27.40
12.83
-1.83
-15.00
-25.24
-31.75
-34.51
-34.34
-32.53
-30.54
-29.65
-30.88
-34.81
-41.48
-50.14
-59.18
-66.23
-68.81
-65.18
-55.11
-40.19
-23.35
-7.84
3.84
10.74
13.38
13.19
11.68
9.76
7.62
4.94
1.27
-3.59
-9.55
-16.35
-23.73
-31.59
-39.96
-48.90
-58.46
-68.73
-79.86
-92.04
-105.34
-119.50
-133.92
-147.76
-160.38
-171.72
-182.23
-192.49
-202.34
-210.47
-214.56
-212.21
-202.18
-185.19
-163.79
-141.37
-120.48
-101.78
-83.78
-63.57
-38.11
-5.25
35.86
85.03
141.11
201.50
261.36
313.50
349.80
364.30
356.61
333.42
306.80
289.35
288.57
303.41
324.98
340.86
340.96
321.66
286.56
244.23
204.47
175.17
160.57
160.92
172.93
190.62
206.79
214.54
209.06
188.69
154.95
111.55
62.90
12.88
-35.78
-81.66
-124.73
-166.51
-210.19
-260.12
-320.13
-391.27
-469.92
-547.58
-613.04
-656.14
-671.50
-660.52
-630.45
-591.22
-551.67
-516.90
-487.91
-463.07
-440.30
-418.42
-397.38
-377.49
-358.53
-339.50
-319.03
-296.07
-270.39
-242.79
-214.61
-187.23
-161.51
-137.65
-115.40
-94.41
-74.60
-56.36
-40.39
-27.37
-17.60
-10.80
-6.16
-2.62
0.77
4.56
8.82
13.26
17.45
21.09
24.13
26.74
29.20
31.71
34.33
36.99
39.58
42.08
44.53
47.07
49.82
52.78
55.85
58.90
61.88
64.89
68.22
72.22
77.13
82.94
89.33
95.80
101.88
107.35
112.39
117.51
123.34
130.37
138.68
147.95
157.65
167.29
176.71
186.08
195.90
206.83
219.62
235.13
254.05
276.43
301.02
324.93
344.02
354.13
352.57
339.18
316.37
288.16
258.73
231.34
208.01
189.91
177.81
172.17
172.66
177.77
184.69
190.07
191.08
186.42
176.57
163.41
149.37
136.56
126.29
118.96
114.25
111.43
109.53
107.65
105.14
101.77
97.76
93.61
89.76
86.29
82.83
78.73
73.41
66.73
59.02
51.00
43.47
37.06
32.13
28.70
26.59
25.37
24.49
23.36
21.49
18.53
14.33
8.85
2.18
-5.26
-12.59
-18.46
-21.34
-20.22
-15.28
-8.11
-1.26
2.76
2.58
-1.41
-7.32
-12.61
-15.22
-14.15
-9.56
-2.26
6.79
16.69
26.41
34.50
39.22
39.37
35.36
29.99
28.21
35.56
56.02
90.10
134.15
181.25
223.34
253.50
267.74
265.56
249.56
224.05
193.91
163.24
134.64
108.85
84.78
59.67
29.63
-9.27
-59.38
-119.54
-184.13
-243.57
-286.87
-305.26
-295.46
-260.95
-210.68
-155.61
-105.07
-64.55
-35.44
-16.62
-6.33
-3.24
-6.45
-14.73
-25.83
-36.58
-43.66
-44.66
-38.91
-27.77
-13.98
-0.63
9.88
16.48
19.47
20.00
19.41
18.64
17.98
17.20
15.83
13.38
9.43
3.60
-4.40
-14.65
-26.70
-39.26
-50.22
-57.06
-57.61
-50.98
-37.99
-21.19
-4.07
9.99
18.69
21.32
18.68
12.52
4.82
-2.73
-8.95
-13.23
-15.44
-15.88
-15.25
-14.52
-14.77
-16.71
-20.50
-25.60
-31.06
-35.97
-39.87
-42.86
-45.42
-47.91
-50.33
-52.22
-52.94
-52.14
-49.95
-47.11
-44.61
-43.39
-43.89
-45.86
-48.24
-49.38
-47.33
-40.44
-27.87
-10.01
11.57
34.61
56.86
76.86
94.25
109.62
123.95
137.98
151.72
164.36
174.43
180.17
179.78
171.78
155.29
130.36
98.28
61.68
24.22
-10.13
-37.99
-57.43
-68.33
-72.14
-71.24
-68.06
-64.44
-61.41
-59.32
-58.10
-57.58
-57.60
-58.10
-59.20
-61.36
-65.25
-71.46
-79.85
-89.05
-96.44
-98.76
-93.22
-78.67
-56.16
-28.61
0.24
27.13
50.20
69.29
85.36
99.66
112.92
124.94
134.61
140.35
140.67
134.58
122.00
103.72
81.40
57.27
33.81
13.42
-2.02
-11.29
-13.96
-10.15
-0.31
15.08
35.56
60.61
89.28
119.81
149.48
174.70
191.80
198.05
192.44
176.29
152.63
125.02
96.22
67.07
36.11
0.22
-43.82
-97.14
-156.88
-215.60
-262.75
-288.10
-285.80
-257.08
-210.35
-158.12
-112.61
-81.73
-67.71
-68.27
-79.22
-96.86
-118.69
-142.81
-166.91
-187.76
-201.72
-205.74
-198.16
-178.99
-149.99
-114.08
-74.96
-36.42
-1.53
28.04
52.47
73.46
93.35
113.97
135.88
158.32
179.71
198.34
212.88
222.22
225.35
221.18
208.73
187.56
158.01
120.89
76.84
26.20
-30.28
-89.94
-147.06
-193.02
-218.55
-217.13
-187.97
-136.86
-74.27
-11.67
42.01
82.20
108.24
121.48
123.57
115.78
99.45
76.68
50.26
22.75
-4.69
-32.75
-63.13
-97.21
-134.31
-171.28
-203.33
-225.75
-235.56
-232.38
-218.13
-195.94
-169.07
-140.17
-111.17
-83.39
-57.69
-34.26
-12.49
9.17
32.84
60.64
93.99
132.98
175.83
218.91
257.06
284.71
297.29
292.78
272.51
240.72
203.17
165.07
129.44
96.55
64.46
30.16
-9.47
-56.70
-112.14
-173.65
-235.75
-289.93
-326.69
-338.78
-324.19
-287.37
-237.72
-186.10
-141.04
-106.55
-82.30
-65.58
-53.66
-44.94
-38.84
-34.81
-31.60
-27.35
-20.45
-10.39
1.88
14.19
24.17
30.19
31.88
30.12
26.55
22.90
20.36
19.37
19.49
19.64
18.40
14.42
6.87
-4.23
-17.88
-32.20
-44.96
-54.15
-58.56
-57.97
-53.08
-45.16
-35.64
-25.72
-16.33
-8.06
-1.31
3.69
6.85
8.33
8.57
8.18
7.73
7.63
7.96
8.50
8.93
9.05
8.87
8.58
8.43
8.58
9.03
9.61
10.09
10.23
9.86
8.86
7.19
4.88
2.03
-1.23
-4.67
-8.02
-11.03
-13.58
-16.02
-19.02
-23.34
-29.18
-35.59
-40.24
-40.09
-32.51
-16.58
6.43
33.59
61.50
87.45
109.74
127.18
138.32
141.12
133.66
115.33
87.69
54.26
19.25
-14.01
-43.96
-70.75
-95.28
-118.34
-140.44
-162.23
-185.08
-210.95
-241.48
-276.68
-314.00
-348.69
-375.31
-389.70
-390.51
-379.33
-359.62
-335.01
-307.86
-278.90
-247.75
-214.06
-178.22
-141.42
-104.88
-69.03
-33.05
4.96
47.23
95.46
150.06
209.55
270.38
327.33
374.52
407.05
422.79
423.30
413.52
399.90
387.92
380.12
375.66
371.39
363.83
350.85
332.06
308.28
280.40
248.80
213.33
173.89
130.89
85.32
38.67
-7.46
-51.30
-90.90
-124.21
-149.46
-165.74
-173.43
-174.04
-169.65
-162.15
-152.81
-142.47
-131.86
-122.03
-114.15
-109.07
-106.81
-106.34
-106.06
-104.44
-100.74
-95.28
-89.26
-84.16
-81.10
-80.40
-81.50
-83.25
-84.40
-84.16
-82.49
-80.04
-77.97
-77.41
-79.15
-83.42
-89.76
-97.09
-103.72
-107.57
-106.55
-99.22
-85.40
-66.43
-44.92
-23.91
-5.92
7.75
17.19
23.49
27.96
31.69
35.20
38.60
41.83
44.85
47.72
50.51
53.23
55.79
58.04
59.90
61.39
62.73
64.17
65.91
67.94
69.98
71.52
72.00
71.09
68.80
65.53
61.94
58.67
56.15
54.40
53.14
51.94
50.45
48.56
46.44
44.41
42.79
41.68
41.00
40.49
39.77
38.53
36.60
33.98
30.86
27.58
24.40
21.43
18.52
15.32
11.48
6.78
1.34
-4.50
-10.22
-15.46
-20.09
-24.33
-28.69
-33.88
-40.64
-49.42
-60.02
-71.31
-81.25
-87.34
-87.42
-80.54
-67.41
-50.27
-32.16
-15.91
-3.29
5.23
10.33
13.28
15.36
17.55
20.34
23.88
28.00
32.36
36.59
40.30
43.20
45.13
46.03
46.01
45.32
44.31
43.36
42.74
42.54
42.61
42.62
42.19
41.08
39.28
36.93
34.27
31.43
28.37
24.96
21.06
16.72
12.17
7.78
3.82
0.38
-2.66
-5.49
-8.24
-10.92
-13.42
-15.65
-17.71
-19.89
-22.67
-26.60
-32.10
-39.27
-47.63
-56.11
-63.05
-66.69
-65.60
-59.28
-48.28
-34.14
-18.82
-4.19
8.44
18.43
25.71
30.65
33.73
35.49
36.37
36.66
36.51
35.97
35.11
34.14
33.34
33.07
33.55
34.84
36.73
38.89
40.96
42.61
43.64
43.93
43.42
42.12
40.05
37.29
33.98
30.30
26.49
22.84
19.59
16.97
15.05
13.81
13.08
12.58
12.05
11.28
10.19
8.79
7.18
5.43
3.51
1.35
-1.18
-4.10
-7.29
-10.55
-13.59
-16.18
-18.20
-19.73
-20.96
-22.19
-23.70
-25.74
-28.37
-31.54
-35.03
-38.58
-41.99
-45.15
-48.16
-51.31
-55.02
-59.66
-65.27
-71.31
-76.58
-79.40
-78.15
-71.87
-60.79
-46.35
-30.79
-16.45
-5.04
2.79
7.41
9.87
11.39
12.97
15.22
18.24
21.84
25.60
29.12
32.05
34.23
35.65
36.37
36.51
36.21
35.69
35.22
35.05
35.31
35.86
36.36
36.34
35.44
33.57
30.94
27.98
25.16
22.77
20.88
19.34
17.96
16.57
15.16
13.83
12.67
11.72
10.81
9.67
7.98
5.63
2.83
-0.00
-2.36
-3.97
-4.99
-5.94
-7.47
-10.02
-13.57
-17.61
-21.41
-24.39
-26.36
-27.61
-28.76
-30.52
-33.46
-37.83
-43.46
-49.76
-55.65
-59.71
-60.51
-57.06
-49.19
-37.78
-24.55
-11.56
-0.62
7.22
11.89
14.11
14.99
15.58
16.56
18.13
20.12
22.12
23.77
24.86
25.35
25.36
25.05
24.55
23.91
23.21
22.48
21.85
21.43
21.25
21.24
21.13
20.60
19.34
17.25
14.50
11.51
8.80
6.78
5.61
5.03
4.59
3.72
2.05
-0.44
-3.43
-6.37
-8.73
-10.21
-10.89
-11.22
-11.86
-13.38
-16.12
-19.96
-24.37
-28.56
-31.71
-33.28
-33.21
-32.05
-30.84
-30.93
-33.52
-39.17
-47.48
-56.85
-64.89
-69.04
-67.46
-59.66
-46.71
-30.84
-14.65
-0.32
10.85
18.48
22.79
24.23
23.33
20.75
17.31
14.08
12.07
11.91
13.58
16.47
19.64
22.36
24.42
26.20
28.42
31.67
36.10
41.34
46.65
51.24
54.52
56.17
56.03
54.07
50.18
44.50
37.51
30.18
23.85
19.88
19.23
22.12
27.80
34.89
41.75
46.96
49.63
49.53
47.06
43.12
38.97
36.15
36.15
40.04
47.91
58.49
69.10
76.09
75.70
65.10
43.38
