1552932584.00
64.000000
-0.00
-0.00
-0.00
-0.00
-0.00
-0.00
-0.00
-0.00
-0.00
-0.00
0.00
0.01
0.01
-0.00
-0.03
-0.05
-0.05
0.00
0.13
0.36
0.66
1.01
1.37
1.72
2.06
2.40
2.79
3.24
3.80
4.42
5.06
5.66
6.20
6.68
7.15
7.68
8.31
9.14
10.09
11.04
11.88
12.56
13.14
13.76
14.65
15.96
17.91
20.32
22.90
25.38
27.58
29.57
31.68
34.32
37.81
42.54
48.15
54.10
59.83
64.97
69.58
74.14
79.34
85.71
93.76
103.00
112.62
121.73
129.77
136.75
143.30
150.75
157.77
166.64
177.95
191.79
206.97
220.57
228.25
225.36
208.53
176.87
132.76
80.05
23.07
-34.94
-92.44
-149.16
-205.23
-260.37
-313.74
-363.87
-409.83
-450.91
-486.50
-515.74
-537.23
-549.22
-549.96
-538.37
-514.21
-478.67
-433.88
-382.45
-327.02
-269.84
-212.63
-156.66
-102.95
-52.37
-5.90
35.58
71.43
101.35
125.50
144.38
158.69
169.15
176.37
180.75
182.57
182.07
179.51
175.23
169.65
163.18
156.15
148.81
141.30
133.69
126.02
118.33
110.69
103.16
95.80
88.68
81.83
75.25
68.95
62.95
57.25
51.86
46.78
42.03
37.59
33.45
29.61
26.07
22.81
19.83
17.11
14.67
12.48
10.54
8.83
7.35
6.07
4.97
4.05
3.27
2.62
2.09
1.65
1.30
1.01
0.79
0.61
0.47
0.37
0.29
0.23
0.19
0.16
0.14
0.14
0.15
0.16
0.18
0.21
0.24
0.28
0.32
0.36
0.41
0.46
0.50
0.55
0.60
0.65
0.71
0.77
0.83
0.90
0.98
1.06
1.16
1.27
1.39
1.52
1.67
1.84
2.03
2.24
2.47
2.73
3.01
3.32
3.66
4.04
4.44
4.89
5.37
5.88
6.44
7.04
7.68
8.36
9.09
9.86
10.68
11.54
12.44
13.40
14.41
15.48
16.61
17.82
19.07
20.35
21.62
22.81
23.84
24.58
24.93
24.75
23.95
22.43
20.19
17.24
13.63
9.53
5.09
0.55
-3.90
-8.02
-11.62
-14.56
-16.72
-18.09
-18.68
-18.61
-18.00
-17.01
-15.75
-14.35
-12.85
-11.29
-9.69
-8.04
-6.39
-4.80
-3.29
-1.85
-0.43
1.04
2.64
4.44
6.49
8.66
10.82
12.89
14.86
16.77
18.76
20.98
23.57
26.61
29.78
32.80
35.48
37.79
39.85
41.97
44.49
47.68
51.64
55.76
59.47
62.32
64.18
65.25
66.02
67.05
68.74
71.21
73.46
74.48
73.43
69.78
63.43
54.39
42.45
26.46
9.29
-8.75
-28.00
-49.09
-72.80
-99.74
-129.81
-161.65
-192.34
-217.64
-233.91
-238.60
-231.41
-214.64
-192.22
-168.28
-145.82
-126.03
-108.60
-93.17
-79.29
-66.84
-55.91
-46.44
-38.11
-30.44
-23.06
-15.88
-9.45
-4.43
-1.25
0.08
-0.05
-0.95
-1.98
-2.80
-3.51
-4.70
-6.87
-10.04
-13.55
-16.13
-16.34
-13.07
-5.96
4.43
16.76
29.48
41.17
50.84
58.00
62.53
64.58
64.42
62.42
59.11
54.99
50.53
46.07
41.70
37.42
33.13
28.87
24.79
21.19
18.33
16.29
14.97
14.05
13.17
11.99
10.38
8.35
6.06
3.68
1.34
-0.95
-3.31
-5.89
-8.93
-12.62
-17.09
-22.26
-27.72
-32.65
-35.96
-36.46
-33.33
-26.41
-16.32
-4.40
7.80
18.91
28.10
35.13
40.16
43.47
45.26
45.55
44.38
41.91
38.49
34.58
30.65
26.94
23.53
20.34
17.36
14.62
12.29
10.54
9.42
8.77
8.28
7.57
6.39
4.66
2.48
0.04
-2.51
-5.22
-8.29
-12.07
-16.91
-22.94
-29.91
-37.07
-43.24
-47.08
-47.45
-43.72
-36.09
-25.41
-13.00
-0.22
11.81
22.35
31.02
37.57
41.88
43.86
43.64
41.54
38.14
34.08
29.92
26.02
22.46
19.20
16.20
13.54
11.43
10.08
9.54
9.62
9.88
9.78
8.89
7.02
4.37
1.35
-1.60
-4.26
-6.72
-9.37
-12.67
-16.95
-22.12
-27.61
-32.52
-35.83
-36.68
-34.58
-29.48
-21.78
-12.19
-1.62
8.95
18.65
26.76
32.83
36.70
38.40
38.19
36.47
33.67
30.25
26.60
22.98
19.54
16.34
13.45
10.94
8.92
7.46
6.50
5.89
5.35
4.65
3.69
2.44
0.99
-0.60
-2.30
-4.18
-6.35
-8.93
-12.01
-15.65
-19.81
-24.32
-28.72
-32.32
-34.25
-33.65
-29.95
-23.14
-13.79
-2.95
8.11
18.20
26.50
32.58
36.40
38.10
37.94
36.18
33.10
29.03
24.31
19.34
14.45
9.88
5.75
2.10
-1.04
-3.70
-5.85
-7.47
-8.64
-9.49
-10.26
-11.18
-12.42
-13.99
-15.80
-17.65
-19.48
-21.36
-23.57
-26.44
-30.15
-34.64
-39.38
-43.52
-46.08
-46.15
-43.18
-37.13
-28.46
-18.01
-6.84
4.01
13.67
21.55
27.33
30.94
32.52
32.38
30.90
28.54
25.69
22.68
19.62
16.55
13.44
10.38
7.55
5.22
3.54
2.49
1.85
1.30
0.58
-0.40
-1.55
-2.72
-3.92
-5.23
-6.86
-8.91
-11.35
-14.00
-16.75
-19.59
-22.74
-26.29
-29.99
-33.08
-34.39
-32.85
-27.92
-19.93
-10.09
0.02
9.02
16.20
21.53
25.44
28.33
30.34
31.25
30.83
29.06
26.34
23.30
20.54
18.36
16.70
15.24
13.69
12.03
10.46
9.29
8.76
8.84
9.34
9.97
10.44
10.54
10.19
9.34
8.09
6.57
5.06
3.76
2.75
1.86
0.71
-0.96
-3.16
-5.35
-6.56
-5.72
-2.08
4.38
12.95
22.43
31.61
39.62
46.15
51.30
55.46
58.97
62.13
65.06
67.62
69.35
69.40
66.76
60.57
50.57
37.36
22.25
6.95
-7.09
-18.92
-28.28
-35.32
-40.45
-44.16
-46.94
-49.35
-51.89
-54.89
-58.33
-61.91
-65.16
-67.82
-69.92
-71.74
-73.65
-75.78
-77.94
-79.65
-80.36
-79.62
-77.26
-73.31
-67.96
-61.46
-54.15
-46.41
-38.69
-31.42
-24.92
-19.30
-14.43
-10.11
-6.13
-2.43
0.88
3.61
5.65
7.03
8.00
8.86
9.88
11.16
12.57
13.85
14.71
15.02
14.83
14.35
13.80
13.32
12.93
12.54
12.07
11.48
10.78
9.93
8.83
7.31
5.27
2.80
0.23
-1.91
-3.09
-2.88
-1.21
1.68
5.26
8.92
12.08
14.41
15.84
16.60
17.01
17.33
17.63
17.78
17.60
16.98
15.99
14.86
13.80
12.94
12.19
11.33
10.18
8.76
7.24
5.87
4.74
3.75
2.64
1.18
-0.61
-2.45
-3.89
-4.60
-4.63
-4.36
-4.37
-5.11
-6.66
-8.70
-10.64
-11.91
-12.24
-11.68
-10.46
-8.82
-6.87
-4.57
-1.90
1.04
3.85
6.07
7.32
7.52
6.98
6.21
5.71
5.71
5.98
6.06
5.53
4.26
2.59
1.09
0.29
0.45
1.28
2.20
2.62
2.27
1.33
0.25
-0.51
-0.71
-0.49
-0.23
-0.27
-0.78
-1.62
-2.48
-3.09
-3.33
-3.32
-3.29
-3.45
-3.82
-4.23
-4.43
-4.23
-3.54
-2.49
-1.30
-0.20
0.65
1.22
1.55
1.70
1.77
1.85
2.03
2.39
2.88
3.45
3.96
4.30
4.46
4.47
4.42
4.30
4.07
3.65
3.01
2.25
1.54
1.07
0.91
0.96
1.04
0.98
0.67
0.17
-0.36
-0.77
-0.99
-1.10
-1.25
-1.65
-2.38
-3.42
-4.62
-5.69
-6.39
-6.56
-6.20
-5.38
-4.29
-3.08
-1.88
-0.84
-0.06
0.38
0.49
0.33
0.06
-0.18
-0.24
-0.08
0.25
0.64
0.95
1.07
0.92
0.52
-0.05
-0.65
-1.16
-1.55
-1.89
-2.27
-2.76
-3.34
-3.85
-4.09
-3.97
-3.53
-3.01
-2.69
-2.80
-3.31
-3.97
-4.42
-4.37
-3.76
-2.75
-1.65
-0.70
0.02
0.64
1.38
2.31
3.30
4.02
4.12
3.46
2.17
0.68
-0.54
-1.17
-1.20
-0.89
-0.62
-0.65
-0.99
-1.45
-1.75
-1.71
-1.31
-0.76
-0.25
0.03
0.05
-0.12
-0.40
-0.75
-1.24
-1.96
-2.99
-4.26
-5.65
-6.95
-7.99
-8.68
-9.03
-9.12
-8.98
-8.61
-7.97
-6.99
-5.64
-3.99
-2.18
-0.43
1.05
2.11
2.71
2.94
2.92
2.85
2.81
2.83
2.86
2.83
2.74
2.59
2.43
2.28
2.10
1.81
1.32
0.58
-0.34
-1.27
-2.03
-2.45
-2.52
-2.38
-2.28
-2.46
-2.98
-3.76
-4.57
-5.23
-5.69
-6.08
-6.61
-7.39
-8.32
-9.10
-9.33
-8.67
-7.04
-4.61
-1.76
1.08
3.50
5.23
6.15
6.30
5.83
4.96
3.99
3.19
2.73
2.68
2.97
3.48
4.03
4.47
4.66
4.53
4.10
3.43
2.66
1.89
1.22
0.64
0.13
-0.34
-0.72
-0.94
-0.97
-0.83
-0.66
-0.60
-0.79
-1.21
-1.71
-2.08
-2.15
-1.90
-1.46
-1.02
-0.74
-0.59
-0.33
0.31
1.53
3.28
5.20
6.84
7.82
8.07
7.78
7.22
6.61
5.97
5.22
4.30
3.35
2.61
2.33
2.44
2.69
2.68
2.12
1.07
-0.10
-0.93
-1.11
-0.73
-0.17
0.08
-0.27
-1.16
-2.21
-2.94
-3.05
-2.64
-2.11
-1.89
-2.21
-2.95
-3.71
-4.05
-3.73
-2.92
-2.05
-1.52
-1.49
-1.78
-1.89
-1.45
-0.35
1.03
2.07
2.24
1.41
0.01
-1.29
-1.89
-1.54
-0.60
0.36
0.84
0.72
0.29
0.06
0.42
1.45
2.84
4.09
4.78
4.69
3.87
2.55
1.06
-0.33
-1.50
-2.38
-3.02
-3.43
-3.64
-3.66
-3.54
-3.28
-2.96
-2.63
-2.31
-2.04
-1.83
-1.71
-1.67
-1.67
-1.60
-1.33
-0.77
0.07
1.07
2.07
2.87
3.37
3.53
3.41
3.08
2.62
2.04
1.34
0.57
-0.22
-0.91
-1.37
-1.54
-1.48
-1.32
-1.25
-1.41
-1.83
-2.37
-2.86
-3.15
-3.25
-3.34
-3.64
-4.25
-5.12
-5.91
-6.27
-5.93
-4.86
-3.28
-1.52
0.11
1.49
2.67
3.77
4.82
5.78
6.44
6.67
6.46
5.97
5.47
5.15
5.04
4.96
4.70
4.08
3.17
2.19
1.42
1.03
0.91
0.83
0.50
-0.20
-1.16
-2.11
-2.80
-3.14
-3.25
-3.39
-3.78
-4.48
-5.36
-6.17
-6.68
-6.77
-6.51
-6.08
-5.67
-5.38
-5.15
-4.77
-4.00
-2.71
-0.93
1.05
2.89
4.28
5.16
5.66
6.02
6.41
6.80
7.00
6.81
6.13
5.14
4.15
3.46
3.20
3.26
3.39
3.36
3.11
2.72
2.40
2.22
2.16
2.02
1.62
0.83
-0.23
-1.33
-2.21
-2.72
-2.93
-3.02
-3.19
-3.55
-3.97
-4.18
-3.81
-2.70
-0.93
1.13
2.95
4.06
4.29
3.83
3.10
2.46
2.12
1.98
1.80
1.43
0.91
0.46
0.34
0.57
0.94
1.11
0.85
0.17
-0.67
-1.43
-2.02
-2.67
-3.70
-5.28
-7.20
-8.95
-9.91
-9.75
-8.54
-6.94
-5.72
-5.43
-6.22
-7.70
-9.21
-10.19
-10.34
-9.78
-8.82
-7.71
-6.50
-5.02
-3.10
-0.71
1.92
4.36
6.18
7.10
7.10
6.35
5.07
3.48
1.76
0.07
-1.41
-2.49
-3.07
-3.12
-2.80
-2.32
-1.93
-1.80
-2.04
-2.62
-3.52
-4.65
-5.91
-7.19
-8.35
-9.36
-10.23
-11.12
-12.18
-13.48
-14.93
-16.16
-16.64
-15.84
-13.42
-9.41
-4.29
1.22
6.33
10.45
13.31
14.99
15.74
15.89
15.68
15.25
14.69
14.11
13.59
13.19
12.86
12.46
11.83
10.88
9.62
8.21
6.87
5.72
4.75
3.84
2.75
1.37
-0.29
-2.06
-3.69
-4.94
-5.78
-6.39
-7.09
-8.18
-9.79
-11.72
-13.50
-14.58
-14.47
-12.98
-10.23
-6.59
-2.59
1.34
4.92
8.03
10.65
12.73
14.15
14.83
14.70
13.93
12.83
11.74
10.95
10.49
10.23
9.92
9.42
8.72
8.00
7.47
7.24
7.22
7.15
6.72
5.73
4.21
2.45
0.88
-0.15
-0.55
-0.54
-0.54
-0.96
-2.00
-3.54
-5.22
-6.63
-7.44
-7.59
-7.11
-6.16
-4.80
-3.03
-0.88
1.54
3.95
5.94
7.13
7.33
6.63
5.41
4.14
3.26
2.94
3.07
3.40
3.64
3.67
3.55
3.45
3.53
3.80
4.12
4.29
4.13
3.64
2.94
2.21
1.59
1.09
0.56
-0.14
-1.10
-2.26
-3.40
-4.27
-4.69
-4.62
-4.19
-3.62
-3.03
-2.48
-1.87
-1.09
-0.09
1.07
2.19
3.05
3.48
3.48
3.16
2.74
2.41
2.29
2.35
2.46
2.42
2.06
1.34
0.37
-0.64
-1.48
-2.03
-2.32
-2.54
-2.85
-3.34
-3.96
-4.56
-5.02
-5.35
-5.67
-6.24
-7.18
-8.52
-10.08
-11.62
-12.86
-13.62
-13.78
-13.30
-12.13
-10.17
-7.40
-3.94
-0.12
3.54
6.47
8.32
9.04
8.96
8.60
8.38
8.46
8.73
8.95
8.93
8.61
8.07
7.39
6.53
5.38
3.84
1.97
-0.06
-1.96
-3.55
-4.75
-5.57
-6.10
-6.40
-6.56
-6.64
-6.78
-7.13
-7.80
-8.92
-10.50
-12.43
-14.46
-16.24
-17.25
-17.03
-15.28
-12.04
-7.72
-2.97
1.56
5.38
8.27
10.23
11.34
11.70
11.40
10.56
9.46
8.40
7.66
7.27
7.02
6.55
5.56
4.01
2.20
0.57
-0.53
-1.13
-1.51
-2.04
-2.90
-3.97
-4.87
-5.32
-5.32
-5.32
-5.93
-7.55
-10.19
-13.35
-16.32
-18.46
-19.42
-19.29
-18.20
-16.27
-13.45
-9.62
-4.78
0.77
6.47
11.56
15.34
17.47
18.00
17.37
16.21
15.07
14.31
13.94
13.83
13.72
13.41
12.83
12.03
11.11
10.23
9.43
8.72
8.06
7.38
6.57
5.55
4.31
2.91
1.45
0.01
-1.40
-2.85
-4.42
-6.21
-8.22
-10.31
-12.26
-13.74
-14.40
-13.93
-12.18
-9.25
-5.47
-1.33
2.66
6.12
8.93
11.08
12.65
13.63
13.96
13.65
12.85
11.91
11.18
10.84
10.82
10.81
10.46
9.61
8.34
6.92
5.64
4.67
3.98
3.43
2.86
2.21
1.53
0.90
0.43
0.11
-0.13
-0.44
-0.91
-1.60
-2.45
-3.31
-4.00
-4.36
-4.27
-3.65
-2.55
-1.05
0.71
2.54
4.24
5.67
6.74
7.47
7.92
8.18
8.30
8.27
8.03
7.50
6.68
5.66
4.64
3.81
3.31
3.13
3.10
2.97
2.53
1.68
0.55
-0.68
-1.78
-2.64
-3.26
-3.73
-4.21
-4.78
-5.48
-6.29
-7.26
-8.39
-9.68
-11.04
-12.25
-12.96
-12.84
-11.69
-9.51
-6.60
-3.43
-0.57
1.61
2.93
3.46
3.53
3.46
3.50
3.70
3.93
4.03
3.87
3.49
3.04
2.58
2.08
1.33
0.12
-1.55
-3.43
-5.07
-6.06
-6.30
-6.09
-5.89
-6.16
-7.00
-8.19
-9.37
-10.26
-10.92
-11.64
-12.71
-14.19
-15.78
-16.93
-17.07
-15.85
-13.37
-10.03
-6.36
-2.81
0.39
3.26
5.83
8.10
9.78
10.50
10.05
8.52
6.37
4.29
2.86
2.30
2.33
2.38
1.90
0.71
-0.97
-2.63
-3.89
-4.65
-5.25
-6.23
-7.97
-10.45
-13.23
-15.69
-17.39
-18.35
-19.04
-20.09
-21.89
-24.35
-26.85
-28.53
-28.67
-26.89
-23.31
-18.36
-12.56
-6.42
-0.36
5.27
10.11
13.85
16.35
17.64
18.02
17.93
17.73
17.69
17.84
18.08
18.25
18.25
18.07
17.74
17.33
16.84
16.28
15.60
14.78
13.88
12.96
12.08
11.26
10.47
9.63
8.69
7.65
6.58
5.51
4.50
3.51
2.46
1.33
0.16
-0.86
-1.49
-1.51
-0.84
0.47
2.17
3.96
5.57
6.88
7.87
8.62
9.21
9.66
9.90
9.84
9.48
8.87
8.18
7.58
7.14
6.84
6.56
6.21
5.80
5.41
5.16
5.07
5.06
4.95
4.54
3.77
2.73
1.67
0.85
0.44
0.37
0.43
0.34
-0.09
-0.84
-1.69
-2.37
-2.67
-2.59
-2.26
-1.89
-1.60
-1.30
-0.82
0.03
1.28
2.71
3.99
4.77
4.90
4.45
3.74
3.08
2.71
2.63
2.67
2.61
2.36
1.98
1.63
1.45
1.46
1.48
1.33
0.87
0.15
-0.61
-1.16
-1.32
-1.09
-0.66
-0.29
-0.20
-0.52
-1.17
-1.99
-2.79
-3.44
-3.97
-4.47
-5.06
-5.77
-6.42
-6.81
-6.72
-6.12
-5.18
-4.24
-3.60
-3.39
-3.54
-3.82
-4.02
-4.08
-4.09
-4.24
-4.61
-5.14
-5.64
-5.91
-5.84
-5.47
-4.99
-4.58
-4.41
-4.51
-4.78
-5.03
-5.08
-4.81
-4.29
-3.72
-3.35
-3.36
-3.69
-4.14
-4.38
-4.23
-3.72
-3.12
-2.77
-2.84
-3.30
-3.89
-4.31
-4.35
-4.03
-3.47
-2.84
-2.19
-1.48
-0.64
0.30
1.22
1.89
2.13
1.96
1.51
1.04
0.78
0.82
1.05
1.32
1.45
1.36
1.10
0.76
0.44
0.21
0.09
0.07
0.12
0.19
0.27
0.36
0.49
0.74
1.16
1.79
2.59
3.50
4.45
5.39
6.30
7.14
7.83
8.27
8.39
8.20
7.85
7.56
7.56
7.94
8.58
9.21
9.51
9.32
8.64
7.65
6.59
5.57
4.65
3.80
3.06
2.58
2.51
2.82
3.30
3.58
3.34
2.57
1.51
0.59
0.17
0.28
0.68
0.99
0.93
0.49
-0.10
-0.52
-0.55
-0.31
-0.10
-0.25
-0.86
-1.74
-2.44
-2.49
-1.73
-0.42
0.85
1.53
1.38
0.64
-0.11
-0.33
0.13
0.92
1.39
1.03
-0.24
-1.94
-3.30
-3.73
-3.12
-1.99
-1.12
-1.13
-2.10
-3.55
-4.71
-5.00
-4.29
-3.03
-1.86
-1.33
-1.58
-2.29
-3.01
-3.35
-3.21
-2.79
-2.45
-2.43
-2.75
-3.20
-3.45
-3.25
-2.48
-1.25
0.18
1.56
2.65
3.36
3.71
3.82
3.83
3.89
4.06
4.27
4.41
4.27
3.70
2.72
1.50
0.34
-0.44
-0.71
-0.57
-0.28
-0.16
-0.37
-0.86
-1.44
-1.86
-2.05
-2.10
-2.24
-2.67
-3.41
-4.27
-4.97
-5.27
-5.10
-4.60
-4.01
-3.61
-3.52
-3.72
-4.05
-4.29
-4.28
-3.94
-3.33
-2.59
-1.89
-1.33
-0.99
-0.83
-0.80
-0.84
-0.89
-0.93
-0.91
-0.81
-0.64
-0.42
-0.21
-0.05
-0.01
-0.10
-0.34
-0.71
-1.17
-1.67
-2.10
-2.39
-2.46
-2.34
-2.10
-1.86
-1.71
-1.67
-1.72
-1.80
-1.90
-2.00
-2.16
-2.42
-2.81
-3.30
-3.79
-4.20
-4.37
-4.18
-3.57
-2.55
-1.26
0.09
1.25
2.13
2.70
3.11
3.47
3.92
4.42
4.86
5.16
5.28
5.29
5.38
5.70
6.32
7.18
8.09
8.87
9.41
9.83
10.43
11.55
13.44
16.06
19.07
21.97
24.40
26.35
28.19
30.55
33.96
38.50
43.68
48.63
52.46
54.72
55.65
56.10
57.19
59.79
64.26
70.17
76.48
81.81
84.68
83.89
78.79
69.53
57.14
43.37
30.32
19.94
13.57
11.66
13.99
19.63
27.39
35.81
43.26
47.91
47.94
41.78
28.48
7.99
-18.60
-49.06
-80.09
-107.98
-129.38
-142.86
-149.74
-154.31
-162.15
-177.80
-202.19
-231.62
-258.97
-276.59
-279.57
-267.60
-244.66
-216.80
-189.46
-165.64
-145.45
-127.09
-108.10
-86.62
-61.81
-33.78
-3.34
28.42
60.40
91.62
121.14
147.85
170.37
187.21
197.23
200.13
196.84
189.21
179.51
169.54
160.27
151.80
143.65
135.29
126.50
117.48
108.82
101.24
95.27
90.95
87.50
83.53
77.45
68.19
55.87
41.77
27.75
15.24
4.54
-5.45
-16.73
-31.45
-50.89
-74.96
-102.09
-129.84
-155.81
-178.68
-198.77
-217.62
-236.82
-256.65
-275.34
-289.61
-296.26
-293.97
-283.93
-268.99
-251.68
-232.39
-209.19
-179.37
-141.64
-97.37
-50.04
-3.05
42.39
87.81
135.98
188.23
242.54
293.43
334.01
358.86
366.15
357.91
338.77
314.20
289.21
268.07
254.36
250.88
258.92
277.23
301.73
326.27
344.52
351.98
347.35
332.47
311.18
287.52
264.45
243.27
223.90
205.72
187.88
169.56
149.60
126.39
97.96
62.48
18.95
-32.24
-89.13
-148.50
-206.34
-258.68
-302.14
-334.45
-354.61
-362.84
-360.46
-349.58
-332.82
-312.84
-291.90
-271.50
-252.17
-233.74
-215.69
-197.60
-179.26
-160.66
-141.87
-123.02
-104.51
-87.09
-71.81
-59.52
-50.35
-43.33
-36.69
-28.60
-18.06
-5.40
7.72
19.16
27.07
30.60
29.94
25.97
19.70
12.02
3.62
-4.78
-12.22
-17.67
-20.26
-19.79
-16.89
-12.86
-9.21
-7.03
-6.72
-7.90
-9.86
-11.92
-13.72
-15.31
-16.99
-19.16
-22.19
-26.39
-32.01
-39.26
-48.24
-58.87
-70.83
-83.60
-96.59
-109.26
-121.22
-132.17
-141.77
-149.45
-154.41
-155.65
-152.16
-143.32
-129.05
-109.99
-87.44
-63.08
-38.68
-15.78
4.51
21.57
35.17
45.31
52.16
56.14
57.92
58.44
58.74
59.54
61.09
63.11
65.12
66.72
67.79
68.42
68.66
68.30
66.94
64.17
59.96
54.77
49.57
45.43
43.22
43.27
45.35
48.53
51.45
52.67
51.19
47.03
41.51
37.07
36.34
41.15
51.69
66.38
82.47
97.25
108.77
116.19
119.34
117.83
110.74
96.91
75.86
48.81
18.85
-9.87
-33.58
-50.18
-59.80
-64.09
-65.07
-64.05
-61.31
-56.57
-49.77
-41.50
-32.85
-24.74
-17.59
-11.12
-4.90
1.22
6.84
11.23
13.77
14.35
13.35
11.39
8.94
6.01
2.29
-2.61
-8.88
-16.13
-23.51
-29.80
-33.95
-35.41
-34.37
-31.62
-28.14
-24.57
-21.08
-17.43
-13.53
-9.77
-7.05
-6.36
-8.30
-12.49
-17.85
-23.04
-27.13
-30.01
-32.34
-34.96
-38.47
-42.68
-46.90
-50.12
-51.50
-50.66
-47.92
-44.11
-40.50
-38.39
-38.88
-42.57
-49.34
-58.38
-68.41
-77.91
-85.55
-90.29
-91.41
-88.40
-81.45
-71.81
-62.08
-55.50
-54.46
-58.85
-65.32
-68.30
-62.34
-44.63
-16.32
17.98
52.10
80.43
99.12
105.88
99.74
80.85
51.15
15.04
-21.10
-50.52
-68.52
-74.15
-69.97
-60.47
-49.83
-40.37
-32.36
-25.03
-17.72
-10.47
-3.82
1.94
7.17
12.92
20.18
29.27
39.52
49.44
57.45
62.48
64.37
63.84
62.07
60.22
59.02
58.55
58.37
57.84
56.51
54.43
52.10
50.20
49.18
49.08
49.55
50.07
50.30
50.19
49.98
49.86
49.90
49.78
49.05
47.27
44.29
40.22
35.39
30.18
24.85
19.61
14.52
9.65
5.10
0.98
-2.54
-5.32
-7.24
-8.22
-8.11
-6.80
-4.18
-0.30
4.54
9.81
14.83
18.95
21.83
23.38
23.83
23.52
22.88
22.24
21.94
22.22
23.28
25.13
27.55
30.12
32.36
33.99
35.11
36.22
38.00
40.94
45.08
49.99
54.89
59.09
62.25
64.51
66.17
67.51
68.55
68.95
68.33
66.50
63.47
59.28
53.52
45.40
34.12
19.35
1.81
-16.75
-34.31
-49.32
-61.64
-72.22
-82.46
-93.13
-103.76
-112.75
-118.39
-119.80
-117.68
-113.99
-110.97
-110.11
-111.52
-114.07
-116.13
-116.25
-114.05
-109.79
-104.18
-97.80
-91.06
-84.24
-77.97
-73.22
-71.60
-74.54
-82.68
-95.32
-110.23
-124.23
-134.49
-139.79
-141.60
-142.99
-146.88
-153.81
-161.10
-163.99
-158.51
-144.18
-124.85
-106.68
-94.81
-90.44
-90.54
-90.20
-85.77
-76.90
-66.39
-57.85
-53.29
-52.36
-53.31
-54.65
-56.48
-59.96
-66.34
-75.62
-86.31
-96.29
-103.70
-107.43
-106.77
-101.08
-89.87
-73.50
-53.85
-34.30
-18.76
-9.98
-8.10
-10.48
-12.85
-11.09
-2.92
11.64
30.69
51.64
72.18
90.69
106.10
117.56
124.50
126.81
125.17
121.11
116.82
114.40
115.28
119.68
126.55
133.86
139.16
140.34
136.27
127.18
114.55
100.69
88.03
78.30
71.97
68.01
64.13
57.60
46.30
29.87
10.20
-8.80
-22.47
-27.08
-21.10
-5.71
15.73
38.90
59.83
75.84
86.01
91.19
93.67
96.33
101.58
110.17
120.76
130.49
136.48
137.43
134.33
129.82
126.53
125.56
126.00
125.83
123.39
118.43
112.09
105.74
99.72
92.79
82.83
68.12
48.73
26.78
5.77
-10.78
-20.42
-22.14
-16.07
-2.96
16.03
39.20
64.03
87.25
105.38
115.53
116.21
107.76
92.21
72.72
53.18
37.78
30.47
34.11
49.38
73.82
102.05
127.11
142.61
144.93
134.19
113.62
87.94
61.27
35.98
12.72
-8.51
-27.07
-41.11
-48.19
-46.65
-36.87
-21.54
-4.64
10.10
20.86
28.23
34.46
41.85
51.38
62.18
72.13
79.25
82.73
83.24
82.23
80.87
79.29
76.58
71.63
63.93
54.24
44.29
36.05
30.67
27.90
26.13
23.19
17.35
8.11
-3.67
-16.28
-27.91
-37.44
-44.69
-50.17
-54.63
-58.46
-61.58
-63.53
-63.81
-62.15
-58.66
-53.70
-47.75
-41.19
-34.36
-27.59
-21.29
-15.92
-11.82
-9.08
-7.53
-6.81
-6.57
-6.64
-7.05
-7.94
-9.35
-11.20
-13.25
-15.26
-17.10
-18.84
-20.64
-22.64
-24.83
-27.02
-28.89
-30.09
-30.51
-30.28
-29.78
-29.60
-30.27
-32.14
-35.29
-39.47
-44.13
-48.45
-51.39
-51.92
-49.25
-43.08
-33.83
-22.55
-10.69
0.35
9.53
16.32
20.69
22.84
23.12
21.84
19.36
16.05
12.32
8.59
5.18
2.31
0.03
-1.76
-3.26
-4.74
-6.44
-8.47
-10.77
-13.19
-15.51
-17.67
-19.72
-21.83
-24.22
-27.09
-30.56
-34.73
-39.66
-45.22
-50.96
-56.00
-59.08
-58.89
-54.51
-45.82
-33.47
-18.96
-4.01
9.76
21.17
29.65
35.17
38.09
38.94
38.13
35.92
32.50
28.08
23.12
18.29
14.26
11.53
9.98
9.07
8.06
6.50
4.38
2.16
0.27
-1.13
-2.44
-4.28
-7.12
-10.95
-15.26
-19.39
-23.06
-26.58
-30.79
-36.41
-43.41
-50.62
-56.00
-57.31
-53.14
-43.39
-29.44
-13.48
2.26
16.22
27.68
36.56
42.99
47.06
48.67
47.87
44.97
40.64
35.70
30.89
26.63
23.04
19.99
17.29
14.85
12.70
10.92
9.61
8.74
8.14
7.50
6.40
4.47
1.51
-2.42
-6.97
-11.65
-15.97
-19.68
-22.90
-26.15
-30.10
-35.33
-41.89
-49.12
-55.67
-59.79
-59.90
-55.09
-45.42
-31.93
-16.31
-0.43
14.12
26.31
35.63
41.94
45.31
45.89
43.98
40.06
34.88
29.33
24.16
19.85
16.39
13.46
10.64
7.74
4.90
2.57
1.17
0.83
1.25
1.74
1.56
0.15
-2.56
-6.27
-10.45
-14.57
-18.34
-21.75
-24.97
-28.26
-31.81
-35.78
-40.28
-45.37
-50.88
-56.29
-60.59
-62.51
-60.75
-54.55
-43.96
-29.92
-14.09
1.71
15.88
27.36
35.74
41.13
43.90
44.51
43.31
40.60
36.68
31.96
27.01
22.45
18.82
16.36
14.96
14.26
13.83
13.39
12.88
12.41
12.02
11.64
11.02
9.92
8.14
5.69
2.73
-0.59
-4.17
-7.93
-11.81
-15.71
-19.44
-22.82
-25.79
-28.49
-31.28
-34.66
-39.06
-44.51
-50.47
-55.79
-58.92
-58.41
-53.37
-43.83
-30.74
-15.72
-0.53
13.33
24.87
33.55
39.21
41.88
41.81
39.46
35.48
30.67
25.74
21.13
17.02
13.35
10.04
7.10
4.72
3.11
2.38
2.44
3.03
3.88
4.76
5.62
6.45
7.12
7.45
7.06
5.67
3.30
0.36
-2.50
-4.65
-5.85
-6.36
-7.07
-9.09
-13.38
-20.21
-28.97
-38.21
-46.03
-50.62
-50.81
-46.33
-37.74
-26.22
-13.20
-0.18
11.38
20.13
24.89
24.77
19.50
9.51
-4.06
-19.56
-35.30
-49.79
-62.17
-72.18
-80.10
-86.39
-91.34
-94.90
-96.62
-95.98
-92.83
-87.65
-81.56
-75.91
-71.94
-70.40
-71.61
-75.50
-81.62
-89.07
-96.36
-101.65
-103.38
-101.18
-96.47
-92.30
-92.04
-97.73
-108.70
-121.47
-131.04
-132.92
-124.87
-107.59
-83.98
-57.62
-31.25
-6.06
18.08
41.82
65.45
88.59
110.37
129.92
146.65
160.41
171.18
178.89
183.30
184.15
181.44
175.69
167.99
159.79
152.54
147.18
143.91
142.04
140.18
136.65
130.05
119.77
106.21
90.65
74.80
60.22
47.72
37.28
28.01
18.66
8.04
-4.46
-18.58
-33.04
-45.70
-54.11
-56.20
-51.03
-39.12
-22.41
-3.58
14.73
30.59
43.02
51.82
57.20
59.44
58.76
55.38
49.73
42.40
34.12
25.63
17.53
10.31
4.30
-0.23
-3.23
-4.86
-5.59
-6.15
-7.37
-9.85
-13.78
-18.90
-24.59
-30.20
-35.29
-39.87
-44.32
-49.30
-55.59
-64.00
-75.17
-89.33
-105.74
-122.31
-135.51
-141.08
-135.14
-115.50
-82.45
-38.61
11.75
63.77
112.79
154.73
186.30
205.18
210.40
202.68
184.48
159.48
131.76
104.85
81.16
61.88
47.29
37.08
30.55
26.67
24.14
21.50
17.42
11.05
2.26
-8.37
-19.79
-30.87
-40.73
-49.08
-56.22
-63.04
-70.76
-80.61
-93.38
-108.87
-125.55
-140.54
-150.28
-151.43
-142.00
-122.12
-94.04
-61.61
-29.15
-0.54
21.63
36.23
43.54
44.76
41.57
35.59
28.14
20.05
11.78
3.67
-3.92
-10.50
-15.52
-18.58
-19.65
-19.06
-17.49
-15.75
-14.57
-14.64
-16.51
-20.59
-26.99
-35.39
-45.09
-55.18
-64.94
-74.12
-83.12
-92.52
-102.63
-112.85
-121.54
-126.43
-125.39
-117.32
-102.59
-82.92
-60.59
-37.67
-15.29
6.42
27.88
49.32
70.24
89.33
104.98
115.97
122.10
124.16
123.62
122.04
120.64
120.09
120.55
121.71
122.83
122.90
120.80
115.73
107.39
96.13
82.73
68.16
53.27
38.76
25.31
13.80
5.25
0.51
-0.13
2.73
7.59
12.53
15.76
16.25
14.03
10.12
5.97
2.84
1.27
0.97
1.14
0.98
0.21
-0.88
-1.56
-1.14
0.62
3.43
6.43
8.63
9.25
8.09
5.51
2.35
-0.46
-2.29
-3.13
-3.56
-4.47
-6.71
-10.69
-16.26
-22.93
-30.11
-37.38
-44.47
-51.12
-56.98
-61.74
-65.28
-67.88
-70.05
-72.11
-73.63
-73.22
-68.96
-59.18
-43.44
-23.01
-0.64
20.21
36.48
46.19
48.72
44.46
34.50
20.29
3.50
-14.06
-30.60
-44.59
-54.99
-61.43
-64.06
-63.43
-60.26
-55.29
-49.20
-42.58
-35.80
-29.14
-22.72
-16.59
-10.79
-5.43
-0.66
3.27
6.06
7.29
6.53
3.40
-2.19
-9.89
-18.86
-27.77
-35.15
-39.61
-40.20
-36.54
-28.88
-18.11
-5.58
7.12
18.28
26.49
30.77
30.85
27.23
21.04
13.74
6.72
0.95
-3.24
-6.03
-7.91
-9.32
-10.42
-11.15
-11.32
-10.90
-10.12
-9.39
-9.17
-9.68
-10.80
-12.20
-13.47
-14.40
-15.08
-15.85
-17.16
-19.36
-22.58
-26.73
-31.51
-36.39
-40.68
-43.44
-43.69
-40.53
-33.43
-22.53
-8.77
6.29
20.81
33.12
42.17
47.68
50.03
49.96
48.28
45.58
42.29
38.66
34.92
31.35
28.17
25.53
23.46
21.92
20.81
20.06
19.62
19.39
19.22
18.79
17.73
15.66
12.39
7.97
2.72
-2.79
-8.07
-12.72
-16.77
-20.61
-24.80
-29.76
-35.39
-40.91
-45.07
-46.43
-43.87
-36.94
-25.95
-11.90
3.76
19.46
33.70
45.27
53.35
57.64
58.30
55.99
51.59
46.15
40.52
35.30
30.72
26.67
22.91
19.23
15.64
12.44
9.83
7.91
6.46
5.08
3.33
1.02
-1.88
-5.25
-9.22
-13.93
-19.44
-25.47
-31.34
-36.26
-39.88
-42.59
-45.65
-50.36
-57.19
-65.10
-71.60
-73.69
-69.16
-57.64
-41.02
-22.41
-4.95
9.45
20.55
29.21
36.42
42.44
46.42
47.17
44.06
37.65
29.68
22.35
17.30
15.00
14.58
14.57
13.82
12.06
9.95
8.53
8.42
9.52
10.82
11.10
9.54
6.05
1.33
-3.63
-8.04
-11.53
-14.41
-17.32
-21.05
-26.18
-32.86
-40.56
-48.08
-53.68
-55.57
-52.49
-44.18
-31.53
-16.28
-0.43
14.37
27.14
37.46
45.21
50.24
52.41
51.69
48.43
43.41
37.74
32.41
28.04
24.66
21.90
19.28
16.51
13.71
11.26
9.57
8.81
8.68
8.53
7.58
5.30
1.58
-3.16
-8.21
-12.86
-16.68
-19.64
-22.11
-24.63
-27.71
-31.68
-36.63
-42.37
-48.29
-53.43
-56.46
-56.04
-51.20
-41.73
-28.47
-13.10
2.28
15.84
26.44
33.79
38.26
40.48
40.99
40.05
37.80
34.38
30.09
25.40
20.86
16.97
14.02
12.01
10.77
10.00
9.39
8.77
8.08
7.34
6.53
5.52
4.05
1.81
-1.32
-5.24
-9.55
-13.72
-17.33
-20.32
-23.07
-26.27
-30.57
-36.21
-42.70
-48.75
-52.65
-52.85
-48.56
-40.08
-28.67
-16.10
-3.96
6.69
15.44
22.24
27.07
29.77
30.10
27.96
23.69
18.08
12.16
6.89
2.79
-0.14
-2.34
-4.35
-6.52
-8.90
-11.21
-13.13
-14.51
-15.52
-16.56
-18.03
-20.12
-22.64
-25.13
-27.11
-28.31
-28.70
-28.51
-27.99
-27.37
-26.75
-26.25
-25.96
-25.96
-26.14
-26.17
-25.38
-23.09
-18.79
-12.44
-4.55
3.98
12.16
19.24
24.88
29.13
32.35
34.90
37.03
38.78
40.05
40.73
40.80
40.34
39.56
38.66
37.75
36.80
35.68
34.19
32.25
29.92
27.41
24.97
22.71
20.55
18.30
15.77
12.99
10.21
7.82
6.18
5.35
5.12
5.02
4.62
3.73
2.42
1.01
-0.17
-0.89
-1.20
-1.25
-1.30
-1.45
-1.69
-1.84
-1.73
-1.28
-0.58
0.14
0.61
0.60
0.06
-0.86
-1.91
-2.82
-3.47
-3.91
-4.31
-4.82
-5.45
-6.03
-6.38
-6.42
-6.41
-6.77
-7.94
-10.08
-13.04
-16.37
-19.69
-22.81
-25.87
-29.20
-33.00
-37.25
-41.65
-45.69
-48.84
-50.68
-50.91
-49.37
-46.01
-40.92
-34.38
-26.86
-18.96
-11.29
-4.43
1.29
5.80
9.29
12.12
14.56
16.75
18.67
20.18
21.25
22.06
22.84
23.78
24.80
25.57
25.66
24.78
22.99
20.72
18.51
16.76
15.52
14.53
13.49
12.23
10.83
9.52
8.50
7.73
6.94
5.76
4.02
1.86
-0.32
-1.93
-2.62
-2.32
-1.42
-0.42
0.22
0.36
0.14
-0.07
0.05
0.61
1.50
2.44
3.22
3.79
4.27
4.88
5.80
7.04
8.46
9.79
10.78
11.30
11.41
11.36
11.48
12.07
13.20
14.74
16.34
17.62
18.33
18.47
18.30
18.30
18.92
20.45
22.76
25.31
27.26
27.87
26.80
24.39
21.60
19.60
19.31
20.94
23.96
27.30
29.79
30.61
29.56
27.13
24.29
22.32
22.36
25.05
30.18
36.60
42.35
45.14
42.92
34.39
19.37
-1.13
-25.17
-50.25
-73.87
-94.12
-110.10
-121.96
-130.78
-137.99
-144.95
-152.59
-161.40
-171.37
-181.90
-191.57
-198.13
-198.90
-191.59
-175.22
-150.71
-120.75
-88.92
-58.58
-32.05
-10.27
6.88
20.07
30.09
37.64
43.22
47.22
49.79
50.90
50.35
47.85
43.20
36.37
27.65
17.77
7.79
-1.01
-7.54
-11.11
-11.70
-9.82
-6.27
-1.80
3.07
8.04
12.88
17.24
20.69
22.74
23.04
21.44
18.19
13.91
9.59
6.47
5.73
8.14
13.84
22.20
32.00
41.78
50.27
56.59
60.41
61.81
61.13
58.83
55.37
51.17
46.64
42.13
37.85
33.89
30.22
26.67
23.19
19.87
16.98
14.81
13.42
12.52
11.51
9.70
6.75
2.84
-1.38
-5.06
-7.70
-9.29
-10.36
-11.68
-13.86
-17.21
-21.67
-26.90
-32.30
-36.95
-39.65
-39.01
-33.91
-23.99
-9.99
6.40
22.81
37.09
47.82
54.58
57.83
58.47
57.35
55.11
51.98
48.05
43.49
38.61
33.88
29.74
26.41
23.78
21.48
19.08
16.39
13.54
10.92
8.90
7.51
6.44
5.04
2.77
-0.59
-4.70
-8.89
-12.46
-15.01
-16.58
-17.70
-19.16
-21.68
-25.59
-30.62
-35.81
-39.68
-40.62
-37.45
-29.86
-18.55
-5.06
8.72
21.11
31.01
38.07
42.41
44.44
44.61
43.32
40.92
37.81
34.43
31.16
28.23
25.61
23.04
20.18
16.83
13.05
9.19
5.78
3.20
1.57
0.55
-0.47
-2.12
-4.71
-8.16
-12.04
-15.82
-19.10
-21.86
-24.39
-27.20
-30.78
-35.28
-40.33
-45.02
-48.03
-48.08
-44.29
-36.52
-25.51
-12.59
0.66
12.86
22.97
30.48
35.28
37.56
37.71
36.36
34.24
31.99
30.07
28.57
27.32
25.95
24.15
21.85
19.26
16.76
14.76
13.41
12.54
11.70
10.37
8.19
5.12
1.47
-2.28
-5.74
-8.75
-11.39
-13.88
-16.47
-19.39
-22.84
-27.05
-32.05
-37.49
-42.47
-45.65
-45.61
-41.44
-33.15
-21.80
-9.19
2.73
12.49
19.38
23.45
25.23
25.37
24.38
22.61
20.24
17.47
14.58
11.88
9.63
7.97
6.76
5.72
4.57
3.14
1.53
-0.00
-1.09
-1.56
-1.50
-1.36
-1.75
-3.15
-5.74
-9.24
-13.01
-16.38
-18.86
-20.40
-21.36
-22.39
-24.18
-27.23
-31.67
-37.09
-42.66
-47.13
-49.14
-47.58
-41.91
-32.37
-19.95
-6.10
7.60
19.84
29.68
36.68
40.82
42.41
42.02
40.32
37.96
35.47
33.13
31.00
29.03
27.11
25.21
23.42
21.86
20.64
19.83
19.36
19.06
18.66
17.92
16.63
14.77
12.44
9.85
7.26
4.84
2.67
0.75
-1.01
-2.68
-4.37
-6.14
-8.03
-10.05
-12.15
-14.20
-16.11
-17.88
-19.64
-21.65
-24.22
-27.45
-31.10
-34.52
-36.74
-36.75
-33.88
-28.07
-19.90
-10.49
-1.02
7.53
14.64
20.20
24.25
26.88
28.10
27.94
26.64
24.64
22.46
20.51
18.90
17.47
15.96
14.16
12.12
10.07
8.28
6.90
5.87
4.96
3.93
2.63
1.12
-0.45
-1.95
-3.37
-4.82
-6.46
-8.32
-10.29
-12.11
-13.66
-14.98
-16.31
-17.94
-20.00
-22.43
-25.03
-27.63
-30.17
-32.59
-34.63
-35.70
-35.03
-31.94
-26.28
-18.58
-9.90
-1.47
5.76
11.34
15.29
17.87
19.38
20.01
19.78
18.74
17.10
15.16
13.33
11.96
11.18
10.86
10.55
9.77
8.24
6.06
3.75
1.98
1.29
1.73
2.80
3.69
3.63
2.28
-0.17
-3.04
-5.62
-7.39
-8.38
-9.00
-9.83
-11.35
-13.68
-16.63
-19.78
-22.66
-24.89
-26.12
-25.99
-24.16
-20.41
-14.73
-7.53
0.43
8.13
14.65
19.34
21.97
22.72
22.02
20.41
18.42
16.40
14.57
12.95
11.45
9.97
8.47
6.98
5.65
4.64
4.05
3.85
3.89
3.94
3.81
3.39
2.62
1.50
0.06
-1.71
-3.75
-5.98
-8.22
-10.32
-12.14
-13.71
-15.19
-16.86
-18.99
-21.63
-24.53
-27.10
-28.57
-28.23
-25.76
-21.36
-15.69
-9.66
-4.08
0.55
4.09
6.71
8.62
10.01
10.91
11.28
11.13
10.52
9.63
8.68
7.84
7.18
6.59
5.94
5.16
4.32
3.59
3.11
2.92
2.81
2.43
1.55
0.15
-1.56
-3.19
-4.47
-5.30
-5.85
-6.42
-7.41
-9.08
-11.53
-14.60
-17.86
-20.62
-22.12
-21.77
-19.30
-14.93
-9.24
-2.93
3.38
9.26
14.42
18.55
21.39
22.78
22.82
21.97
20.84
19.94
19.41
18.98
18.13
16.47
14.00
11.11
8.38
6.26
4.80
3.70
2.49
0.84
-1.31
-3.76
-6.21
-8.48
-10.59
-12.69
-14.96
-17.44
-20.07
-22.77
-25.52
-28.34
-31.23
-33.94
-35.97
-36.60
-35.18
-31.32
-25.16
-17.31
-8.71
-0.42
6.68
12.04
15.51
17.30
17.79
17.46
16.67
15.59
14.31
12.83
11.20
9.54
7.83
6.05
4.14
2.09
-0.01
-1.94
-3.50
-4.68
-5.73
-7.07
-9.04
-11.65
-14.53
-17.08
-18.77
-19.52
-19.86
-20.70
-22.91
-26.86
-32.07
-37.31
-40.98
-41.65
-38.69
-32.28
-23.24
-12.65
-1.45
9.70
20.18
29.38
36.43
40.55
41.38
39.37
35.67
31.76
28.76
27.08
26.19
25.19
23.26
20.18
16.34
12.48
9.26
6.97
5.36
3.89
1.96
-0.82
-4.53
-8.92
-13.58
-18.02
-21.97
-25.38
-28.49
-31.76
-35.70
-40.66
-46.59
-52.92
-58.53
-62.02
-62.01
-57.66
-48.90
-36.55
-21.99
-6.86
7.41
19.80
29.70
36.87
41.29
43.18
42.93
41.14
38.47
35.51
32.60
29.88
27.32
24.79
22.31
20.00
18.11
16.86
16.35
16.46
16.79
16.82
16.02
14.10
11.04
7.18
3.04
-0.90
-4.32
-7.23
-9.95
-12.95
-16.75
-21.76
-28.10
-35.45
-42.88
-48.91
-51.75
-49.79
-42.21
-29.34
-12.73
5.34
22.49
36.92
47.76
54.97
59.05
60.56
59.98
57.68
54.04
49.60
44.99
40.85
37.58
35.20
33.41
31.70
29.67
27.16
24.34
21.56
19.18
17.31
15.75
14.05
11.76
8.63
4.76
0.62
-3.21
-6.28
-8.48
-10.08
-11.61
-13.65
-16.64
-20.69
-25.58
-30.79
-35.49
-38.75
-39.66
-37.52
-32.04
-23.51
-12.79
-1.06
10.34
20.29
28.05
33.33
36.25
37.17
36.63
35.15
33.19
31.09
29.02
27.02
25.02
22.94
20.73
18.46
16.23
14.18
12.35
10.70
9.15
7.60
5.99
4.27
2.36
0.20
-2.30
-5.10
-8.01
-10.75
-13.17
-15.34
-17.69
-20.77
-24.92
-29.91
-34.78
-38.12
-38.51
-35.11
-28.02
-18.25
-7.35
3.11
12.03
18.90
23.78
26.97
28.77
29.32
28.70
27.07
24.68
22.00
19.47
17.36
15.69
14.16
12.44
10.32
7.90
5.51
3.54
2.23
1.42
0.72
-0.40
-2.24
-4.79
-7.67
-10.40
-12.66
-14.43
-16.10
-18.22
-21.27
-25.35
-30.06
-34.52
-37.62
-38.33
-36.00
-30.60
-22.67
-13.23
-3.39
5.81
13.68
19.84
24.15
26.62
27.38
26.71
25.06
23.02
21.10
19.61
18.52
17.56
16.36
14.70
12.64
10.44
8.39
6.67
5.24
3.82
2.08
-0.18
-2.98
-6.10
-9.21
-11.97
-14.23
-16.07
-17.86
-20.06
-23.10
-27.18
-32.12
-37.40
-42.17
-45.37
-45.99
-43.27
-37.07
-27.95
-17.11
-6.12
3.56
10.92
15.62
17.77
17.78
15.97
12.58
7.74
1.70
-5.10
-12.04
-18.45
-23.79
-27.68
-29.97
-30.68
-30.04
-28.41
-26.32
-24.32
-22.84
-22.04
-21.78
-21.80
-21.89
-22.16
-23.06
-25.24
-29.37
-35.73
-43.98
-53.09
-61.32
-66.56
-66.79
-60.62
-47.82
-29.59
-8.24
13.30
32.44
47.59
58.41
65.69
70.63
74.31
77.20
79.17
79.76
78.64
75.94
72.38
69.04
67.01
67.03
69.24
73.21
78.15
83.13
87.36
90.16
91.00
89.41
85.09
78.02
68.63
57.74
46.47
35.85
26.46
18.29
10.80
3.11
-5.58
-15.61
-26.61
-37.46
-46.53
-52.15
-53.03
-48.73
-39.74
-27.33
-13.21
0.89
13.49
23.50
30.18
33.15
32.34
28.07
20.98
11.91
1.61
-9.57
-21.76
-35.54
-51.52
-70.10
-91.17
-114.10
-137.89
-161.42
-183.52
-203.16
-219.36
-231.26
-238.11
-239.41
-234.98
-225.13
-210.74
-193.18
-174.30
-156.15
-140.72
-129.40
-122.64
-119.60
-118.30
-116.03
-110.06
-98.35
-80.11
-55.80
-27.08
3.83
34.51
62.83
87.21
106.65
120.66
129.14
132.30
130.64
124.96
116.42
106.39
96.29
87.30
80.21
75.39
72.83
72.30
73.40
75.60
78.27
80.68
82.13
82.05
80.11
76.23
70.67
63.96
56.81
50.11
44.66
40.92
38.77
37.34
35.36
31.84
26.88
22.11
20.24
24.05
35.08
52.79
74.86
98.13
119.77
137.88
151.09
158.30
158.41
150.88
136.47
117.63
97.85
80.25
66.23
55.21
45.37
35.04
23.85
12.68
2.90
-4.72
-10.66
-16.18
-22.49
-29.86
-37.45
-43.75
-47.49
-48.30
-47.20
-45.92
-46.33
-49.69
-56.27
-65.33
-75.47
-84.85
-91.84
-94.88
-92.78
-84.82
-70.97
-52.06
-29.94
-7.12
13.50
29.61
40.05
45.09
46.16
45.02
43.03
40.71
37.69
33.58
28.54
23.62
20.29
19.63
21.58
24.87
27.50
27.87
25.62
21.80
18.26
16.62
17.54
20.45
23.84
26.19
26.58
24.97
21.99
18.47
14.89
11.34
7.43
2.84
-2.23
-6.71
-8.71
-6.17
2.36
16.92
35.84
56.24
74.89
89.33
98.43
102.46
102.67
100.61
97.58
94.26
90.66
86.19
79.93
70.97
58.84
43.83
27.02
9.94
-5.90
-19.42
-30.09
-37.78
-42.56
-44.55
-44.09
-41.87
-39.07
-37.11
-37.21
-39.92
-44.92
-51.18
-57.42
-62.73
-66.93
-70.59
-74.77
-80.58
-88.60
-98.58
-109.35
-119.02
-125.51
-127.18
-123.26
-114.04
-100.70
-84.82
-67.85
-50.87
-34.46
-18.99
-4.79
7.77
18.23
26.37
32.21
36.05
38.30
39.26
39.07
37.74
35.33
32.10
28.54
25.20
22.49
20.49
18.90
17.22
14.97
12.02
8.55
5.00
1.87
-0.52
-2.04
-2.77
-2.88
-2.62
-2.32
-2.46
-3.65
-6.48
-11.25
-17.61
-24.51
-30.28
-33.14
-31.87
-26.19
-16.99
-5.89
5.27
15.06
22.79
28.41
32.21
34.51
35.39
34.79
32.72
29.40
25.38
21.31
17.71
14.77
12.25
9.72
6.81
3.45
0.01
-2.95
-4.98
-5.99
-6.37
-6.81
-8.01
-10.36
-13.74
-17.63
-21.37
-24.51
-27.02
-29.20
-31.59
-34.58
-38.25
-42.41
-46.61
-50.38
-53.30
-54.95
-55.04
-53.38
-50.05
-45.50
-40.48
-35.81
-32.08
-29.39
-27.31
-25.10
-21.99
-17.47
-11.48
-4.36
3.23
10.52
16.86
21.84
25.45
27.96
29.83
31.51
33.21
34.86
36.21
37.03
37.25
37.04
36.71
36.51
36.47
36.40
36.01
35.08
33.63
31.86
29.96
27.93
25.46
21.99
17.06
10.56
2.91
-5.13
-12.76
-19.46
-25.11
-29.83
-33.71
-36.60
-38.13
-38.00
-36.23
-33.38
-30.43
-28.40
-28.00
-29.37
-32.00
-35.10
-37.85
-39.75
-40.62
-40.65
-40.09
-39.09
-37.67
-35.72
-33.20
-30.25
-27.15
-24.18
-21.54
-19.20
-17.04
-14.87
-12.66
-10.46
-8.41
-6.55
-4.83
-3.06
-1.08
1.09
3.16
4.66
5.16
4.48
2.98
1.42
0.82
2.01
5.19
9.88
14.95
19.15
21.57
22.01
20.94
19.33
18.10
17.88
18.78
20.58
22.86
25.32
27.67
29.77
31.34
32.11
31.78
30.31
27.96
25.30
22.96
21.31
20.28
19.34
17.78
15.10
11.17
6.39
1.36
-3.38
-7.67
-11.66
-15.77
-20.31
-25.38
-30.80
-36.24
-41.24
-45.43
-48.45
-50.02
-49.91
-48.03
-44.45
-39.48
-33.60
-27.45
-21.61
-16.55
-12.39
-8.98
-5.94
-2.77
0.85
5.01
9.55
14.17
18.64
22.96
27.34
32.08
37.31
42.85
48.25
52.79
55.94
57.47
57.57
56.75
55.58
54.42
53.23
51.62
49.11
45.36
40.32
34.20
27.33
19.96
12.27
4.38
-3.39
-10.45
-15.91
-18.83
-18.51
-14.93
-8.88
-1.91
4.05
7.17
6.37
1.60
-6.24
-15.68
-25.27
-34.08
-41.63
-47.81
-52.46
-55.26
-55.90
-54.35
-51.08
-47.02
-43.26
-40.61
-39.29
-38.88
-38.71
-38.13
-36.95
-35.45
-34.28
-34.11
-35.41
-38.39
-42.98
-48.92
-55.63
-62.10
-66.94
-68.45
-65.17
-56.37
-42.50
-25.13
-6.53
11.01
25.83
37.24
45.46
51.22
55.38
58.54
60.93
62.42
62.79
61.91
59.95
57.45
55.10
53.48
52.77
52.56
51.97
49.87
45.31
37.68
26.90
13.21
-2.94
-21.12
-41.05
-62.66
-86.03
-111.39
-138.80
-167.93
-197.80
-226.54
-251.48
-269.56
-277.95
-274.93
-260.46
-236.30
-205.53
-171.69
-137.94
-106.53
-78.73
-55.14
-35.91
-20.94
-9.79
-1.67
4.48
9.80
15.27
21.46
28.69
37.07
46.63
57.31
68.79
80.43
91.38
100.62
107.35
111.26
112.60
112.08
110.51
108.40
105.62
101.29
94.28
83.67
69.40
52.46
34.87
19.27
8.35
4.10
7.42
17.91
33.99
53.44
73.86
93.00
108.98
120.01
124.81
122.74
114.31
101.28
86.21
71.56
58.77
47.62
36.79
24.75
10.80
-4.51
-19.76
-33.46
-44.78
-54.03
-62.21
-70.46
-79.42
-88.97
-98.49
-107.31
-115.12
-122.33
-129.69
-137.87
-147.03
-156.70
-166.13
-174.76
-182.35
-188.95
-194.04
-196.11
-192.68
-181.07
-159.67
-128.80
-90.79
-49.17
-7.40
32.03
67.78
99.22
125.75
146.53
160.74
168.05
169.07
165.27
158.53
150.61
142.76
135.65
129.59
124.71
121.13
118.93
118.08
118.33
119.19
119.92
119.74
117.94
114.01
107.80
99.54
89.73
79.05
68.13
57.32
46.55
35.32
22.93
8.91
-6.46
-21.91
-35.18
-43.67
-45.27
-39.20
-26.33
-8.87
10.37
28.86
44.92
57.85
67.52
74.03
77.37
77.50
74.58
69.18
62.26
54.93
48.11
42.33
37.66
34.00
31.21
29.39
28.85
29.92
32.73
36.97
41.83
46.23
49.08
49.74
48.09
44.67
40.41
36.29
33.15
31.47
31.43
32.92
35.62
39.07
42.60
45.46
46.89
46.34
43.62
38.99
33.24
27.48
22.88
20.30
20.05
21.73
24.54
27.64
30.66
33.87
38.02
43.78
51.28
59.78
68.00
74.69
79.22
81.93
83.87
86.38
90.67
97.55
107.21
118.93
130.79
139.52
141.03
131.67
109.87
77.32
38.95
1.39
-29.44
-50.33
-61.69
-66.70
-69.43
-73.06
-78.74
-85.87
-93.01
-99.01
-103.58
-107.17
-110.47
-113.70
-116.39
-117.67
-116.78
-113.47
-108.19
-101.74
-94.81
-87.57
-79.70
-70.79
-60.83
-50.54
-41.28
-34.53
-31.35
-31.86
-35.30
-40.27
-45.25
-49.00
-50.83
-50.69
-48.99
-46.38
-43.46
-40.50
-37.47
-34.01
-29.85
-24.95
-19.71
-14.83
-10.99
-8.55
-7.38
-6.93
-6.64
-6.16
-5.63
-5.58
-6.63
-9.10
-12.76
-16.77
-19.91
-21.04
-19.50
-15.38
-9.41
-2.68
3.78
9.34
13.75
17.00
19.07
19.73
18.67
15.81
11.44
6.32
1.42
-2.53
-5.31
-7.28
-9.05
-11.11
-13.50
-15.83
-17.55
-18.36
-18.39
-18.23
-18.60
-19.96
-22.32
-25.21
-27.92
-29.94
-31.15
-31.92
-32.87
-34.62
-37.45
-41.13
-45.01
-48.16
-49.67
-48.85
-45.23
-38.76
-29.71
-18.80
-7.04
4.33
14.19
21.71
26.62
29.08
29.57
28.67
26.85
24.47
21.79
18.99
16.24
13.62
11.13
8.77
6.56
4.60
2.96
1.70
0.81
0.20
-0.24
-0.64
-1.09
-1.73
-2.67
-3.98
-5.61
-7.40
-9.14
-10.83
-12.67
-15.09
-18.47
-22.80
-27.37
-30.89
-31.84
-29.08
-22.34
-12.42
-0.87
10.47
20.20
27.51
32.33
34.93
35.65
34.78
32.56
29.28
25.42
21.55
18.17
15.53
13.55
11.93
10.28
8.38
6.27
4.26
2.78
2.10
2.21
2.74
3.14
2.81
1.45
-0.83
-3.61
-6.30
-8.48
-10.05
-11.30
-12.86
-15.27
-18.77
-22.98
-26.93
-29.32
-28.98
-25.31
-18.55
-9.66
-0.04
9.00
16.59
22.30
26.09
28.05
28.29
26.92
24.24
20.75
17.15
14.05
11.79
10.23
8.88
7.10
4.50
1.14
-2.41
-5.40
-7.25
-7.82
-7.57
-7.23
-7.53
-8.83
-10.90
-13.18
-15.04
-16.15
-16.64
-17.01
-17.95
-19.91
-22.95
-26.62
-30.09
-32.38
-32.64
-30.49
-25.98
-19.65
-12.29
-4.73
2.25
8.09
12.38
14.93
15.81
15.36
14.13
12.73
11.58
10.81
10.18
9.36
8.12
6.46
4.64
3.03
1.80
0.92
0.15
-0.79
-2.03
-3.50
-4.96
-6.15
-6.95
-7.44
-7.82
-8.43
-9.54
-11.34
-13.84
-16.86
-19.99
-22.66
-24.13
-23.75
-21.08
-16.11
-9.34
-1.71
5.64
11.72
15.95
18.25
19.04
18.92
18.37
17.56
16.32
14.43
11.80
8.75
5.86
3.73
2.57
2.11
1.69
0.63
-1.42
-4.28
-7.33
-9.84
-11.35
-11.86
-11.77
-11.73
-12.27
-13.69
-16.00
-18.92
-22.18
-25.39
-28.18
-30.13
-30.62
-28.90
-24.43
-17.14
-7.99
1.37
9.16
14.12
16.24
16.63
16.76
17.67
19.05
19.72
18.38
14.62
9.38
4.54
1.80
1.70
3.09
4.02
2.82
-0.83
-5.67
-9.66
-11.22
-10.10
-7.84
-6.65
-8.12
-12.34
-17.72
-22.09
-23.97
-23.46
-22.31
-22.73
-25.89
-31.07
-35.84
-37.21
-33.21
-23.69
-10.58
3.23
15.09
23.53
28.46
30.72
31.33
31.08
30.18
28.58
26.20
23.15
19.75
16.40
13.37
10.83
8.71
6.84
5.03
3.22
1.49
-0.02
-1.17
-1.97
-2.59
-3.40
-4.76
-6.87
-9.64
-12.72
-15.64
-18.01
-19.83
-21.49
-23.63
-26.81
-31.01
-35.49
-38.80
-39.29
-35.77
-27.97
-16.80
-4.04
8.30
18.63
26.16
30.98
33.64
34.74
34.63
33.36
30.95
27.60
23.81
20.26
17.59
16.06
15.49
15.41
15.29
14.79
13.84
12.60
11.29
10.03
8.80
7.49
5.98
4.25
2.38
0.51
-1.25
-2.93
-4.65
-6.59
-8.84
-11.36
-13.89
-16.07
-17.62
-18.52
-19.19
-20.34
-22.74
-26.67
-31.69
-36.47
-39.24
-38.39
-33.12
-23.83
-11.91
0.70
12.26
21.72
28.76
33.60
36.55
37.78
37.30
35.16
31.66
27.46
23.36
20.00
17.65
16.09
14.86
13.50
11.81
9.96
8.28
7.07
6.36
5.89
5.26
4.12
2.34
0.04
-2.46
-4.92
-7.21
-9.40
-11.67
-14.18
-16.93
-19.74
-22.33
-24.49
-26.29
-28.10
-30.50
-33.96
-38.46
-43.30
-47.14
-48.45
-46.00
-39.42
-29.30
-17.03
-4.29
7.51
17.44
25.16
30.64
33.97
35.23
34.59
32.42
29.31
25.98
23.02
20.71
18.98
17.53
16.12
14.70
13.50
12.83
12.85
13.43
14.12
14.36
13.77
12.27
10.22
8.13
6.37
5.03
3.79
2.16
-0.25
-3.46
-7.06
-10.39
-12.90
-14.39
-15.09
-15.64
-16.76
-19.02
-22.63
-27.32
-32.41
-36.89
-39.61
-39.55
-36.10
-29.20
-19.43
-7.87
4.09
15.11
24.06
30.28
33.60
34.33
33.21
31.09
28.71
26.54
24.64
22.80
20.78
18.50
16.16
14.11
12.70
12.08
12.15
12.60
13.07
13.27
13.04
12.38
11.34
10.03
8.53
6.90
5.16
3.33
1.44
-0.53
-2.61
-4.91
-7.50
-10.39
-13.43
-16.29
-18.55
-19.94
-20.49
-20.66
-21.25
-22.99
-26.23
-30.58
-34.95
-37.83
-37.88
-34.43
-27.70
-18.68
-8.71
0.97
9.51
16.52
21.93
25.78
28.23
29.52
29.91
29.76
29.36
28.85
28.26
27.48
26.39
24.95
23.13
20.95
18.49
15.91
13.47
11.44
9.98
9.12
8.57
8.03
7.19
5.99
4.59
3.28
2.28
1.67
1.32
0.98
0.43
-0.43
-1.58
-2.86
-4.11
-5.17
-5.98
-6.53
-6.93
-7.30
-7.85
-8.76
-10.21
-12.25
-14.78
-17.47
-19.83
-21.29
-21.36
-19.82
-16.83
-12.83
-8.45
-4.23
-0.56
2.42
4.72
6.40
7.43
7.84
7.65
7.00
6.14
5.33
4.77
4.43
4.10
3.53
2.55
1.24
-0.05
-0.92
-1.13
-0.73
-0.10
0.26
0.02
-0.87
-2.09
-3.18
-3.79
-3.84
-3.58
-3.41
-3.66
-4.42
-5.50
-6.52
-7.17
-7.36
-7.30
-7.42
-8.15
-9.71
-11.95
-14.43
-16.54
-17.75
-17.75
-16.50
-14.13
-10.88
-6.95
-2.54
2.11
6.67
10.67
13.73
15.60
16.33
16.27
15.87
15.46
15.10
14.57
13.63
12.15
10.33
8.61
7.44
6.99
7.09
7.30
7.17
6.53
5.51
4.54
3.99
3.96
4.22
4.29
3.73
2.36
0.37
-1.78
-3.65
-4.97
-5.77
-6.33
-6.95
-7.84
-9.10
-10.70
-12.62
-14.88
-17.40
-20.01
-22.25
-23.56
-23.37
-21.42
-17.87
-13.30
-8.52
-4.27
-0.99
1.33
3.07
4.73
6.64
8.72
10.57
11.66
11.65
10.65
9.23
8.03
7.53
7.72
8.12
8.14
7.45
6.18
4.86
3.82
3.14
2.47
1.34
-0.40
-2.32
-3.68
-3.84
-3.07
-2.19
-2.32
-4.05
-6.94
-9.74
-11.12
-10.58
-8.94
-7.88
-8.85
-12.12
-16.48
-19.78
-20.21
-17.09
-11.64
-5.91
-1.84
-0.15
-0.09
-0.06
1.32
4.46
8.13
10.48
10.08
6.81
2.16
-1.59
-2.61
-0.43
3.38
6.41
6.65
3.69
-1.03
-5.02
-6.32
-4.46
-0.90
1.97
2.32
-0.21
-4.26
-7.74
-8.95
-7.50
-4.55
-1.96
-1.29
-3.02
-6.41
-10.03
-12.58
-13.29
-12.41
-10.66
-8.79
-7.18
-5.69
-3.88
-1.38
1.91
5.54
8.77
10.92
11.63
11.06
9.79
8.54
7.95
8.18
8.97
9.73
9.82
8.91
7.10
4.86
2.88
1.69
1.44
1.82
2.23
2.12
1.19
-0.46
-2.38
-4.09
-5.28
-5.99
-6.50
-7.21
-8.46
-10.43
-13.10
-16.28
-19.64
-22.72
-24.94
-25.72
-24.59
-21.40
-16.32
-9.90
-2.94
3.72
9.31
13.37
15.72
16.55
16.25
15.34
14.22
13.16
12.21
11.21
10.00
8.44
6.55
4.44
2.35
0.47
-1.07
-2.27
-3.23
-4.17
-5.22
-6.55
-8.17
-10.09
-12.22
-14.43
-16.59
-18.52
-20.14
-21.49
-22.91
-24.89
-27.89
-31.98
-36.60
-40.55
-42.30
-40.57
-34.84
-25.66
-14.45
-2.96
7.27
15.35
21.15
25.02
27.40
28.64
28.80
27.91
26.06
23.55
20.87
18.51
16.79
15.68
14.90
13.95
12.50
10.51
8.31
6.43
5.30
5.02
5.22
5.25
4.49
2.66
-0.06
-3.13
-5.93
-8.04
-9.49
-10.61
-11.81
-13.41
-15.50
-18.05
-21.03
-24.49
-28.45
-32.68
-36.49
-38.71
-38.02
-33.50
-25.09
-13.73
-1.17
10.66
20.28
27.05
31.22
33.50
34.59
34.87
34.37
32.94
30.57
27.59
24.62
22.23
20.78
20.12
19.80
19.26
18.14
16.51
14.77
13.47
12.97
13.25
13.87
14.17
13.57
11.85
9.23
6.24
3.40
1.02
-0.94
-2.76
-4.70
-6.87
-9.13
-11.33
-13.49
-15.90
-19.04
-23.13
-27.88
-32.30
-34.96
-34.49
-30.18
-22.34
-12.22
-1.53
8.12
15.78
21.26
24.95
27.40
29.00
29.74
29.44
27.96
25.50
22.60
19.98
18.18
17.26
16.79
16.08
14.57
12.15
9.27
6.69
5.04
4.48
4.59
4.60
3.76
1.70
-1.37
-4.88
-8.16
-10.76
-12.61
-13.96
-15.21
-16.78
-18.97
-21.96
-25.83
-30.44
-35.41
-39.92
-42.87
-43.10
-39.77
-32.72
-22.61
-10.80
1.07
11.54
19.72
25.34
28.62
30.03
30.01
28.90
26.90
24.31
21.48
18.81
16.63
15.09
14.10
13.37
12.58
11.47
9.99
8.34
6.78
5.57
4.80
4.32
3.77
2.87
1.37
-0.67
-3.07
-5.55
-7.92
-10.11
-12.17
-14.20
-16.37
-18.93
-22.17
-26.25
-30.99
-35.66
-39.07
-39.78
-36.73
-29.57
-18.98
-6.37
6.49
18.07
27.35
33.96
38.01
39.89
40.01
38.83
36.72
34.06
31.15
28.24
25.53
23.04
20.73
18.39
15.88
13.18
10.42
7.92
5.99
4.79
4.21
3.89
3.33
2.16
0.18
-2.44
-5.38
-8.16
-10.41
-11.94
-12.85
-13.50
-14.49
-16.41
-19.61
-23.97
-28.74
-32.73
-34.57
-33.23
-28.41
-20.62
-11.05
-1.10
8.11
15.92
22.11
26.70
29.66
30.91
30.47
28.56
25.78
22.83
20.30
18.41
16.94
15.48
13.69
11.49
9.16
7.15
5.85
5.40
5.56
5.88
5.86
5.20
3.87
2.07
0.12
-1.73
-3.40
-4.85
-6.15
-7.33
-8.38
-9.46
-10.81
-12.84
-15.84
-19.78
-24.10
-27.78
-29.61
-28.64
-24.57
-17.84
-9.59
-1.16
6.32
12.21
16.44
19.29
21.11
22.07
22.20
21.45
19.90
17.88
15.87
14.31
13.32
12.69
11.96
10.72
8.82
6.51
4.28
2.56
1.49
0.82
0.07
-1.18
-3.03
-5.28
-7.52
-9.41
-10.79
-11.81
-12.71
-13.81
-15.36
-17.50
-20.33
-23.71
-27.19
-29.99
-31.11
-29.59
-24.91
-17.22
-7.45
2.99
12.56
20.03
24.73
26.67
26.43
25.05
23.45
22.35
21.92
21.78
21.37
20.22
18.30
15.91
13.28
10.46
7.29
3.64
-0.16
-3.31
-4.94
-4.66
-3.25
-2.21
-3.08
-6.45
-11.51
-16.40
-19.35
-19.70
-18.60
-18.19
-20.46
-25.96
-33.27
-39.61
-42.21
-39.52
-32.29
-22.67
-13.15
-5.21
1.23
7.36
14.31
22.15
29.30
33.56
33.36
28.83
21.98
15.68
12.18
12.15
14.21
16.03
15.69
12.63
7.90
3.43
0.86
0.91
2.85
5.18
6.40
5.69
3.08
-0.63
-4.45
-7.50
-9.52
-10.71
-11.61
-12.82
-14.76
-17.61
-21.33
-25.59
-29.95
-33.76
-36.20
-36.41
-33.65
-27.57
-18.43
-7.14
4.87
16.03
25.02
31.10
34.21
34.88
33.88
32.00
29.75
27.34
24.74
21.88
18.81
15.69
12.80
10.43
8.72
7.68
7.14
6.87
6.64
6.35
5.97
5.55
5.06
4.35
3.15
1.22
-1.54
-4.86
-8.26
-11.17
-13.15
-14.17
-14.58
-15.03
-16.20
-18.58
-22.27
-26.89
-31.60
-35.31
-36.87
-35.43
-30.64
-22.79
-12.73
-1.66
9.17
18.68
26.18
31.35
34.22
35.10
34.41
32.71
30.47
28.10
25.78
23.55
21.34
19.10
16.85
14.74
12.95
11.61
10.68
9.91
9.05
7.89
6.40
4.76
3.22
1.93
0.84
-0.32
-1.85
-3.93
-6.49
-9.19
-11.64
-13.53
-14.83
-15.80
-16.90
-18.61
-21.23
-24.77
-28.89
-32.89
-35.86
-36.82
-34.99
-30.04
-22.20
-12.29
-1.54
8.73
17.34
23.55
27.10
28.25
27.53
25.64
23.22
20.70
18.26
15.86
13.49
11.17
9.08
7.51
6.61
6.37
6.52
6.70
6.62
6.16
5.47
4.78
4.26
3.84
3.26
2.18
0.35
-2.17
-5.01
-7.61
-9.53
-10.60
-11.12
-11.68
-12.96
-15.40
-19.04
-23.50
-28.04
-31.73
-33.69
-33.19
-29.85
-23.70
-15.25
-5.39
4.75
14.03
21.55
26.81
29.77
30.74
30.25
28.86
27.05
25.04
22.96
20.76
18.42
15.97
13.56
11.44
9.75
8.53
7.61
6.67
5.47
3.94
2.25
0.75
-0.27
-0.86
-1.34
-2.25
-3.98
-6.55
-9.59
-12.48
-14.70
-16.03
-16.63
-16.97
-17.59
-18.95
-21.32
-24.70
-28.72
-32.75
-35.86
-37.07
-35.60
-31.15
-23.98
-14.87
-4.94
4.67
12.94
19.14
22.92
24.35
23.89
22.28
20.23
18.23
16.46
14.78
12.98
10.95
8.84
6.91
5.43
4.45
3.82
3.23
2.48
1.54
0.61
-0.11
-0.48
-0.64
-0.93
-1.77
-3.32
-5.49
-7.87
-9.95
-11.43
-12.27
-12.76
-13.34
-14.37
-16.09
-18.54
-21.57
-24.78
-27.57
-29.10
-28.57
-25.37
-19.43
-11.30
-2.04
7.12
15.12
21.36
25.65
28.21
29.32
29.33
28.42
26.81
24.73
22.48
20.29
18.41
16.91
15.73
14.67
13.49
12.04
10.30
8.41
6.63
5.24
4.37
3.98
3.84
3.52
2.68
1.07
-1.22
-3.88
-6.38
-8.28
-9.34
-9.65
-9.64
-9.94
-11.14
-13.49
-16.77
-20.26
-23.00
-24.12
-23.09
-19.98
-15.32
-9.83
-4.22
1.07
5.83
9.96
13.34
15.73
16.93
16.90
15.86
14.29
12.74
11.59
10.88
10.30
9.42
7.87
5.65
3.14
0.90
-0.58
-1.15
-1.13
-1.08
-1.52
-2.68
-4.38
-6.16
-7.59
-8.46
-8.91
-9.22
-9.68
-10.45
-11.50
-12.80
-14.37
-16.22
-18.27
-20.19
-21.34
-21.01
-18.63
-14.13
-8.00
-1.20
5.19
10.27
13.62
15.35
15.92
15.86
15.59
15.25
14.78
14.01
12.84
11.36
9.78
8.35
7.13
6.09
4.99
3.67
2.05
0.29
-1.31
-2.53
-3.27
-3.73
-4.21
-4.99
-6.11
-7.35
-8.35
-8.86
-9.03
-9.38
-10.63
-13.25
-17.10
-21.31
-24.56
-25.57
-23.67
-19.07
-12.73
-5.88
0.48
5.88
10.34
14.11
17.28
19.64
20.78
20.45
18.76
16.32
13.88
12.10
11.16
10.68
10.05
8.83
7.00
4.95
2.98
1.23
-0.51
-2.64
-5.23
-7.87
-9.87
-10.74
-10.68
-10.61
-11.57
-14.13
-17.90
-21.81
-24.71
-26.11
-26.46
-26.67
-27.37
-28.39
-28.72
-27.05
-22.54
-15.29
-6.66
1.61
7.99
11.84
13.59
14.40
15.40
17.20
19.13
19.96
18.56
14.74
9.57
5.00
2.68
3.14
5.17
6.70
6.01
2.74
-1.76
-5.28
-6.12
-4.06
-0.85
1.09
-0.06
-4.32
-9.94
-14.34
-15.69
-13.79
-10.39
-8.04
-8.67
-12.69
-18.82
-24.88
-28.88
-29.74
-27.71
-23.74
-18.79
-13.38
-7.48
-0.89
6.33
13.77
20.45
25.39
27.97
28.12
26.43
23.82
21.18
19.15
17.78
16.77
15.63
13.98
11.71
9.03
6.36
4.21
2.84
2.24
2.09
1.84
1.02
-0.64
-3.06
-5.89
-8.58
-10.70
-12.10
-13.01
-13.98
-15.68
-18.53
-22.50
-27.01
-31.03
-33.41
-33.17
-29.83
-23.56
-15.06
-5.36
4.45
13.42
20.89
26.43
29.89
31.33
31.03
29.51
27.37
25.17
23.27
21.71
20.27
18.61
16.53
14.08
11.50
9.16
7.34
6.12
5.33
4.69
3.86
2.61
0.80
-1.55
-4.32
-7.27
-10.14
-12.69
-14.75
-16.30
-17.54
-18.91
-20.95
-24.12
-28.47
-33.42
-37.74
-39.84
-38.33
-32.59
-23.05
-11.14
1.23
12.31
21.05
27.17
31.01
33.12
33.88
33.46
31.93
29.43
26.33
23.16
20.41
18.31
16.72
15.22
13.42
11.14
8.56
6.16
4.40
3.46
3.10
2.75
1.75
-0.28
-3.29
-6.79
-10.14
-12.80
-14.58
-15.71
-16.67
-18.07
-20.31
-23.57
-27.75
-32.35
-36.61
-39.53
-40.09
-37.47
-31.44
-22.43
-11.47
0.01
10.64
19.39
25.76
29.72
31.59
31.89
31.09
29.61
27.73
25.67
23.54
21.44
19.46
17.69
16.18
14.92
13.85
12.82
11.73
10.50
9.17
7.87
6.68
5.58
4.37
2.78
0.55
-2.32
-5.57
-8.67
-11.18
-12.88
-14.00
-15.17
-17.13
-20.37
-24.82
-29.74
-33.86
-35.87
-34.79
-30.41
-23.27
-14.40
-5.00
3.99
11.98
18.66
23.88
27.45
29.23
29.23
27.69
25.17
22.32
19.68
17.57
15.96
14.67
13.44
12.09
10.65
9.22
7.90
6.77
5.83
5.01
4.22
3.37
2.41
1.29
-0.04
-1.58
-3.31
-5.14
-6.95
-8.58
-9.90
-10.90
-11.82
-13.08
-15.17
-18.34
-22.34
-26.39
-29.33
-30.06
-27.93
-23.05
-16.14
-8.28
-0.48
6.54
12.45
17.15
20.55
22.61
23.28
22.68
21.14
19.18
17.38
16.10
15.37
14.86
14.01
12.38
9.83
6.74
3.75
1.54
0.45
0.33
0.58
0.54
-0.27
-1.90
-4.06
-6.25
-8.08
-9.34
-10.04
-10.30
-10.36
-10.55
-11.32
-13.10
-16.08
-19.98
-23.97
-26.79
-27.23
-24.60
-19.02
-11.36
-2.92
5.11
11.88
17.11
20.84
23.25
24.50
24.68
23.95
22.55
20.83
19.14
17.67
16.42
15.15
13.65
11.79
9.67
7.50
5.59
4.12
3.14
2.46
1.74
0.61
-1.19
-3.75
-6.85
-10.06
-12.88
-14.91
-16.04
-16.55
-16.97
-17.98
-20.06
-23.29
-27.25
-30.97
-33.28
-33.11
-29.87
-23.71
-15.43
-6.22
2.81
10.89
17.66
23.04
26.98
29.37
30.15
29.41
27.59
25.37
23.47
22.26
21.66
21.17
20.13
18.15
15.32
12.19
9.53
7.89
7.36
7.46
7.45
6.64
4.85
2.38
-0.17
-2.25
-3.69
-4.68
-5.60
-6.74
-8.14
-9.61
-11.06
-12.59
-14.53
-17.15
-20.40
-23.64
-25.87
-26.04
-23.61
-18.76
-12.44
-5.90
-0.22
4.04
6.97
9.06
10.80
12.37
13.59
14.08
13.60
12.23
10.38
8.63
7.35
6.56
5.90
4.92
3.37
1.32
-0.77
-2.36
-3.08
-2.97
-2.47
-2.22
-2.72
-4.09
-6.00
-7.83
-9.03
-9.34
-8.99
-8.56
-8.65
-9.63
-11.45
-13.70
-15.82
-17.36
-18.02
-17.69
-16.34
-13.91
-10.41
-5.98
-1.00
3.97
8.27
11.42
13.24
13.95
14.06
14.15
14.58
15.33
15.98
15.94
14.78
12.52
9.78
7.32
5.89
5.68
6.30
7.08
7.41
7.12
6.36
5.19
3.50
1.00
-2.45
-6.40
-9.82
-11.59
-11.12
-9.06
-6.97
-6.63
-9.06
-13.91
-19.62
-24.19
-26.13
-25.24
-22.27
-18.42
-14.60
-10.98
-7.11
-2.50
2.93
8.14
11.75
12.65
10.72
7.15
3.89
2.67
4.15
7.11
9.50
9.43
6.37
1.49
-2.95
-4.97
-3.93
-1.12
1.23
1.18
-1.74
-6.31
-10.35
-12.11
-11.02
-8.24
-5.63
-4.81
-6.28
-9.34
-12.73
-15.42
-17.05
-18.03
-18.95
-20.01
-20.79
-20.42
-18.10
-13.56
-7.17
-0.00
6.70
11.92
15.19
16.62
16.73
16.19
15.62
15.28
15.13
14.89
14.20
12.83
10.79
8.34
5.98
4.16
3.16
2.83
2.75
2.35
1.20
-0.71
-3.07
-5.31
-7.01
-8.03
-8.59
-9.09
-9.91
-11.23
-13.00
-15.11
-17.48
-20.08
-22.76
-25.14
-26.53
-26.17
-23.47
-18.33
-11.31
-3.41
4.21
10.66
15.50
18.79
20.90
22.23
23.09
23.56
23.61
23.14
22.09
20.53
18.69
16.82
15.18
13.87
12.73
11.50
9.90
7.82
5.42
3.03
0.96
-0.71
-2.15
-3.68
-5.51
-7.57
-9.56
-11.16
-12.34
-13.46
-15.16
-17.95
-21.85
-26.13
-29.50
-30.52
-28.23
-22.54
-14.33
-5.04
3.83
11.21
16.76
20.69
23.41
25.23
26.17
26.07
24.84
22.66
20.01
17.49
15.54
14.24
13.31
12.29
10.84
8.93
6.90
5.20
4.19
3.81
3.63
3.02
1.49
-1.00
-3.98
-6.67
-8.41
-8.98
-8.76
-8.49
-8.97
-10.71
-13.66
-17.38
-21.09
-24.01
-25.57
-25.38
-23.35
-19.60
-14.39
-8.14
-1.40
5.24
11.14
15.78
18.83
20.29
20.52
20.08
19.55
19.21
18.98
18.51
17.42
15.57
13.25
10.93
9.08
7.92
7.26
6.75
6.03
4.98
3.77
2.64
1.73
0.98
0.11
-1.13
-2.82
-4.80
-6.73
-8.37
-9.74
-11.20
-13.22
-16.14
-19.85
-23.67
-26.52
-27.35
-25.53
-21.11
-14.81
-7.69
-0.77
5.25
10.11
13.83
16.58
18.45
19.46
19.58
18.91
17.65
16.14
14.66
13.31
11.99
10.45
8.51
6.18
3.77
1.73
0.41
-0.19
-0.46
-1.03
-2.44
-4.85
-7.97
-11.14
-13.71
-15.29
-15.95
-16.20
-16.75
-18.22
-20.94
-24.74
-29.01
-32.85
-35.24
-35.36
-32.74
-27.42
-19.90
-11.00
-1.68
7.14
14.69
20.42
24.09
25.72
25.62
24.34
22.51
20.65
19.08
17.85
16.81
15.73
14.48
13.08
11.69
10.50
9.63
8.94
8.18
7.01
5.19
2.72
-0.17
-3.10
-5.72
-7.87
-9.58
-11.09
-12.63
-14.49
-16.87
-19.95
-23.72
-27.96
-31.98
-34.82
-35.33
-32.70
-26.74
-18.05
-7.81
2.54
11.92
19.66
25.56
29.67
32.10
32.94
32.40
30.83
28.76
26.77
25.24
24.22
23.45
22.51
21.07
19.03
16.61
14.16
12.04
10.44
9.32
8.42
7.36
5.75
3.45
0.53
-2.63
-5.52
-7.71
-9.05
-9.72
-10.32
-11.54
-13.90
-17.54
-22.02
-26.45
-29.74
-30.93
-29.48
-25.42
-19.27
-11.81
-3.84
3.97
11.08
17.10
21.64
24.43
25.38
24.74
23.08
21.08
19.36
18.21
17.52
17.00
16.26
15.10
13.56
11.82
10.17
8.75
7.56
6.40
5.01
3.24
1.14
-1.06
-3.02
-4.47
-5.35
-5.80
-6.15
-6.72
-7.67
-9.09
-10.98
-13.38
-16.24
-19.34
-22.13
-23.79
-23.45
-20.59
-15.34
-8.50
-1.28
5.16
10.13
13.54
15.78
17.30
18.40
19.03
18.98
18.09
16.44
14.44
12.59
11.31
10.65
10.37
10.03
9.27
8.02
6.53
5.16
4.20
3.62
3.09
2.16
0.52
-1.77
-4.28
-6.41
-7.74
-8.21
-8.18
-8.35
-9.33
-11.52
-14.77
-18.46
-21.71
-23.67
-23.76
-21.88
-18.27
-13.44
-7.90
-2.19
3.32
8.22
12.15
14.83
16.19
16.40
15.80
14.68
13.20
11.38
9.20
6.83
4.62
3.01
2.28
2.38
2.89
3.24
2.95
1.82
-0.01
-2.20
-4.30
-6.01
-7.24
-8.14
-8.99
-10.11
-11.66
-13.60
-15.68
-17.91
-20.43
-23.52
-27.30
-31.29
-34.35
-35.03
-32.24
-26.11
-17.85
-9.30
-2.05
3.39
7.64
11.74
16.32
20.81
23.89
24.30
21.77
17.47
13.41
11.32
11.72
13.37
14.25
12.68
8.45
3.01
-1.37
-2.89
-1.23
1.95
4.18
3.46
-0.64
-6.67
-12.25
-15.42
-15.52
-13.79
-12.32
-12.83
-15.85
-20.51
-25.26
-28.87
-30.91
-31.94
-32.69
-33.38
-33.33
-31.32
-26.30
-18.14
-7.67
3.33
13.08
20.34
24.79
26.89
27.51
27.50
27.41
27.33
27.03
26.23
24.74
22.64
20.18
17.73
15.61
13.94
12.63
11.47
10.28
9.00
7.69
6.46
5.38
4.35
3.18
1.68
-0.27
-2.63
-5.15
-7.54
-9.46
-10.79
-11.64
-12.38
-13.57
-15.68
-18.90
-22.99
-27.16
-30.36
-31.52
-29.93
-25.53
-18.86
-10.90
-2.78
4.64
10.84
15.69
19.30
21.83
23.42
24.14
24.12
23.52
22.62
21.66
20.75
19.86
18.81
17.42
15.62
13.59
11.62
10.00
8.90
8.20
7.70
7.06
6.13
4.93
3.60
2.32
1.17
0.08
-1.11
-2.50
-4.06
-5.58
-6.79
-7.51
-7.87
-8.26
-9.16
-10.94
-13.53
-16.43
-18.84
-19.97
-19.34
-16.95
-13.18
-8.61
-3.82
0.83
5.12
8.87
11.90
14.01
15.11
15.26
14.73
13.95
13.26
12.81
12.52
12.11
11.32
10.03
8.34
6.59
5.17
4.37
4.23
4.52
4.84
4.82
4.24
3.16
1.79
0.40
-0.84
-1.94
-2.99
-4.04
-5.08
-5.97
-6.67
-7.29
-8.13
-9.53
-11.62
-14.19
-16.63
-18.14
-18.07
-16.23
-12.92
-8.87
-4.81
-1.29
1.55
3.87
5.89
7.74
9.31
10.39
10.79
10.52
9.77
8.90
8.27
7.97
7.82
7.42
6.36
4.50
2.11
-0.16
-1.66
-2.01
-1.37
-0.42
0.03
-0.58
-2.32
-4.70
-6.99
-8.64
-9.48
-9.74
-9.87
-10.25
-11.12
-12.49
-14.29
-16.47
-18.97
-21.60
-23.93
-25.32
-25.08
-22.76
-18.37
-12.46
-5.95
0.19
5.21
8.84
11.17
12.58
13.45
14.01
14.27
14.13
13.46
12.29
10.87
9.53
8.63
8.27
8.30
8.30
7.83
6.69
5.00
3.22
1.82
1.05
0.73
0.41
-0.43
-1.94
-3.90
-5.80
-7.13
-7.71
-7.79
-7.88
-8.56
-10.18
-12.73
-15.92
-19.24
-22.23
-24.53
-25.87
-26.06
-24.99
-22.52
-18.70
-13.73
-8.10
-2.48
2.47
6.34
9.02
10.78
11.97
12.89
13.63
14.15
14.37
14.41
14.45
14.69
15.14
15.56
15.60
14.98
13.69
12.06
10.52
9.47
8.96
8.72
8.34
7.46
5.99
4.17
2.41
1.08
0.29
-0.06
-0.25
-0.52
-0.99
-1.62
-2.35
-3.16
-4.11
-5.27
-6.60
-7.89
-8.82
-8.96
-8.12
-6.29
-3.76
-0.97
1.65
3.83
5.48
6.68
7.54
8.14
8.50
8.60
8.39
7.89
7.10
6.06
4.85
3.55
2.33
1.33
0.67
0.34
0.20
0.07
-0.16
-0.46
-0.66
-0.61
-0.26
0.27
0.69
0.74
0.36
-0.29
-0.86
-1.03
-0.70
-0.07
0.37
0.16
-0.99
-2.95
-5.18
-7.04
-8.01
-7.98
-7.27
-6.39
-5.79
-5.55
-5.36
-4.75
-3.44
-1.53
0.46
1.91
2.44
2.12
1.44
0.96
0.97
1.31
1.49
0.99
-0.38
-2.32
-4.11
-5.05
-4.78
-3.47
-1.74
-0.31
0.34
0.18
-0.41
-0.93
-1.02
-0.72
-0.33
-0.17
-0.39
-0.78
-0.95
-0.62
0.15
0.95
1.17
0.41
-1.33
-3.55
-5.51
-6.57
-6.46
-5.39
-3.87
-2.41
-1.27
-0.42
0.42
1.48
2.77
3.98
4.70
4.62
3.78
2.53
1.39
0.71
0.55
0.62
0.50
-0.05
-0.95
-1.79
-2.10
-1.62
-0.50
0.77
1.58
1.58
0.84
-0.13
-0.68
-0.36
0.79
2.30
3.42
3.58
2.60
0.89
-1.04
-2.61
-3.59
-4.13
-4.48
-4.80
-4.96
-4.81
-4.43
-4.18
-4.53
-5.70
-7.31
-8.44
-8.07
-5.71
-1.93
1.98
4.55
4.96
3.44
1.16
-0.51
-0.70
0.37
1.77
2.38
1.60
-0.28
-2.30
-3.43
-2.98
-1.39
0.37
1.21
0.64
-0.98
-2.57
-3.07
-1.97
-0.01
1.47
1.18
-1.30
-5.14
-8.70
-10.44
-9.73
-7.55
-5.66
-5.67
-7.94
-11.33
-13.75
-13.51
-10.18
-5.19
-0.80
1.14
0.25
-2.18
-4.02
-3.64
-0.72
3.36
6.59
7.45
5.79
2.81
0.27
-0.53
0.70
3.01
5.10
6.01
5.58
4.44
3.44
3.12
3.62
4.44
5.02
4.93
4.09
2.76
1.38
0.38
0.08
0.46
1.25
1.97
2.14
1.43
-0.14
-2.17
-4.09
-5.37
-5.71
-5.15
-4.03
-2.81
-1.87
-1.34
-1.06
-0.71
0.01
1.17
2.55
3.79
4.49
4.49
3.91
3.11
2.41
1.97
1.68
1.33
0.71
-0.16
-1.06
-1.65
-1.70
-1.19
-0.34
0.56
1.18
1.37
1.24
1.01
0.96
1.26
1.86
2.55
3.05
3.12
2.73
1.99
1.13
0.27
-0.58
-1.56
-2.77
-4.16
-5.39
-6.03
-5.68
-4.28
-2.17
0.07
1.80
2.72
2.91
2.75
2.70
2.98
3.48
3.89
3.88
3.38
2.61
1.97
1.75
1.98
2.36
2.54
2.28
1.67
1.04
0.73
0.90
1.41
1.94
2.12
1.79
0.99
-0.02
-0.95
-1.52
-1.61
-1.28
-0.77
-0.44
-0.64
-1.51
-2.94
-4.61
-6.07
-7.02
-7.41
-7.35
-7.07
-6.67
-6.08
-5.15
-3.77
-2.02
-0.20
1.27
2.08
2.16
1.68
1.02
0.47
0.17
0.04
-0.14
-0.50
-0.99
-1.42
-1.59
-1.41
-0.99
-0.58
-0.41
-0.53
-0.77
-0.84
-0.58
0.04
0.78
1.34
1.48
1.15
0.56
0.05
-0.13
0.08
0.44
0.54
-0.01
-1.35
-3.25
-5.20
-6.67
-7.37
-7.33
-6.81
-6.14
-5.43
-4.52
-3.22
-1.36
0.88
3.10
4.84
5.81
5.98
5.68
5.27
5.03
5.00
5.02
4.85
4.34
3.55
2.73
2.12
1.85
1.85
1.93
1.89
1.68
1.38
1.23
1.36
1.76
2.27
2.68
2.90
2.96
3.02
3.25
3.73
4.34
4.79
4.76
3.97
2.38
0.15
-2.25
-4.34
-5.70
-6.19
-5.96
-5.33
-4.65
-4.10
-3.60
-2.93
-1.86
-0.34
1.42
3.04
4.10
4.41
4.08
3.42
2.79
2.37
2.11
1.83
1.38
0.76
0.20
-0.02
0.18
0.66
1.07
1.09
0.61
-0.17
-0.84
-1.06
-0.70
0.06
0.82
1.19
0.92
0.04
-1.24
-2.64
-3.95
-5.07
-6.05
-6.86
-7.41
-7.57
-7.18
-6.23
-4.88
-3.38
-1.95
-0.67
0.50
1.67
2.88
4.05
5.02
5.64
5.83
5.71
5.36
4.91
4.47
4.07
3.78
3.66
3.72
3.95
4.29
4.65
4.97
5.16
5.11
4.78
4.10
3.16
2.17
1.40
1.03
1.10
1.39
1.53
1.12
-0.04
-1.90
-4.11
-6.18
-7.66
-8.27
-7.98
-7.08
-5.91
-4.74
-3.69
-2.68
-1.56
-0.27
1.02
1.99
2.32
1.90
0.97
0.04
-0.37
0.03
1.10
2.27
3.01
2.91
2.10
1.08
0.47
0.66
1.55
2.58
3.03
2.44
0.85
-1.20
-2.91
-3.71
-3.50
-2.74
-2.08
-2.10
-2.99
-4.48
-6.13
-7.54
-8.59
-9.38
-10.11
-10.79
-11.20
-10.92
-9.65
-7.36
-4.43
-1.51
0.77
2.04
2.37
2.22
2.15
2.53
3.38
4.38
5.05
5.09
4.49
3.61
2.91
2.74
3.14
3.81
4.32
4.37
3.97
3.43
3.13
3.25
3.62
3.79
3.32
2.10
0.49
-0.82
-1.22
-0.49
0.97
2.35
2.86
2.09
0.29
-1.84
-3.47
-4.11
-3.72
-2.75
-1.72
-1.03
-0.66
-0.27
0.53
1.87
3.54
5.09
6.06
6.30
5.97
5.42
4.93
4.53
4.03
3.22
2.05
0.76
-0.16
-0.32
0.39
1.66
2.86
3.40
2.95
1.70
0.27
-0.65
-0.60
0.34
1.67
2.72
2.99
2.44
1.62
1.05
1.17
1.84
2.50
2.56
1.78
0.49
-0.66
-1.32
-1.58
-1.97
-3.02
-4.69
-6.24
-6.61
-5.13
-2.27
0.66
2.15
1.44
-0.94
-3.45
-4.52
-3.44
-1.01
1.17
1.62
-0.08
-2.97
-5.26
-5.48
-3.15
0.48
3.46
4.14
2.18
-1.26
-4.11
-4.63
-2.38
1.29
4.20
4.58
2.10
-1.89
-5.25
-6.34
-4.88
-2.36
-0.79
-1.60
-4.66
-8.41
-10.76
-10.34
-7.12
-2.63
1.20
3.03
2.77
1.50
0.69
1.29
3.43
6.17
8.37
9.21
8.66
7.29
5.90
5.06
4.88
5.00
5.00
4.57
3.69
2.57
1.51
0.70
0.30
0.23
0.33
0.41
0.30
-0.11
-0.76
-1.50
-2.06
-2.20
-1.92
-1.41
-1.15
-1.63
-3.14
-5.57
-8.40
-10.85
-12.22
-12.21
-10.98
-9.05
-7.00
-5.19
-3.64
-2.17
-0.58
1.15
2.78
4.03
4.65
4.66
4.33
3.99
3.92
4.15
4.49
4.60
4.28
3.48
2.48
1.66
1.35
1.64
2.29
2.95
3.25
3.11
2.70
2.39
2.48
2.98
3.63
3.98
3.67
2.64
1.25
0.04
-0.53
-0.36
0.23
0.61
0.27
-0.97
-2.78
-4.49
-5.49
-5.46
-4.58
-3.36
-2.33
-1.78
-1.59
-1.36
-0.67
0.65
2.38
4.05
5.16
5.40
4.88
3.98
3.15
2.65
2.44
2.24
1.79
1.03
0.18
-0.39
-0.39
0.19
1.06
1.77
1.94
1.48
0.62
-0.18
-0.52
-0.23
0.51
1.28
1.63
1.35
0.58
-0.26
-0.72
-0.56
0.06
0.72
0.91
0.35
-0.85
-2.28
-3.43
-4.01
-4.06
-3.87
-3.76
-3.87
-4.06
-3.95
-3.23
-1.82
0.03
1.87
3.30
4.11
4.45
4.55
4.61
4.69
4.57
4.07
3.14
1.96
0.88
0.26
0.21
0.61
1.15
1.49
1.47
1.13
0.73
0.54
0.77
1.37
2.12
2.67
2.71
2.12
1.06
-0.15
-1.11
-1.61
-1.65
-1.47
-1.30
-1.28
-1.34
-1.34
-1.22
-1.11
-1.32
-2.10
-3.48
-5.20
-6.71
-7.46
-7.12
-5.83
-4.00
-2.24
-1.05
-0.60
-0.66
-0.79
-0.58
0.17
1.28
2.33
2.87
2.68
1.86
0.78
-0.12
-0.60
-0.66
-0.55
-0.56
-0.84
-1.33
-1.78
-1.97
-1.81
-1.43
-1.10
-1.05
-1.32
-1.76
-2.11
-2.19
-2.04
-1.88
-1.97
-2.41
-3.03
-3.48
-3.41
-2.71
-1.63
-0.63
-0.19
-0.55
-1.55
-2.83
-3.95
-4.64
-4.82
-4.58
-3.98
-3.05
-1.75
-0.16
1.49
2.87
3.65
3.71
3.22
2.54
1.96
1.60
1.28
0.77
-0.10
-1.27
-2.41
-3.20
-3.39
-3.02
-2.29
-1.49
-0.80
-0.23
0.36
1.07
1.93
2.78
3.39
3.60
3.40
2.93
2.53
2.44
2.82
3.58
4.47
5.19
5.53
5.39
4.89
4.11
3.19
2.22
1.26
0.41
-0.22
-0.57
-0.62
-0.45
-0.15
0.16
0.48
0.84
1.30
1.85
2.41
2.88
3.16
3.23
3.15
2.97
2.77
2.42
1.84
0.95
-0.22
-1.41
-2.32
-2.68
-2.44
-1.82
-1.18
-0.83
-0.91
-1.22
-1.47
-1.38
-0.91
-0.25
0.33
0.65
0.83
1.11
1.78
2.83
3.91
4.52
4.17
2.74
0.52
-1.83
-3.62
-4.40
-4.12
-3.17
-2.11
-1.46
-1.38
-1.72
-2.10
-2.13
-1.62
-0.68
0.35
1.10
1.35
1.13
0.67
0.25
-0.00
-0.19
-0.48
-1.01
-1.72
-2.29
-2.39
-1.80
-0.64
0.66
1.60
1.84
1.37
0.57
-0.04
-0.05
0.63
1.75
2.83
3.40
3.19
2.25
0.88
-0.55
-1.73
-2.54
-3.06
-3.37
-3.56
-3.54
-3.22
-2.54
-1.57
-0.57
0.25
0.79
1.16
1.66
2.47
3.55
4.62
5.28
5.29
4.71
3.95
3.45
3.50
3.99
4.50
4.55
3.90
2.71
1.43
0.62
0.57
1.17
1.98
2.48
2.39
1.79
1.18
0.98
1.37
2.08
2.50
2.12
0.89
-0.77
-2.16
-2.96
-3.35
-3.95
-5.31
-7.43
-9.58
-10.66
-9.86
-7.26
-3.80
-0.79
0.78
0.73
-0.26
-1.18
-1.09
0.19
2.27
4.39
5.79
6.14
5.64
4.84
4.34
4.10
3.71
2.52
0.22
-2.78
-5.42
-6.49
-5.34
-2.65
0.09
1.32
0.38
-1.96
-3.99
-4.09
-1.83
1.51
3.77
3.18
-0.50
-5.74
-10.02
-11.30
-9.08
-4.93
-1.31
-0.22
-2.03
-5.31
-7.73
-7.46
-4.13
0.79
5.06
6.89
5.89
3.16
0.49
-0.71
0.01
1.83
3.44
3.87
2.96
1.36
0.07
-0.14
0.91
2.70
4.38
5.22
4.90
3.61
1.91
0.43
-0.31
-0.22
0.51
1.39
1.95
1.84
0.98
-0.42
-1.97
-3.25
-3.99
-4.14
-3.84
-3.31
-2.73
-2.12
-1.38
-0.38
0.89
2.24
3.40
4.10
4.25
3.95
3.48
3.14
3.08
3.26
3.46
3.40
2.87
1.81
0.42
-1.03
-2.19
-2.85
-2.96
-2.66
-2.18
-1.71
-1.34
-1.04
-0.74
-0.39
0.01
0.39
0.70
0.93
1.16
1.45
1.80
2.04
1.92
1.14
-0.33
-2.31
-4.33
-5.83
-6.46
-6.15
-5.19
-4.03
-3.05
-2.38
-1.86
-1.21
-0.20
1.09
2.43
3.42
3.79
3.54
2.92
2.32
2.04
2.17
2.46
2.62
2.38
1.71
0.89
0.29
0.20
0.65
1.39
1.99
2.15
1.82
1.26
0.88
0.96
1.51
2.19
2.54
2.21
1.21
-0.08
-1.03
-1.15
-0.32
1.06
2.28
2.66
1.84
0.00
-2.28
-4.32
-5.62
-6.13
-6.07
-5.83
-5.64
-5.45
-5.01
-4.06
-2.57
-0.82
0.71
1.57
1.63
1.12
0.52
0.25
0.43
0.80
0.95
0.53
-0.41
-1.51
-2.26
-2.34
-1.79
-0.99
-0.37
-0.25
-0.59
-1.04
-1.17
-0.73
0.25
1.43
2.37
2.75
2.48
1.83
1.16
0.80
0.81
1.06
1.27
1.25
1.01
0.80
0.91
1.42
2.16
2.66
2.46
1.34
-0.52
-2.54
-4.05
-4.55
-3.99
-2.73
-1.41
-0.54
-0.29
-0.40
-0.38
0.15
1.28
2.67
3.77
4.18
3.82
2.99
2.16
1.70
1.64
1.75
1.68
1.23
0.52
-0.08
-0.17
0.41
1.45
2.44
2.91
2.61
1.71
0.70
0.12
0.26
1.00
1.94
2.57
2.58
2.03
1.28
0.83
1.00
1.82
2.95
3.89
4.22
3.69
2.42
0.69
-1.10
-2.70
-3.99
-5.02
-5.89
-6.61
-7.03
-6.99
-6.38
-5.28
-4.03
-3.01
-2.51
-2.52
-2.80
-2.95
-2.74
-2.25
-1.81
-1.78
-2.30
-3.15
-3.93
-4.22
-3.89
-3.06
-2.04
-1.01
-0.01
1.11
2.40
3.80
5.01
5.65
5.51
4.68
3.46
2.29
1.54
1.35
1.69
2.41
3.29
4.17
4.76
4.90
4.38
3.18
1.50
-0.27
-1.72
-2.49
-2.56
-2.09
-1.43
-0.87
-0.53
-0.30
-0.04
0.40
1.04
1.72
2.27
2.56
2.59
2.46
2.28
2.09
1.86
1.53
1.08
0.59
0.18
-0.07
-0.20
-0.31
-0.54
-0.94
-1.39
-1.74
-1.83
-1.67
-1.42
-1.26
-1.34
-1.61
-1.83
-1.82
-1.45
-0.76
-0.01
0.61
0.97
1.05
0.94
0.74
0.45
-0.01
-0.74
-1.77
-2.98
-4.13
-4.87
-4.92
-4.21
-2.88
-1.35
-0.13
0.39
0.16
-0.52
-1.12
-1.14
-0.42
0.74
1.84
2.36
2.13
1.45
0.78
0.55
0.84
1.35
1.58
1.18
0.16
-1.10
-2.04
-2.31
-1.88
-1.12
-0.53
-0.46
-0.93
-1.56
-1.90
-1.60
-0.68
0.52
1.62
2.31
2.63
2.84
3.14
3.53
3.71
3.26
1.89
-0.30
-2.79
-4.89
-6.02
-5.99
-5.04
-3.67
-2.36
-1.38
-0.67
0.05
1.06
2.45
4.08
5.60
6.66
7.04
6.78
6.14
5.42
4.82
4.37
3.90
3.32
2.62
1.98
1.59
1.54
1.71
1.78
1.46
0.68
-0.38
-1.30
-1.61
-1.16
-0.09
1.12
1.91
1.92
1.15
0.13
-0.62
-0.58
0.29
1.56
2.62
3.01
2.65
1.79
0.53
-1.15
-3.45
-6.38
-9.39
-11.38
-11.26
-8.54
-4.02
0.68
3.81
4.48
3.15
1.31
0.61
1.81
4.33
6.76
7.69
6.61
4.13
1.56
0.02
0.02
0.81
1.27
0.54
-1.43
-3.72
-5.02
-4.42
-1.93
1.12
2.95
2.28
-0.95
-5.30
-8.57
-9.02
-6.28
-1.88
1.70
2.34
-0.48
-5.40
-9.87
-11.72
-10.19
-6.53
-2.95
-1.32
-2.16
-4.33
-5.93
-5.54
-2.90
0.79
3.83
4.96
4.05
2.06
0.32
-0.12
0.96
2.85
4.56
5.27
4.78
3.49
2.11
1.28
1.36
2.14
3.16
3.87
3.90
3.20
2.05
0.92
0.28
0.35
1.06
2.08
3.01
3.50
3.47
3.02
2.40
1.79
1.21
0.56
-0.34
-1.58
-3.14
-4.84
-6.41
-7.59
-8.22
-8.28
-7.87
-7.14
-6.25
-5.32
-4.33
-3.26
-2.08
-0.84
0.31
1.15
1.56
1.50
1.18
0.85
0.72
0.78
0.82
0.56
-0.21
-1.40
-2.62
-3.36
-3.25
-2.23
-0.63
1.01
2.14
2.51
2.22
1.63
1.16
1.06
1.37
1.87
2.30
2.43
2.20
1.68
1.01
0.29
-0.47
-1.30
-2.18
-3.01
-3.52
-3.44
-2.59
-1.05
0.88
2.80
4.32
5.26
5.70
5.85
5.93
6.02
6.04
5.88
5.41
4.68
3.83
3.05
2.49
2.11
1.78
1.35
0.67
-0.23
-1.20
-1.99
-2.44
-2.46
-2.12
-1.61
-1.12
-0.72
-0.34
0.12
0.74
1.40
1.83
1.75
0.99
-0.35
-1.93
-3.29
-4.10
-4.26
-3.96
-3.51
-3.19
-3.06
-2.94
-2.59
-1.83
-0.70
0.53
1.48
1.89
1.69
1.12
0.50
0.09
-0.05
-0.10
-0.32
-0.89
-1.72
-2.51
-2.87
-2.61
-1.79
-0.82
-0.17
-0.13
-0.67
-1.41
-1.90
-1.79
-1.10
-0.08
0.84
1.37
1.37
0.90
0.15
-0.78
-1.78
-2.82
-3.86
-4.76
-5.35
-5.42
-4.90
-3.86
-2.53
-1.25
-0.33
0.09
0.12
0.07
0.26
0.85
1.73
2.60
3.11
3.07
2.56
1.85
1.28
1.07
1.27
1.76
2.33
2.79
3.00
2.98
2.79
2.49
2.12
1.65
1.05
0.40
-0.12
-0.24
0.15
0.95
1.75
2.01
1.34
-0.34
-2.59
-4.72
-6.03
-6.21
-5.42
-4.20
-3.12
-2.52
-2.34
-2.24
-1.83
-0.94
0.30
1.56
2.50
2.98
3.06
2.91
2.61
2.15
1.39
0.28
-1.04
-2.25
-3.01
-3.12
-2.65
-1.88
-1.12
-0.61
-0.41
-0.41
-0.42
-0.27
0.12
0.73
1.47
2.13
2.52
2.45
1.89
0.91
-0.30
-1.49
-2.48
-3.23
-3.72
-4.04
-4.16
-4.05
-3.67
-3.03
-2.21
-1.32
-0.32
0.82
2.18
3.73
5.22
6.28
6.62
6.20
5.31
4.39
3.86
3.83
4.14
4.44
4.48
4.22
3.84
3.56
3.61
3.92
4.29
4.49
4.40
4.01
3.54
3.16
3.05
3.19
3.43
3.58
3.48
2.97
2.07
0.88
-0.46
-1.74
-2.82
-3.61
-4.11
-4.38
-4.45
-4.32
-3.97
-3.31
-2.26
-0.86
0.76
2.34
3.62
4.33
4.43
4.02
3.40
2.84
2.48
2.22
1.85
1.16
0.19
-0.79
-1.36
-1.20
-0.35
0.78
1.61
1.70
0.99
-0.12
-1.04
-1.26
-0.66
0.44
1.49
2.04
1.92
1.33
0.67
0.26
0.10
-0.03
-0.45
-1.30
-2.39
-3.25
-3.45
-2.79
-1.47
0.02
1.11
1.51
1.31
0.89
0.69
0.94
1.53
2.11
2.31
1.98
1.30
0.63
0.30
0.39
0.71
0.91
0.69
0.01
-0.93
-1.79
-2.27
-2.35
-2.20
-2.09
-2.27
-2.76
-3.36
-3.70
-3.47
-2.56
-1.17
0.21
1.10
1.16
0.43
-0.72
-1.82
-2.50
-2.72
-2.70
-2.75
-2.95
-3.15
-3.00
-2.21
-0.80
0.89
2.31
3.08
3.08
2.57
1.90
1.41
1.13
0.87
0.42
-0.30
-1.09
-1.65
-1.79
-1.60
-1.35
-1.40
-1.87
-2.54
-2.99
-2.76
-1.69
-0.01
1.74
2.95
3.22
2.53
1.29
0.25
0.02
0.90
2.61
4.34
5.22
4.77
3.19
1.24
-0.51
-1.85
-3.06
-4.60
-6.47
-8.05
-8.38
-6.82
-3.83
-0.70
1.05
0.55
-1.71
-4.22
-5.33
-4.24
-1.65
0.79
1.51
-0.05
-3.00
-5.53
-6.06
-4.05
-0.71
2.00
2.49
0.45
-2.77
-5.09
-4.83
-1.76
2.50
5.65
5.95
3.30
-0.68
-3.59
-3.66
-0.67
3.70
7.03
7.47
4.76
0.28
-3.86
-5.95
-5.44
-3.19
-0.63
1.08
1.63
1.52
1.56
2.28
3.76
5.46
6.73
7.16
6.66
5.50
4.10
2.87
2.14
2.02
2.37
2.87
3.18
3.05
2.55
1.94
1.62
1.80
2.40
3.00
3.13
2.45
1.01
-0.75
-2.22
-2.83
-2.38
-1.12
0.33
1.27
1.16
-0.01
-1.83
-3.59
-4.63
-4.73
-4.14
-3.43
-3.14
-3.40
-3.91
-4.17
-3.75
-2.61
-1.11
0.20
0.96
1.07
0.82
0.60
0.64
0.95
1.30
1.41
1.16
0.63
0.12
-0.07
0.20
0.87
1.68
2.27
2.40
2.01
1.27
0.52
0.11
0.25
0.87
1.73
2.48
2.86
2.83
2.50
2.04
1.54
0.94
0.11
-1.01
-2.32
-3.51
-4.24
-4.33
-3.81
-3.00
-2.24
-1.70
-1.32
-0.82
0.09
1.49
3.18
4.74
5.70
5.77
5.00
3.77
2.53
1.64
1.18
0.90
0.49
-0.31
-1.41
-2.45
-3.00
-2.79
-1.93
-0.88
-0.16
-0.10
-0.64
-1.35
-1.73
-1.45
-0.53
0.64
1.50
1.65
0.97
-0.26
-1.60
-2.62
-3.18
-3.37
-3.48
-3.75
-4.23
-4.67
-4.72
-4.06
-2.65
-0.78
1.04
2.37
3.02
3.13
3.04
3.06
3.27
3.50
3.41
2.77
1.60
0.21
-0.94
-1.50
-1.40
-0.91
-0.42
-0.27
-0.53
-0.98
-1.29
-1.21
-0.73
-0.14
0.22
0.15
-0.25
-0.61
-0.49
0.28
1.48
2.58
2.94
2.26
0.65
-1.28
-2.84
-3.56
-3.39
-2.73
-2.10
-1.86
-2.02
-2.18
-1.91
-0.94
0.61
2.29
3.57
4.10
3.86
3.22
2.63
2.44
2.66
2.97
2.95
2.24
0.87
-0.77
-2.07
-2.56
-2.18
-1.26
-0.41
-0.15
-0.63
-1.53
-2.33
-2.58
-2.17
-1.37
-0.62
-0.26
-0.37
-0.73
-1.09
-1.33
-1.57
-2.03
-2.87
-4.02
-5.14
-5.79
-5.65
-4.76
-3.47
-2.36
-1.88
-2.22
-3.13
-4.12
-4.60
-4.24
-3.12
-1.63
-0.26
0.63
0.99
1.01
0.94
0.95
1.06
1.19
1.36
1.66
2.17
2.92
3.73
4.34
4.49
4.08
3.30
2.40
1.70
1.40
1.55
2.11
2.90
3.62
3.95
3.61
2.48
0.65
-1.54
-3.65
-5.27
-6.18
-6.27
-5.67
-4.52
-3.14
-1.75
-0.55
0.41
1.15
1.85
2.60
3.40
4.10
4.51
4.49
4.06
3.31
2.45
1.63
0.97
0.53
0.34
0.39
0.59
0.79
0.80
0.55
0.10
-0.34
-0.51
-0.26
0.41
1.22
1.86
2.01
1.56
0.54
-0.83
-2.28
-3.58
-4.62
-5.33
-5.73
-5.88
-5.79
-5.46
-4.87
-4.04
-3.11
-2.19
-1.44
-0.87
-0.38
0.21
1.02
1.98
2.83
3.20
2.87
1.89
0.65
-0.37
-0.76
-0.39
0.52
1.51
2.17
2.28
1.93
1.42
1.07
1.05
1.33
1.68
1.90
1.86
1.61
1.31
1.05
0.80
0.40
-0.33
-1.42
-2.68
-3.70
-4.06
-3.59
-2.46
-1.16
-0.20
0.07
-0.29
-0.87
-1.15
-0.81
0.09
1.19
1.97
2.06
1.46
0.50
-0.35
-0.72
-0.53
0.03
0.63
1.02
1.13
1.18
1.44
2.05
2.99
3.95
4.64
4.89
4.82
4.69
4.70
4.80
4.67
3.88
2.24
-0.10
-2.59
-4.58
-5.67
-5.81
-5.40
-4.87
-4.53
-4.33
-3.95
-3.03
-1.40
0.73
2.87
4.46
5.07
4.69
3.63
2.43
1.55
1.13
0.98
0.71
0.12
-0.72
-1.37
-1.48
-0.92
0.01
0.67
0.60
-0.21
-1.25
-1.74
-1.24
0.15
1.78
2.88
3.00
2.31
1.44
1.06
1.24
1.58
1.38
0.16
-1.83
-3.77
-4.64
-3.75
-1.46
1.18
2.98
3.21
2.12
0.76
0.34
1.51
3.61
5.31
5.21
2.80
-1.09
-4.69
-6.34
-5.33
-2.73
-0.47
-0.30
-2.67
-6.40
-9.28
-9.48
-6.58
-2.15
1.38
2.06
-0.42
-4.58
-8.01
-8.87
-6.77
-3.16
-0.19
0.49
-1.35
-4.45
-6.92
-7.24
-5.04
-1.39
2.08
4.00
3.98
2.70
1.35
0.97
1.96
3.78
5.46
6.17
5.54
3.95
2.16
0.92
0.72
1.46
2.67
3.71
4.09
3.69
2.76
1.79
1.30
1.49
2.18
2.86
3.01
2.34
0.96
-0.71
-2.15
-3.06
-3.41
-3.45
-3.48
-3.70
-4.06
-4.32
-4.17
-3.38
-1.96
-0.14
1.69
3.11
3.88
3.98
3.66
3.28
3.12
3.21
3.36
3.24
2.63
1.58
0.36
-0.63
-1.13
-1.11
-0.84
-0.61
-0.65
-0.92
-1.22
-1.30
-1.02
-0.46
0.12
0.40
0.14
-0.73
-2.05
-3.51
-4.74
-5.44
-5.56
-5.19
-4.57
-3.86
-3.09
-2.14
-0.90
0.63
2.23
3.60
4.42
4.62
4.41
4.13
4.12
4.47
4.96
5.27
5.13
4.49
3.59
2.81
2.46
2.55
2.78
2.75
2.16
1.03
-0.33
-1.40
-1.86
-1.65
-0.98
-0.24
0.28
0.42
0.29
-0.01
-0.40
-0.89
-1.60
-2.62
-3.85
-5.06
-5.89
-5.96
-5.11
-3.51
-1.59
0.10
1.15
1.48
1.35
1.22
1.48
2.14
2.92
3.41
3.28
2.54
1.54
0.74
0.47
0.75
1.25
1.56
1.42
0.84
0.13
-0.28
-0.15
0.50
1.36
2.04
2.26
2.03
1.57
1.18
0.96
0.74
0.23
-0.84
-2.44
-4.21
-5.55
-5.99
-5.35
-3.87
-2.10
-0.58
0.41
0.93
1.27
1.74
2.45
3.24
3.77
3.72
3.02
1.85
0.63
-0.27
-0.67
-0.62
-0.39
-0.23
-0.31
-0.54
-0.71
-0.55
-0.00
0.82
1.60
2.00
1.86
1.24
0.47
-0.09
-0.22
0.01
0.28
0.19
-0.52
-1.76
-3.14
-4.15
-4.42
-3.93
-2.99
-2.05
-1.42
-1.12
-0.88
-0.36
0.63
1.96
3.22
3.91
3.76
2.78
1.33
-0.08
-1.06
-1.54
-1.69
-1.82
-2.13
-2.55
-2.80
-2.60
-1.89
-0.91
-0.13
0.07
-0.38
-1.23
-1.92
-1.96
-1.17
0.26
1.78
2.78
2.81
1.81
0.08
-1.80
-3.32
-4.20
-4.49
-4.50
-4.55
-4.73
-4.87
-4.60
-3.62
-1.99
-0.13
1.39
2.12
2.02
1.43
0.92
0.96
1.67
2.83
4.04
4.90
5.26
5.15
4.77
4.30
3.87
3.51
3.30
3.21
3.25
3.36
3.46
3.48
3.48
3.53
3.77
4.20
4.75
5.14
5.07
4.36
3.06
1.41
-0.12
-1.17
-1.49
-1.12
-0.30
0.60
1.30
1.63
1.65
1.56
1.57
1.84
2.35
2.92
3.34
3.38
3.00
2.28
1.44
0.69
0.16
-0.20
-0.52
-1.08
-2.00
-3.26
-4.61
-5.70
-6.20
-5.96
-5.07
-3.88
-2.75
-1.96
-1.53
-1.23
-0.79
-0.05
0.86
1.58
1.69
1.02
-0.30
-1.77
-2.84
-3.16
-2.69
-1.73
-0.67
0.21
0.82
1.39
2.14
3.19
4.41
5.49
6.05
5.85
4.90
3.51
2.07
0.96
0.32
0.08
0.02
-0.10
-0.40
-0.81
-1.22
-1.49
-1.65
-1.82
-2.09
-2.51
-2.97
-3.18
-2.89
-2.03
-0.81
0.33
0.92
0.65
-0.40
-1.80
-3.00
-3.59
-3.51
-3.00
-2.49
-2.25
-2.33
-2.47
-2.38
-1.87
-1.00
-0.03
0.74
1.14
1.22
1.18
1.23
1.43
1.67
1.73
1.41
0.71
-0.16
-0.87
-1.18
-1.04
-0.65
-0.34
-0.35
-0.72
-1.24
-1.59
-1.51
-0.92
0.04
1.08
1.91
2.33
2.31
1.89
1.17
0.23
-0.87
-2.04
-3.09
-3.74
-3.68
-2.69
-0.81
1.67
4.17
6.13
7.16
7.31
7.02
6.83
7.19
8.07
9.01
9.43
8.93
7.65
6.11
4.70
3.52
2.28
0.58
-1.57
-3.63
-4.75
-4.30
-2.65
-0.82
-0.08
-1.06
-3.27
-5.30
-5.76
-4.16
-1.44
0.58
0.31
-2.61
-7.02
-10.81
-12.17
-10.46
-6.88
-3.40
-1.74
-2.37
-4.25
-5.54
-4.81
-1.77
2.09
4.73
4.60
1.58
-2.79
-6.18
-6.81
-4.27
-0.10
3.34
4.13
1.81
-2.30
-5.90
-7.08
-5.19
-1.38
2.32
4.09
3.34
0.92
-1.45
-2.27
-0.90
1.89
4.64
5.96
5.19
2.73
-0.31
-2.78
-3.88
-3.70
-2.81
-1.94
-1.61
-1.84
-2.26
-2.35
-1.74
-0.38
1.44
3.22
4.54
5.16
5.12
4.65
4.10
3.71
3.56
3.49
3.32
2.88
2.20
1.48
1.01
0.98
1.39
1.95
2.22
1.88
0.85
-0.56
-1.83
-2.41
-2.04
-0.89
0.48
1.39
1.33
0.22
-1.55
-3.32
-4.48
-4.77
-4.33
-3.61
-2.99
-2.66
-2.42
-1.97
-1.07
0.24
1.65
2.84
3.52
3.73
3.63
3.43
3.18
2.80
2.11
1.00
-0.48
-2.11
-3.48
-4.25
-4.19
-3.37
-2.08
-0.78
0.13
0.44
0.25
-0.13
-0.39
-0.35
-0.08
0.12
-0.03
-0.70
-1.80
-3.04
-4.11
-4.86
-5.37
-5.81
-6.41
-7.20
-7.97
-8.35
-8.06
-7.02
-5.52
-3.95
-2.68
-1.84
-1.23
-0.59
0.26
1.22
2.01
2.31
2.03
1.35
0.68
0.38
0.62
1.29
2.04
2.52
2.55
2.16
1.60
1.17
1.01
1.11
1.29
1.35
1.19
0.86
0.59
0.59
0.88
1.25
1.30
0.63
-0.86
-2.89
-4.85
-6.04
-6.12
-5.16
-3.73
-2.45
-1.78
-1.75
-1.94
-1.85
-1.17
0.06
1.43
2.43
2.74
2.37
1.62
0.90
0.49
0.40
0.46
0.42
0.18
-0.21
-0.55
-0.63
-0.38
0.08
0.52
0.69
0.54
0.18
-0.08
0.05
0.70
1.75
2.86
3.58
3.60
2.85
1.52
-0.02
-1.40
-2.41
-3.05
-3.44
-3.73
-3.95
-4.00
-3.70
-2.93
-1.74
-0.39
0.78
1.50
1.74
1.69
1.66
1.86
2.28
2.73
2.87
2.54
1.79
0.92
0.31
0.26
0.77
1.62
2.46
3.06
3.36
3.52
3.72
4.08
4.48
4.67
4.50
3.99
3.42
3.17
3.45
4.12
4.68
4.55
3.37
1.21
-1.37
-3.55
-4.68
-4.46
-3.19
-1.47
0.02
0.87
1.08
0.95
0.90
1.24
2.03
3.06
4.14
5.11
5.93
6.61
7.10
7.26
6.90
5.97
4.57
3.01
1.62
0.62
0.05
-0.27
-0.53
-0.94
-1.54
-2.28
-3.03
-3.67
-4.04
-4.06
-3.71
-3.15
-2.56
-2.25
-2.34
-2.85
-3.58
-4.23
-4.53
-4.34
-3.62
-2.53
-1.24
0.06
1.25
2.24
3.03
3.57
3.91
4.04
4.03
3.92
3.74
3.52
3.24
2.86
2.38
1.83
1.40
1.16
1.15
1.27
1.40
1.35
1.12
0.80
0.55
0.55
0.84
1.38
1.97
2.32
2.14
1.27
-0.29
-2.27
-4.23
-5.71
-6.45
-6.50
-6.13
-5.66
-5.26
-4.81
-4.08
-2.88
-1.30
0.30
1.46
1.93
1.76
1.30
0.97
0.94
1.14
1.21
0.82
-0.14
-1.48
-2.74
-3.49
-3.52
-2.98
-2.25
-1.79
-1.87
-2.43
-3.17
-3.64
-3.53
-2.81
-1.77
-0.87
-0.52
-0.91
-1.86
-3.03
-4.05
-4.69
-5.01
-5.22
-5.52
-5.92
-6.13
-5.76
-4.50
-2.39
0.14
2.44
3.98
4.54
4.44
4.23
4.35
4.94
5.69
6.09
5.71
4.51
2.86
1.39
0.55
0.49
0.93
1.37
1.41
0.89
-0.01
-0.93
-1.53
-1.69
-1.52
-1.25
-1.14
-1.34
-1.82
-2.48
-3.20
-3.89
-4.54
-5.11
-5.57
-5.77
-5.55
-4.76
-3.36
-1.49
0.60
2.62
4.30
5.52
6.30
6.73
6.89
6.80
6.43
5.76
4.87
3.95
3.23
2.85
2.80
2.89
2.91
2.69
2.27
1.88
1.74
1.93
2.31
2.59
2.47
1.96
1.33
1.06
1.47
2.53
3.75
4.45
4.09
2.58
0.39
-1.62
-2.80
-2.78
-1.83
-0.51
0.63
1.44
2.13
3.07
4.21
5.18
5.39
4.47
2.72
1.02
0.34
1.19
2.94
4.32
4.04
1.67
-2.02
-5.33
-6.66
-5.38
-2.42
0.41
1.44
0.10
-2.67
-5.08
-5.52
-3.49
-0.16
2.57
3.09
1.13
-2.16
-4.89
-5.64
-4.14
-1.72
-0.19
-0.86
-3.67
-7.17
-9.42
-9.04
-5.91
-1.36
2.69
4.83
4.77
3.38
2.07
1.89
3.14
5.08
6.63
6.94
5.87
3.95
2.02
0.82
0.66
1.25
2.06
2.53
2.37
1.61
0.57
-0.36
-0.89
-0.94
-0.63
-0.25
-0.05
-0.16
-0.53
-1.05
-1.61
-2.13
-2.74
-3.55
-4.68
-6.03
-7.36
-8.26
-8.37
-7.53
-5.92
-3.89
-1.92
-0.38
0.62
1.15
1.44
1.73
2.09
2.45
2.61
2.39
1.73
0.79
-0.16
-0.83
-1.05
-0.84
-0.37
0.19
0.67
1.00
1.19
1.22
1.06
0.69
0.14
-0.47
-0.95
-1.13
-0.87
-0.25
0.46
0.88
0.58
-0.64
-2.70
-5.14
-7.32
-8.60
-8.67
-7.61
-5.86
-3.95
-2.29
-1.00
0.10
1.19
2.42
3.69
4.78
5.50
5.80
5.80
5.70
5.64
5.56
5.30
4.65
3.60
2.31
1.09
0.35
0.25
0.76
1.61
2.39
2.76
2.55
1.83
0.88
0.06
-0.36
-0.27
0.21
0.80
1.26
1.47
1.42
1.18
0.81
0.27
-0.53
-1.56
-2.71
-3.69
-4.22
-4.11
-3.40
-2.28
-1.02
0.16
1.18
2.06
2.90
3.80
4.73
5.57
6.11
6.22
5.85
5.17
4.46
3.99
3.89
4.05
4.23
4.14
3.74
3.14
2.63
2.52
2.87
3.56
4.26
4.69
4.61
4.04
3.18
2.33
1.75
1.54
1.60
1.72
1.65
1.26
0.59
-0.22
-1.04
-1.84
-2.71
-3.72
-4.85
-5.86
-6.49
-6.47
-5.82
-4.79
-3.81
-3.21
-3.07
-3.18
-3.13
-2.54
-1.27
0.52
2.42
3.96
4.81
4.87
4.33
3.53
2.78
2.31
2.08
1.94
1.74
1.37
0.99
0.77
0.85
1.15
1.44
1.40
0.79
-0.32
-1.61
-2.62
-3.03
-2.78
-2.10
-1.35
-0.78
-0.45
-0.22
0.03
0.22
0.06
-0.78
-2.46
-4.75
-7.09
-8.80
-9.39
-8.81
-7.42
-5.79
-4.39
-3.45
-2.82
-2.18
-1.28
-0.04
1.36
2.57
3.28
3.34
2.87
2.14
1.48
1.08
0.90
0.74
0.43
-0.08
-0.59
-0.84
-0.63
0.00
0.79
1.42
1.72
1.73
1.64
1.64
1.75
1.84
1.77
1.50
1.18
0.96
0.88
0.79
0.36
-0.69
-2.33
-4.31
-6.18
-7.55
-8.21
-8.24
-7.85
-7.18
-6.29
-5.13
-3.55
-1.53
0.82
3.23
5.36
6.93
7.84
8.14
8.10
8.01
8.03
8.15
8.18
7.92
7.32
6.48
5.68
5.12
4.88
4.88
4.93
4.86
4.64
4.30
3.90
3.45
3.03
2.72
2.69
3.01
3.57
3.97
3.74
2.52
0.40
-2.16
-4.44
-5.87
-6.25
-5.93
-5.41
-5.12
-5.21
-5.41
-5.38
-4.85
-3.81
-2.54
-1.37
-0.55
-0.13
0.08
0.35
0.76
1.27
1.60
1.47
0.73
-0.46
-1.68
-2.50
-2.68
-2.35
-1.89
-1.76
-2.15
-2.90
-3.57
-3.72
-3.13
-1.97
-0.74
0.02
-0.09
-1.11
-2.76
-4.54
-6.07
-7.13
-7.75
-8.11
-8.29
-8.27
-7.83
-6.76
-5.07
-3.01
-1.03
0.44
1.27
1.66
2.01
2.67
3.71
4.84
5.54
5.37
4.24
2.47
0.68
-0.51
-0.80
-0.27
0.61
1.32
1.49
1.08
0.36
-0.32
-0.71
-0.81
-0.78
-0.81
-0.95
-1.08
-1.07
-0.91
-0.84
-1.19
-2.24
-3.93
-5.84
-7.32
-7.83
-7.21
-5.77
-4.13
-2.88
-2.27
-2.15
-2.07
-1.49
-0.23
1.59
3.46
4.78
5.10
4.35
2.94
1.44
0.44
0.21
0.58
1.16
1.65
1.99
2.37
2.83
3.17
2.91
1.62
-0.66
-3.21
-4.96
-4.94
-3.07
-0.05
2.87
4.57
4.61
3.40
1.74
0.37
-0.56
-1.39
-2.61
-4.39
-6.40
-7.88
-8.11
-6.60
-3.70
-0.19
2.97
5.04
5.87
5.89
5.77
6.05
6.54
6.61
5.55
3.10
-0.16
-2.91
-3.89
-2.48
0.40
3.09
3.86
2.05
-1.41
-4.51
-5.33
-3.20
0.75
4.35
5.61
3.98
0.64
-2.24
-2.88
-0.81
2.65
5.37
5.70
3.36
-0.43
-3.73
-5.03
-3.89
-1.20
1.52
3.13
3.25
2.44
1.65
1.63
2.71
4.43
6.06
6.89
6.57
5.27
3.49
1.87
0.93
0.79
1.17
1.55
1.42
0.56
-0.84
-2.26
-3.15
-3.18
-2.42
-1.32
-0.44
-0.16
-0.51
-1.14
-1.59
-1.52
-0.98
-0.39
-0.37
-1.38
-3.43
-6.06
-8.40
-9.70
-9.57
-8.20
-6.18
-4.24
-2.86
-2.10
-1.68
-1.18
-0.39
0.64
1.58
2.11
2.04
1.50
0.83
0.40
0.39
0.72
1.08
1.12
0.67
-0.21
-1.16
-1.81
-1.94
-1.59
-1.05
-0.67
-0.68
-1.04
-1.44
-1.51
-1.04
-0.15
0.70
0.94
0.16
-1.57
-3.70
-5.45
-6.16
-5.66
-4.39
-3.00
-2.09
-1.78
-1.69
-1.24
-0.04
1.84
3.86
5.37
5.95
5.58
4.72
3.92
3.57
3.66
3.89
3.85
3.29
2.25
1.05
0.09
-0.40
-0.44
-0.34
-0.49
-1.18
-2.36
-3.65
-4.52
-4.56
-3.72
-2.36
-1.16
-0.74
-1.46
-3.11
-5.15
-6.85
-7.73
-7.65
-6.86
-5.78
-4.71
-3.72
-2.64
-1.28
0.43
2.29
3.98
5.18
5.82
6.09
6.30
6.67
7.15
7.45
7.17
6.12
4.45
2.69
1.47
1.20
1.89
3.13
4.32
4.97
4.95
4.52
4.09
4.04
4.41
4.95
5.31
5.18
4.53
3.63
2.81
2.25
1.87
1.31
0.28
-1.32
-3.21
-4.75
-5.37
-4.80
-3.25
-1.31
0.36
1.37
1.77
1.99
2.51
3.55
4.86
5.92
6.14
5.28
3.54
1.58
0.09
-0.46
-0.16
0.51
0.92
0.64
-0.30
-1.49
-2.37
-2.56
-2.04
-1.16
-0.39
-0.01
-0.07
-0.32
-0.51
-0.55
-0.67
-1.24
-2.54
-4.55
-6.89
-8.90
-9.94
-9.70
-8.27
-6.15
-3.99
-2.29
-1.26
-0.78
-0.54
-0.28
0.06
0.34
0.31
-0.16
-0.98
-1.89
-2.57
-2.87
-2.88
-2.87
-3.11
-3.69
-4.41
-4.92
-4.91
-4.31
-3.33
-2.37
-1.77
-1.66
-1.85
-1.99
-1.82
-1.35
-0.95
-1.14
-2.27
-4.36
-6.92
-9.21
-10.50
-10.44
-9.15
-7.15
-5.03
-3.20
-1.72
-0.40
1.03
2.70
4.48
6.11
7.40
8.23
8.67
8.79
8.64
8.12
7.17
5.82
4.33
3.00
2.17
1.94
2.21
2.70
3.08
3.07
2.61
1.79
0.88
0.19
-0.07
0.18
0.74
1.25
1.36
0.82
-0.34
-1.87
-3.41
-4.62
-5.31
-5.43
-5.01
-4.10
-2.77
-1.05
0.89
2.80
4.41
5.37
5.55
5.00
4.05
3.13
2.67
2.80
3.36
3.89
3.96
3.37
2.34
1.36
0.94
1.30
2.22
3.15
3.57
3.21
2.25
1.17
0.46
0.35
0.68
0.99
0.86
0.05
-1.29
-2.71
-3.76
-4.20
-4.12
-3.85
-3.82
-4.12
-4.58
-4.74
-4.20
-2.83
-0.88
1.15
2.79
3.85
4.44
4.92
5.52
6.23
6.79
6.83
6.17
4.94
3.54
2.48
2.09
2.34
2.87
3.19
2.94
2.11
1.03
0.18
-0.05
0.38
1.19
1.93
2.23
2.04
1.57
1.23
1.32
1.85
2.58
3.04
2.81
1.68
-0.19
-2.39
-4.33
-5.54
-5.86
-5.47
-4.75
-4.07
-3.52
-2.92
-1.91
-0.27
1.83
3.96
5.58
6.32
6.22
5.69
5.16
4.91
4.86
4.75
4.27
3.34
2.15
1.06
0.37
0.15
0.24
0.34
0.24
-0.12
-0.51
-0.69
-0.52
-0.05
0.41
0.55
0.21
-0.44
-1.00
-1.08
-0.52
0.39
1.01
0.69
-0.90
-3.51
-6.28
-8.23
-8.64
-7.38
-5.04
-2.47
-0.32
1.20
2.40
3.40
4.20
4.42
3.70
2.18
0.64
0.04
1.01
3.11
5.11
5.61
3.92
0.57
-2.92
-4.97
-4.71
-2.72
-0.35
0.98
0.66
-0.77
-2.08
-2.17
-0.66
1.46
2.77
2.18
-0.38
-3.70
-6.00
-5.93
-3.37
0.13
2.38
1.73
-1.98
-7.18
-11.44
-12.82
-10.82
-6.86
-3.19
-1.65
-2.66
-5.01
-6.76
-6.37
-3.52
0.52
3.87
5.08
3.89
1.33
-1.01
-1.87
-0.87
1.26
3.29
4.21
3.65
2.02
0.19
-1.03
-1.16
-0.31
1.00
2.15
2.71
2.56
1.94
1.26
0.97
1.22
1.89
2.63
3.05
2.89
2.13
0.96
-0.34
-1.54
-2.55
-3.43
-4.25
-5.05
-5.73
-6.08
-5.85
-4.90
-3.26
-1.24
0.71
2.14
2.83
2.83
2.52
2.28
2.43
2.97
3.65
4.14
4.18
3.73
2.98
2.21
1.64
1.35
1.23
1.10
0.81
0.39
-0.01
-0.16
0.12
0.78
1.55
2.10
2.14
1.67
0.98
0.51
0.62
1.36
2.43
3.28
3.39
2.52
0.82
-1.21
-3.00
-4.11
-4.43
-4.17
-3.69
-3.23
-2.79
-2.15
-1.06
0.53
2.37
4.01
5.05
5.38
5.27
5.17
5.43
6.09
6.81
7.19
6.88
5.94
4.71
3.68
3.13
3.07
3.20
3.13
2.62
1.72
0.77
0.16
0.14
0.63
1.32
1.76
1.68
1.09
0.29
-0.32
-0.44
-0.04
0.52
0.77
0.30
-1.05
-2.98
-4.99
-6.52
-7.22
-7.12
-6.52
-5.79
-5.18
-4.65
-3.92
-2.79
-1.19
0.62
2.20
3.16
3.40
3.13
2.74
2.52
2.51
2.45
1.98
0.89
-0.71
-2.44
-3.78
-4.44
-4.42
-4.02
-3.61
-3.50
-3.73
-4.12
-4.33
-4.13
-3.41
-2.31
-1.13
-0.25
0.17
0.16
-0.08
-0.32
-0.54
-0.92
-1.78
-3.27
-5.20
-7.05
-8.18
-8.16
-6.99
-5.12
-3.24
-1.83
-1.02
-0.47
0.25
1.47
3.09
4.66
5.59
5.51
4.46
2.89
1.43
0.52
0.24
0.30
0.27
-0.09
-0.70
-1.21
-1.23
-0.58
0.59
1.81
2.57
2.51
1.62
0.27
-1.03
-1.80
-1.81
-1.15
-0.24
0.42
0.44
-0.31
-1.64
-3.19
-4.62
-5.77
-6.62
-7.26
-7.70
-7.74
-7.18
-5.84
-3.84
-1.57
0.44
1.77
2.30
2.29
2.20
2.39
2.96
3.64
4.05
3.81
2.87
1.44
-0.05
-1.19
-1.80
-1.84
-1.44
-0.78
0.01
0.83
1.54
1.96
1.97
1.48
0.56
-0.57
-1.64
-2.39
-2.65
-2.40
-1.79
-1.10
-0.66
-0.77
-1.54
-2.94
-4.66
-6.30
-7.46
-7.96
-7.66
-6.70
-5.23
-3.45
-1.56
0.29
1.99
3.43
4.63
5.61
6.40
6.93
7.14
6.93
6.35
5.52
4.70
4.03
3.61
3.39
3.28
3.23
3.27
3.44
3.71
3.97
4.04
3.79
3.23
2.50
1.87
1.42
1.24
1.21
1.28
1.38
1.49
1.53
1.30
0.51
-0.97
-3.07
-5.44
-7.53
-8.84
-9.14
-8.49
-7.24
-5.73
-4.22
-2.75
-1.24
0.40
2.13
3.75
4.93
5.44
5.20
4.38
3.32
2.39
1.82
1.58
1.44
1.15
0.59
-0.12
-0.65
-0.70
-0.13
0.87
1.91
2.55
2.55
1.97
1.20
0.73
0.91
1.78
3.04
4.15
4.55
3.97
2.50
0.57
-1.20
-2.38
-2.85
-2.84
-2.71
-2.72
-2.84
-2.81
-2.34
-1.30
0.11
1.51
2.52
3.02
3.17
3.28
3.59
4.12
4.60
4.72
4.27
3.28
2.05
0.96
0.27
0.05
0.17
0.42
0.62
0.68
0.63
0.52
0.34
0.06
-0.34
-0.85
-1.36
-1.79
-2.08
-2.32
-2.74
-3.54
-4.91
-6.73
-8.68
-10.24
-10.94
-10.54
-9.15
-7.22
-5.31
-3.85
-2.89
-2.11
-1.10
0.49
2.64
4.93
6.76
7.71
7.70
7.04
6.04
4.93
3.70
2.22
0.57
-0.92
-1.72
-1.46
-0.34
1.00
1.74
1.38
0.04
-1.55
-2.55
-2.35
-1.04
0.81
2.49
3.45
3.56
3.03
2.24
1.52
0.83
0.00
-1.19
-2.79
-4.48
-5.65
-5.71
-4.32
-2.07
0.04
1.00
0.35
-1.36
-2.85
-2.87
-0.91
2.14
4.67
5.20
3.26
-0.20
-3.33
-4.50
-3.13
-0.37
1.93
2.16
0.07
-3.15
-5.49
-5.46
-2.89
0.62
2.84
2.21
-1.19
-5.58
-8.54
-8.37
-5.02
-0.33
3.19
3.73
1.06
-3.37
-7.36
-9.19
-8.30
-5.67
-2.90
-1.25
-1.05
-1.58
-1.73
-0.71
1.62
4.52
7.03
8.39
8.44
7.57
6.40
5.43
4.96
4.84
4.77
4.45
3.70
2.58
1.36
0.39
0.01
0.30
1.08
1.89
2.24
1.84
0.74
-0.68
-1.83
-2.25
-1.75
-0.50
1.11
2.53
3.33
3.27
2.44
1.07
-0.37
-1.54
-2.20
-2.35
-2.13
-1.69
-1.15
-0.49
0.37
1.50
2.84
4.19
5.33
6.09
6.49
6.72
6.95
7.31
7.66
7.78
7.34
6.25
4.69
3.09
1.93
1.43
1.48
1.69
1.62
0.99
-0.12
-1.38
-2.39
-2.91
-2.94
-2.63
-2.27
-2.03
-2.00
-2.16
-2.46
-2.91
-3.59
-4.58
-5.94
-7.57
-9.17
-10.34
-10.75
-10.24
-8.98
-7.36
-5.77
-4.45
-3.30
-2.10
-0.62
1.09
2.73
3.85
4.10
3.42
2.08
0.53
-0.78
-1.56
-1.80
-1.64
-1.34
-1.07
-0.90
-0.76
-0.60
-0.42
-0.32
-0.44
-0.85
-1.46
-1.95
-2.00
-1.41
-0.37
0.57
0.74
-0.29
-2.45
-5.13
-7.44
-8.56
-8.20
-6.61
-4.44
-2.39
-0.85
0.20
1.05
2.02
3.20
4.39
5.22
5.38
4.87
3.97
3.14
2.71
2.73
2.93
2.92
2.41
1.39
0.19
-0.77
-1.15
-0.90
-0.28
0.30
0.48
0.15
-0.49
-1.12
-1.41
-1.29
-0.96
-0.79
-1.16
-2.23
-3.77
-5.35
-6.48
-6.79
-6.27
-5.18
-3.84
-2.54
-1.32
-0.05
1.47
3.27
5.17
6.81
7.78
7.89
7.22
6.11
4.97
4.06
3.40
2.77
1.95
0.80
-0.51
-1.69
-2.47
-2.77
-2.76
-2.79
-3.11
-3.80
-4.63
-5.26
-5.38
-4.91
-4.09
-3.30
-2.97
-3.35
-4.39
-5.79
-7.19
-8.28
-8.97
-9.35
-9.57
-9.59
-9.23
-8.18
-6.26
-3.59
-0.59
2.13
4.12
5.25
5.72
5.95
6.27
6.76
7.23
7.37
6.95
5.97
4.69
3.50
2.76
2.63
2.94
3.36
3.49
3.17
2.49
1.81
1.50
1.67
2.17
2.65
2.88
2.87
2.87
3.15
3.80
4.59
5.06
4.88
3.98
2.64
1.35
0.60
0.66
1.51
2.91
4.54
6.13
7.46
8.43
9.03
9.29
9.25
8.92
8.36
7.58
6.66
5.64
4.56
3.47
2.47
1.65
1.15
1.01
1.15
1.42
1.62
1.65
1.56
1.43
1.38
1.44
1.51
1.52
1.44
1.26
1.05
0.74
0.14
-0.97
-2.67
-4.79
-6.88
-8.41
-8.93
-8.38
-7.04
-5.40
-3.87
-2.65
-1.62
-0.59
0.58
1.77
2.75
3.30
3.35
3.06
2.68
2.38
2.20
1.94
1.36
0.35
-0.95
-2.20
-3.01
-3.15
-2.66
-1.86
-1.24
-1.18
-1.79
-2.80
-3.73
-4.15
-3.89
-3.31
-2.99
-3.59
-5.43
-8.26
-11.45
-14.16
-15.78
-16.09
-15.31
-13.79
-11.84
-9.51
-6.72
-3.48
-0.01
3.16
5.50
6.65
6.66
6.03
5.36
5.11
5.34
5.76
5.91
5.53
4.65
3.62
2.87
2.58
2.68
2.82
2.62
1.85
0.61
-0.86
-2.19
-3.13
-3.63
-3.91
-4.34
-5.37
-7.24
-9.92
-13.05
-16.02
-18.21
-19.16
-18.71
-16.93
-14.10
-10.48
-6.31
-1.81
2.67
6.83
10.29
12.87
14.57
15.56
16.06
16.21
16.05
15.51
14.57
13.28
11.82
10.46
9.33
8.52
7.91
7.39
6.84
6.25
5.73
5.40
5.30
5.31
5.22
4.79
3.92
2.68
1.34
0.05
-1.09
-2.19
-3.51
-5.13
-6.88
-8.31
-8.88
-8.43
-7.12
-5.51
-4.12
-3.08
-2.07
-0.54
1.87
4.86
7.58
9.04
8.71
6.82
4.35
2.41
1.76
2.27
3.24
3.83
3.58
2.63
1.63
1.21
1.74
2.73
3.48
3.32
2.03
0.16
-1.35
-1.59
-0.23
1.90
3.43
3.00
0.13
-4.38
-8.78
-11.30
-11.04
-8.75
-6.13
-4.81
-5.37
-6.87
-7.54
-5.91
-1.80
3.31
7.21
8.25
6.26
2.70
-0.25
-1.01
0.69
3.48
5.42
5.15
2.60
-0.91
-3.67
-4.42
-3.00
-0.50
1.58
2.14
0.97
-1.27
-3.47
-4.80
-4.87
-4.10
-3.19
-2.81
-3.38
-4.87
-6.93
-9.05
-10.67
-11.42
-11.15
-9.89
-7.93
-5.56
-3.03
-0.45
2.18
4.86
7.50
9.84
11.55
12.36
12.14
11.08
9.54
7.95
6.61
5.57
4.72
3.87
2.90
1.89
1.08
0.68
0.75
1.06
1.23
0.87
-0.14
-1.61
-3.15
-4.30
-4.85
-4.87
-4.73
-4.90
-5.81
-7.66
-10.30
-13.37
-16.25
-18.28
-18.91
-17.89
-15.26
-11.37
-6.71
-1.78
2.94
7.09
10.38
12.60
13.71
13.85
13.36
12.63
11.98
11.45
10.84
9.88
8.39
6.42
4.38
2.72
1.75
1.43
1.43
1.33
0.81
-0.14
-1.24
-2.16
-2.69
-2.86
-2.87
-2.95
-3.30
-3.98
-5.01
-6.43
-8.32
-10.71
-13.46
-16.14
-18.11
-18.68
-17.31
-13.90
-8.83
-2.83
3.18
8.43
12.49
15.34
17.21
18.41
19.13
19.44
19.25
18.53
17.35
15.83
14.22
12.66
11.26
10.02
8.90
7.83
6.82
5.93
5.25
4.89
4.84
4.92
4.85
4.31
3.17
1.57
-0.04
-1.17
-1.53
-1.23
-0.81
-0.97
-2.22
-4.59
-7.62
-10.46
-12.33
-12.76
-11.78
-9.83
-7.43
-5.04
-2.79
-0.60
1.62
3.86
5.89
7.37
8.03
7.89
7.19
6.38
5.76
5.44
5.24
4.87
4.17
3.16
2.16
1.48
1.32
1.56
1.82
1.71
0.96
-0.34
-1.85
-3.10
-3.78
-3.82
-3.39
-2.79
-2.27
-1.97
-1.94
-2.22
-2.92
-4.19
-6.06
-8.35
-10.64
-12.31
-12.81
-11.83
-9.46
-6.13
-2.52
0.81
3.46
5.38
6.75
7.85
8.87
9.79
10.37
10.36
9.61
8.29
6.75
5.45
4.61
4.22
3.95
3.42
2.43
1.09
-0.25
-1.26
-1.83
-2.16
-2.66
-3.67
-5.23
-7.04
-8.55
-9.28
-9.18
-8.57
-8.12
-8.49
-9.93
-12.19
-14.59
-16.35
-16.91
-16.20
-14.52
-12.35
-10.07
-7.80
-5.51
-3.15
-0.86
1.08
2.37
2.90
2.78
2.33
1.91
1.74
1.78
1.84
1.66
1.11
0.24
-0.73
-1.55
-2.02
-2.11
-1.94
-1.71
-1.54
-1.53
-1.60
-1.62
-1.52
-1.29
-1.02
-0.86
-0.96
-1.49
-2.58
-4.32
-6.66
-9.33
-11.83
-13.64
-14.19
-13.15
-10.47
-6.51
-1.78
3.05
7.41
10.87
13.29
14.70
15.31
15.36
15.05
14.43
13.50
12.18
10.50
8.59
6.66
4.96
3.67
2.80
2.27
1.84
1.34
0.66
-0.14
-0.92
-1.50
-1.78
-1.77
-1.64
-1.55
-1.65
-1.88
-2.14
-2.33
-2.53
-3.00
-4.04
-5.75
-7.81
-9.55
-10.15
-9.07
-6.34
-2.55
1.37
4.53
6.55
7.55
8.05
8.61
9.45
10.43
11.10
10.98
9.83
7.83
5.46
3.32
1.82
1.02
0.68
0.42
-0.10
-0.91
-1.80
-2.42
-2.55
-2.19
-1.67
-1.37
-1.54
-2.08
-2.65
-2.82
-2.51
-2.02
-1.96
-2.93
-4.98
-7.62
-9.89
-10.88
-10.19
-8.08
-5.30
-2.64
-0.54
0.99
2.30
3.66
5.16
6.58
7.62
8.05
7.89
7.38
6.80
6.39
6.15
5.92
5.46
4.63
3.45
2.19
1.23
0.87
1.09
1.60
1.89
1.52
0.41
-1.14
-2.55
-3.31
-3.27
-2.68
-2.11
-2.11
-2.94
-4.51
-6.44
-8.24
-9.54
-10.10
-9.80
-8.66
-6.67
-3.97
-0.76
2.51
5.39
7.36
8.19
7.90
6.87
5.68
4.87
4.70
5.01
5.35
5.12
3.96
2.02
-0.12
-1.75
-2.32
-1.83
-0.80
0.08
0.34
-0.06
-0.72
-1.42
-2.22
-3.49
-5.69
-8.82
-12.26
-15.10
-16.58
-16.80
-16.49
-16.60
-17.48
-18.50
-18.26
-15.53
-10.04
-3.09
3.27
7.17
7.99
6.71
5.30
5.47
7.79
10.92
12.82
11.80
7.64
1.88
-3.05
-5.22
-4.12
-1.28
0.90
0.45
-2.97
-7.98
-12.22
-13.85
-12.45
-9.43
-6.98
-6.89
-9.57
-13.91
-18.19
-21.05
-22.20
-22.56
-23.34
-25.18
-27.57
-29.12
-28.24
-24.06
-16.80
-7.81
1.16
8.64
13.92
17.11
18.78
19.60
20.05
20.19
19.92
19.14
17.82
16.08
14.10
12.11
10.37
9.01
8.06
7.38
6.72
5.78
4.37
2.55
0.59
-1.14
-2.36
-3.10
-3.62
-4.32
-5.56
-7.49
-10.10
-13.28
-16.91
-20.84
-24.80
-28.32
-30.73
-31.32
-29.58
-25.45
-19.35
-12.14
-4.84
1.70
6.96
10.87
13.63
15.54
16.75
17.30
17.12
16.27
14.97
13.60
12.52
11.89
11.57
11.23
10.47
9.14
7.30
5.28
3.48
2.15
1.25
0.47
-0.70
-2.68
-5.65
-9.36
-13.27
-16.69
-19.16
-20.68
-21.79
-23.35
-26.20
-30.79
-36.92
-43.72
-49.91
-54.09
-55.11
-52.29
-45.54
-35.48
-23.15
-9.95
2.72
13.72
22.30
28.26
31.74
33.29
33.48
32.97
32.22
31.55
31.02
30.54
29.93
29.00
27.69
26.04
24.20
22.36
20.67
19.24
18.08
17.07
15.96
14.53
12.50
9.79
6.42
2.56
-1.45
-5.28
-8.65
-11.54
-14.19
-17.17
-21.07
-26.27
-32.52
-38.88
-43.95
-46.23
-44.72
-39.21
-30.40
-19.54
-8.02
3.03
12.97
21.60
28.88
34.76
39.00
41.33
41.68
40.35
38.01
35.49
33.45
32.11
31.24
30.43
29.31
27.79
26.02
24.25
22.64
21.15
19.59
17.88
15.98
14.03
12.17
10.36
8.46
6.22
3.40
-0.02
-3.87
-7.78
-11.35
-14.38
-16.99
-19.65
-23.01
-27.58
-33.35
-39.70
-45.37
-48.91
-49.05
-45.20
-37.58
-27.13
-15.23
-3.29
7.62
16.84
24.13
29.50
33.00
34.75
34.90
33.78
31.90
29.87
28.14
26.95
26.18
25.52
24.66
23.44
21.91
20.25
18.66
17.28
16.07
14.93
13.71
12.28
10.65
8.86
7.03
5.20
3.29
1.16
-1.34
-4.19
-7.21
-10.11
-12.71
-15.09
-17.57
-20.66
-24.71
-29.65
-35.00
-39.83
-43.13
-44.12
-42.47
-38.27
-31.91
-23.81
-14.39
-4.10
6.44
16.44
25.02
31.55
35.78
37.99
38.75
38.63
38.01
36.99
35.57
33.84
32.03
30.37
29.01
27.87
26.75
25.50
24.10
22.69
21.48
20.52
19.70
18.76
17.49
15.82
13.83
11.71
9.59
7.54
5.45
3.25
0.96
-1.31
-3.39
-5.14
-6.68
-8.33
-10.57
-13.80
-18.04
-22.76
-27.02
-29.67
-29.84
-27.28
-22.41
-16.14
-9.52
-3.33
1.97
6.35
9.91
12.76
14.91
16.30
16.93
16.88
16.39
15.69
14.95
14.22
13.43
12.50
11.38
10.13
8.81
7.54
6.35
5.32
4.47
3.85
3.42
3.02
2.35
1.18
-0.63
-2.90
-5.21
-7.06
-8.14
-8.42
-8.22
-7.97
-8.13
-8.94
-10.46
-12.57
-15.06
-17.63
-19.95
-21.66
-22.39
-21.80
-19.75
-16.38
-12.04
-7.30
-2.81
0.93
3.68
5.57
6.92
8.11
9.33
10.50
11.38
11.67
11.28
10.33
9.12
7.95
6.97
6.17
5.41
4.57
3.63
2.68
1.86
1.32
1.03
0.84
0.54
-0.09
-1.09
-2.33
-3.51
-4.37
-4.83
-5.01
-5.23
-5.83
-7.05
-8.94
-11.43
-14.36
-17.52
-20.65
-23.39
-25.31
-26.01
-25.26
-23.02
-19.55
-15.23
-10.46
-5.62
-1.02
3.09
6.52
9.16
10.98
12.06
12.53
12.49
11.98
11.04
9.79
8.44
7.30
6.59
6.34
6.32
6.16
5.48
4.26
2.65
1.04
-0.34
-1.43
-2.41
-3.54
-4.91
-6.37
-7.70
-8.64
-9.14
-9.37
-9.62
-10.13
-11.09
-12.61
-14.91
-18.17
-22.33
-26.87
-30.72
-32.56
-31.34
-26.71
-19.27
-10.40
-1.65
5.77
11.32
15.11
17.60
19.37
20.67
21.62
22.11
22.06
21.53
20.73
19.94
19.41
18.82
17.67
15.43
12.03
8.14
4.96
3.60
4.43
6.55
8.36
8.37
6.13
2.50
-0.83
-2.40
-1.84
-0.28
0.55
-0.75
-4.33
-9.07
-13.21
-15.56
-16.01
-15.86
-16.71
-19.39
-23.32
-26.66
-27.29
-24.05
-17.28
-8.95
-1.45
3.57
5.88
6.59
7.25
8.96
11.85
15.04
17.44
18.35
17.84
16.49
15.05
13.92
13.16
12.46
11.54
10.32
8.94
7.65
6.66
6.07
5.86
5.88
5.93
5.81
5.33
4.44
3.26
2.06
1.18
0.85
1.00
1.25
1.01
-0.29
-2.84
-6.41
-10.29
-13.61
-15.65
-16.10
-15.07
-13.02
-10.45
-7.76
-5.09
-2.43
0.30
3.09
5.77
8.08
9.73
10.57
10.63
10.16
9.48
8.87
8.45
8.10
7.63
6.87
5.81
4.61
3.57
2.88
2.52
2.28
1.82
0.95
-0.27
-1.54
-2.49
-2.89
-2.77
-2.39
-2.14
-2.34
-3.11
-4.39
-6.10
-8.16
-10.50
-13.01
-15.42
-17.36
-18.34
-18.04
-16.38
-13.61
-10.21
-6.67
-3.39
-0.51
2.08
4.51
6.83
8.92
10.49
11.32
11.32
10.63
9.61
8.60
7.84
7.33
6.85
6.16
5.10
3.69
2.16
0.78
-0.23
-0.84
-1.26
-1.79
-2.71
-4.10
-5.82
-7.51
-8.82
-9.53
-9.72
-9.77
-10.22
-11.58
-14.10
-17.60
-21.49
-25.00
-27.39
-28.18
-27.24
-24.76
-21.05
-16.49
-11.40
-6.10
-0.94
3.76
7.69
10.70
12.82
14.24
15.17
15.74
16.01
15.95
15.53
14.78
13.80
12.71
11.63
10.62
9.71
8.93
8.28
7.82
7.55
7.47
7.46
7.38
7.01
6.20
4.96
3.47
2.06
1.03
0.47
0.15
-0.42
-1.75
-4.08
-7.23
-10.61
-13.38
-14.91
-14.95
-13.72
-11.69
-9.36
-6.97
-4.50
-1.79
1.25
4.44
7.36
9.49
10.50
10.46
9.77
9.03
8.69
8.86
9.29
9.56
9.35
8.62
7.61
6.64
5.94
5.47
5.03
4.40
3.52
2.50
1.60
1.00
0.76
0.71
0.59
0.17
-0.67
-1.86
-3.25
-4.69
-6.10
-7.54
-9.10
-10.78
-12.42
-13.63
-13.93
-13.00
-10.80
-7.70
-4.27
-1.08
1.54
3.52
5.08
6.39
7.53
8.41
8.84
8.75
8.22
7.49
6.83
6.37
6.05
5.66
4.96
3.90
2.58
1.26
0.17
-0.58
-1.09
-1.57
-2.20
-2.99
-3.79
-4.32
-4.48
-4.36
-4.32
-4.80
-6.06
-8.03
-10.41
-12.70
-14.52
-15.60
-15.85
-15.27
-13.84
-11.48
-8.22
-4.27
-0.09
3.70
6.54
8.17
8.66
8.44
7.99
7.68
7.54
7.37
6.86
5.81
4.24
2.47
0.84
-0.35
-1.14
-1.76
-2.54
-3.70
-5.22
-6.81
-8.11
-8.86
-9.02
-8.84
-8.69
-8.94
-9.84
-11.51
-13.94
-16.97
-20.32
-23.53
-26.03
-27.16
-26.52
-23.99
-19.81
-14.50
-8.72
-3.05
2.05
6.34
9.68
12.08
13.61
14.36
14.48
14.10
13.36
12.32
10.97
9.28
7.22
4.89
2.54
0.44
-1.17
-2.29
-3.14
-4.07
-5.44
-7.39
-9.75
-12.20
-14.31
-15.83
-16.71
-17.16
-17.58
-18.37
-19.81
-21.89
-24.29
-26.40
-27.45
-26.80
-24.04
-19.12
-12.32
-4.17
4.64
13.34
21.12
27.35
31.64
34.00
34.85
34.77
34.32
33.76
33.03
31.92
30.30
28.21
25.96
23.88
22.15
20.65
19.08
17.13
14.70
11.99
9.42
7.36
5.98
5.12
4.36
3.27
1.55
-0.85
-3.77
-7.04
-10.55
-14.29
-18.21
-22.00
-25.08
-26.72
-26.36
-23.89
-19.69
-14.55
-9.33
-4.66
-0.76
2.43
5.14
7.50
9.45
10.74
11.17
10.67
9.42
7.82
6.26
5.02
4.11
3.32
2.40
1.21
-0.16
-1.42
-2.28
-2.65
-2.73
-2.94
-3.72
-5.25
-7.38
-9.61
-11.53
-12.96
-14.21
-15.89
-18.42
-21.68
-24.84
-26.69
-26.42
-23.92
-19.87
-15.26
-10.75
-6.32
-1.52
4.03
9.88
14.93
17.89
18.05
15.74
12.22
8.96
6.85
5.69
4.57
2.58
-0.57
-4.29
-7.47
-9.18
-9.22
-8.60
-8.70
-10.62
-14.46
-19.08
-22.80
-24.38
-23.80
-22.67
-23.25
-27.21
-34.64
-43.66
-51.21
-54.49
-52.03
-44.63
-34.44
-23.86
-14.38
-6.08
1.95
10.51
19.59
27.80
33.32
34.88
32.57
28.00
23.42
20.58
20.01
20.71
21.04
19.68
16.41
12.05
7.91
4.90
3.17
2.01
0.49
-1.99
-5.42
-9.26
-12.85
-15.82
-18.21
-20.62
-23.83
-28.47
-34.71
-41.97
-49.01
-54.15
-55.64
-52.23
-43.53
-30.13
-13.52
4.29
21.20
35.48
46.10
52.78
55.93
56.33
54.88
52.29
49.09
45.62
42.20
39.08
36.47
34.37
32.58
30.80
28.72
26.19
23.23
19.96
16.48
12.78
8.76
4.25
-0.77
-6.16
-11.57
-16.58
-21.03
-25.07
-29.34
-34.53
-41.14
-48.85
-56.42
-61.90
-63.24
-59.08
-49.30
-35.13
-18.69
-2.28
12.37
24.36
33.53
40.14
44.37
46.35
46.11
43.92
40.41
36.48
32.94
30.24
28.27
26.45
24.25
21.43
18.35
15.70
14.19
14.04
14.81
15.53
15.12
12.92
9.01
4.12
-0.74
-4.75
-7.63
-9.63
-11.38
-13.57
-16.69
-21.01
-26.49
-32.78
-39.13
-44.32
-46.85
-45.31
-38.92
-27.84
-13.33
2.61
17.88
30.80
40.50
46.89
50.40
51.65
51.16
49.31
46.35
42.52
38.13
33.50
28.96
24.76
21.04
17.78
14.92
12.39
10.16
8.30
6.88
5.86
5.03
3.97
2.18
-0.64
-4.46
-8.84
-13.04
-16.43
-18.76
-20.38
-22.14
-25.05
-29.78
-36.24
-43.42
-49.60
-52.94
-52.06
-46.50
-36.89
-24.63
-11.35
1.53
13.10
22.90
30.69
36.28
39.45
40.14
38.66
35.72
32.28
29.18
26.81
24.97
23.09
20.60
17.28
13.49
9.89
7.16
5.61
4.99
4.61
3.70
1.77
-1.19
-4.71
-8.13
-10.92
-12.90
-14.31
-15.66
-17.54
-20.40
-24.53
-29.91
-36.21
-42.65
-48.09
-51.12
-50.43
-45.22
-35.55
-22.44
-7.58
7.04
19.76
29.52
36.02
39.56
40.77
40.28
38.62
36.11
32.94
29.24
25.23
21.18
17.36
13.93
10.88
8.08
5.41
2.87
0.56
-1.33
-2.76
-3.93
-5.27
-7.16
-9.73
-12.75
-15.73
-18.18
-19.90
-21.18
-22.63
-25.09
-29.18
-35.09
-42.25
-49.33
-54.53
-56.00
-52.52
-43.95
-31.31
-16.43
-1.35
12.28
23.48
31.94
37.73
41.02
41.97
40.81
37.97
34.05
29.82
25.96
22.83
20.40
18.34
16.14
13.45
10.19
6.68
3.46
1.08
-0.24
-0.59
-0.57
-0.93
-2.38
-5.28
-9.52
-14.53
-19.56
-23.90
-27.29
-29.90
-32.36
-35.45
-39.80
-45.53
-52.21
-58.81
-63.93
-66.02
-63.70
-56.16
-43.45
-26.66
-7.73
11.03
27.43
40.09
48.50
52.98
54.28
53.29
50.68
47.02
42.77
38.37
34.20
30.51
27.30
24.37
21.42
18.24
14.81
11.41
8.47
6.38
5.23
4.73
4.17
2.81
0.21
-3.54
-7.76
-11.56
-14.29
-15.92
-17.15
-19.10
-22.76
-28.47
-35.57
-42.50
-47.33
-48.37
-44.75
-36.63
-25.08
-11.68
2.04
14.81
25.84
34.64
40.93
44.60
45.76
44.81
42.49
39.59
36.75
34.21
31.71
28.81
25.14
20.76
16.18
12.15
9.25
7.57
6.62
5.56
3.65
0.59
-3.36
-7.53
-11.21
-14.05
-16.12
-17.88
-19.89
-22.67
-26.47
-31.36
-37.09
-43.09
-48.33
-51.45
-51.03
-46.04
-36.29
-22.66
-6.90
8.89
22.78
33.53
40.71
44.63
46.01
45.70
44.39
42.53
40.26
37.52
34.25
30.49
26.50
22.65
19.24
16.40
13.99
11.76
9.52
7.25
5.10
3.18
1.50
-0.15
-2.04
-4.39
-7.19
-10.24
-13.39
-16.72
-20.64
-25.71
-32.17
-39.52
-46.33
-50.55
-50.32
-44.66
-33.98
-19.93
-4.68
9.74
22.16
32.21
40.02
45.78
49.43
50.70
49.39
45.69
40.26
34.22
28.54
23.88
20.28
17.23
14.16
10.79
7.32
4.26
1.74
-0.58
-3.41
-7.43
-12.53
-17.73
-21.68
-23.42
-23.31
-22.78
-23.71
-27.48
-34.11
-42.44
-50.65
-57.08
-60.85
-61.66
-59.39
-53.74
-44.21
-30.59
-13.50
5.35
23.09
36.87
44.84
46.85
44.58
40.62
37.25
35.45
34.41
32.44
28.15
21.50
13.96
7.74
4.58
4.81
7.08
9.22
9.44
7.19
3.29
-0.75
-3.67
-5.03
-5.47
-6.07
-7.71
-10.68
-14.71
-19.42
-24.60
-30.21
-36.28
-42.30
-47.15
-49.28
-47.23
-40.29
-28.88
-14.35
1.26
15.94
28.18
37.16
42.73
45.20
45.14
43.18
39.98
36.08
31.85
27.48
23.00
18.37
13.69
9.22
5.37
2.54
0.91
0.26
0.02
-0.58
-2.18
-5.04
-8.92
-13.25
-17.35
-20.78
-23.53
-25.93
-28.54
-31.89
-36.35
-42.04
-48.79
-56.02
-62.63
-67.03
-67.37
-62.09
-50.60
-33.74
-13.64
6.81
24.89
38.83
48.10
53.20
55.16
54.92
53.08
49.90
45.59
40.46
35.05
29.99
25.75
22.52
20.13
18.28
16.66
15.15
13.82
12.80
12.09
11.45
10.41
8.43
5.12
0.45
-5.18
-11.07
-16.54
-21.17
-25.10
-29.05
-34.00
-40.71
-49.18
-58.31
-66.05
-70.02
-68.29
-60.18
-46.40
-28.87
-9.95
8.25
24.31
37.50
47.50
54.12
57.20
56.75
53.23
47.60
41.15
35.07
30.09
26.28
23.20
20.25
17.09
13.82
10.96
9.07
8.46
8.93
9.78
10.08
9.03
6.36
2.23
-2.75
-7.91
-12.77
-17.17
-21.22
-25.23
-29.52
-34.48
-40.50
-47.87
-56.42
-65.24
-72.55
-75.99
-73.35
-63.48
-46.85
-25.60
-2.85
18.33
35.77
48.62
57.10
61.91
63.70
62.82
59.43
53.85
46.73
39.11
32.14
26.66
22.93
20.57
18.86
17.11
15.03
12.80
10.90
9.77
9.34
9.06
7.98
5.30
0.73
-5.28
-11.74
-17.57
-22.05
-25.17
-27.54
-30.15
-33.97
-39.61
-47.14
-55.94
-64.79
-71.94
-75.51
-73.85
-66.09
-52.38
-33.95
-12.84
8.57
28.13
44.25
56.09
63.50
66.81
66.70
63.95
59.37
53.67
47.43
41.17
35.23
29.93
25.44
21.81
18.97
16.78
15.13
13.97
13.36
13.29
13.54
13.66
12.91
10.66
6.59
0.90
-5.69
-12.20
-17.78
-22.04
-25.20
-28.04
-31.61
-36.86
-44.25
-53.36
-62.80
-70.46
-74.05
-71.87
-63.34
-49.19
-31.20
-11.62
7.50
24.57
38.63
49.18
56.03
59.31
59.43
57.07
53.07
48.23
43.15
38.17
33.36
28.76
24.41
20.42
16.99
14.33
12.57
11.71
11.51
11.53
11.19
9.97
7.50
3.76
-1.00
-6.26
-11.52
-16.26
-20.29
-23.72
-27.09
-31.22
-36.83
-44.13
-52.36
-59.67
-63.74
-62.38
-54.53
-40.69
-22.76
-3.30
15.19
31.06
43.51
52.47
58.16
60.82
60.69
58.13
53.67
48.06
42.06
36.34
31.22
26.67
22.49
18.38
14.24
10.24
6.73
4.10
2.47
1.54
0.68
-0.90
-3.78
-8.03
-13.19
-18.48
-23.10
-26.62
-29.19
-31.49
-34.57
-39.31
-46.14
-54.63
-63.40
-70.43
-73.50
-70.95
-62.18
-47.92
-29.99
-10.70
7.77
23.89
36.80
46.26
52.25
54.91
54.48
51.41
46.48
40.65
34.84
29.61
25.08
21.00
17.00
12.92
9.00
5.75
3.64
2.85
2.99
3.29
2.87
1.12
-2.06
-6.26
-10.84
-15.19
-18.98
-22.26
-25.32
-28.64
-32.71
-37.93
-44.45
-51.90
-59.25
-64.80
-66.58
-62.91
-53.06
-37.65
-18.56
1.62
20.31
35.66
46.77
53.71
57.07
57.63
56.04
52.82
48.39
43.19
37.70
32.36
27.52
23.31
19.71
16.61
13.93
11.66
9.86
8.57
7.71
7.00
5.99
4.25
1.47
-2.33
-6.83
-11.48
-15.73
-19.33
-22.48
-25.79
-30.07
-35.84
-43.07
-50.78
-57.29
-60.63
-59.17
-52.26
-40.37
-24.96
-8.02
8.52
23.09
34.75
43.05
47.91
49.60
48.66
45.84
41.97
37.64
33.14
28.46
23.48
18.30
13.24
8.88
5.75
4.07
3.62
3.78
3.79
2.98
1.05
-1.87
-5.24
-8.55
-11.40
-13.78
-16.07
-18.82
-22.54
-27.54
-33.76
-41.12
-49.09
-56.66
-62.21
-63.68
-59.16
-47.92
-30.92
-11.10
7.85
22.73
32.09
36.61
38.28
39.12
40.08
40.47
38.90
34.30
26.91
18.35
10.87
6.14
4.58
4.94
5.38
4.42
1.78
-1.61
-4.35
-5.49
-5.13
-4.51
-5.17
-8.02
-12.85
-18.49
-23.57
-27.37
-30.22
-33.41
-38.27
-45.20
-53.18
-59.88
-62.56
-59.13
-48.93
-33.12
-14.16
5.04
22.04
35.39
44.73
50.45
53.26
53.76
52.34
49.26
44.75
39.20
33.11
27.05
21.48
16.71
12.85
9.86
7.62
5.96
4.65
3.43
2.07
0.40
-1.63
-4.00
-6.61
-9.36
-12.20
-15.12
-18.12
-21.33
-25.03
-29.63
-35.42
-42.25
-49.25
-54.76
-56.75
-53.49
-44.32
-30.03
-12.69
5.02
20.65
32.73
40.93
45.74
47.96
48.25
46.93
44.11
39.97
34.85
29.33
23.98
19.16
14.96
11.27
7.96
5.01
2.53
0.73
-0.36
-0.90
-1.30
-2.06
-3.58
-6.03
-9.24
-12.78
-16.20
-19.27
-22.15
-25.44
-29.87
-35.87
-43.16
-50.48
-55.88
-57.30
-53.32
-43.75
-29.66
-13.09
3.68
18.73
30.91
39.78
45.43
48.12
48.23
46.13
42.26
37.22
31.62
26.03
20.86
16.30
12.39
9.13
6.55
4.75
3.83
3.70
4.04
4.30
3.88
2.34
-0.39
-3.98
-7.88
-11.58
-14.89
-18.10
-21.88
-26.93
-33.58
-41.33
-48.91
-54.43
-56.03
-52.51
-43.79
-30.85
-15.50
0.27
14.76
26.81
35.89
41.90
44.94
45.29
43.30
39.49
34.50
29.02
23.61
18.64
14.26
10.45
7.16
4.41
2.26
0.76
-0.18
-0.86
-1.72
-3.21
-5.56
-8.68
-12.23
-15.78
-19.04
-22.11
-25.48
-29.88
-35.93
-43.64
-52.14
-59.70
-64.22
-63.86
-57.77
-46.33
-31.04
-13.94
2.93
18.00
30.32
39.38
45.06
47.46
46.93
44.11
39.78
34.73
29.56
24.57
19.83
15.34
11.18
7.64
5.02
3.53
3.08
3.21
3.27
2.61
0.86
-1.90
-5.30
-8.85
-12.20
-15.37
-18.72
-22.81
-28.17
-34.99
-42.93
-51.06
-57.91
-61.77
-61.08
-54.90
-43.20
-27.09
-8.49
10.22
26.86
39.85
48.55
53.11
54.28
53.03
50.23
46.47
42.08
37.18
31.96
26.71
21.87
17.93
15.19
13.63
12.90
12.40
11.55
10.01
7.80
5.18
2.49
-0.08
-2.61
-5.37
-8.54
-12.25
-16.51
-21.38
-27.06
-33.67
-40.96
-48.02
-53.17
-54.50
-50.50
-40.78
-26.28
-9.06
8.45
24.14
36.70
45.63
50.99
53.16
52.60
49.91
45.73
40.80
35.75
31.00
26.66
22.61
18.75
15.07
11.77
9.11
7.37
6.53
6.32
6.15
5.39
3.54
0.48
-3.57
-8.05
-12.36
-16.09
-19.14
-21.83
-24.80
-28.74
-34.23
-41.21
-48.91
-55.73
-59.68
-58.93
-52.51
-40.76
-25.24
-8.23
8.04
21.97
32.87
40.70
45.72
48.14
48.00
45.43
40.79
34.87
28.67
23.12
18.76
15.59
13.15
10.88
8.42
5.87
3.70
2.50
2.53
3.51
4.59
4.67
2.93
-0.79
-5.91
-11.36
-16.08
-19.52
-21.85
-23.75
-26.10
-29.55
-34.36
-40.46
-47.45
-54.66
-61.09
-65.32
-65.73
-61.02
-50.72
-35.59
-17.52
0.99
17.63
30.86
40.18
45.91
48.76
49.43
48.34
45.67
41.55
36.29
30.44
24.75
19.98
16.59
14.63
13.66
12.99
11.99
10.45
8.66
7.18
6.48
6.53
6.69
5.99
3.56
-0.84
-6.69
-12.90
-18.32
-22.29
-24.92
-26.95
-29.39
-33.06
-38.39
-45.34
-53.45
-61.86
-69.28
-74.04
-74.37
-68.87
-57.12
-39.98
-19.52
1.57
20.73
36.26
47.54
54.90
59.09
60.83
60.54
58.37
54.43
49.01
42.74
36.45
31.02
27.01
24.51
23.13
22.26
21.31
20.03
18.50
17.17
16.31
15.98
15.68
14.67
12.25
8.26
3.17
-2.11
-6.94
-11.09
-14.91
-18.93
-23.37
-27.98
-32.30
-36.17
-40.08
-44.75
-50.44
-56.15
-59.61
-58.12
-49.88
-34.97
-15.74
4.31
21.84
34.96
43.56
48.81
52.09
54.23
54.77
52.88
47.97
40.52
32.16
25.07
20.88
19.98
20.89
21.41
19.71
15.39
9.82
5.30
3.69
5.32
8.49
10.56
9.38
4.44
-2.78
-9.77
-14.33
-15.71
-15.02
-14.28
-15.25
-18.46
-23.17
-28.04
-32.17
-35.46
-38.70
-42.51
-46.62
-49.59
-49.33
-44.19
-33.82
-19.40
-3.38
11.62
23.71
32.12
37.14
39.58
40.20
39.51
37.65
34.69
30.82
26.42
21.95
17.79
14.10
10.86
7.90
5.10
2.45
0.07
-1.90
-3.36
-4.38
-5.19
-6.14
-7.62
-9.91
-13.11
-17.04
-21.27
-25.27
-28.52
-30.80
-32.26
-33.50
-35.36
-38.61
-43.53
-49.56
-55.27
-58.71
-58.02
-52.16
-41.31
-26.85
-10.83
4.75
18.47
29.68
38.28
44.35
47.88
48.87
47.47
44.20
39.93
35.62
31.94
29.02
26.51
23.78
20.39
16.33
12.06
8.27
5.53
3.97
3.23
2.66
1.57
-0.41
-3.24
-6.61
-10.08
-13.30
-16.15
-18.65
-20.98
-23.39
-26.23
-29.91
-34.69
-40.51
-46.70
-51.96
-54.63
-53.19
-46.76
-35.55
-20.84
-4.63
10.96
24.27
34.33
40.97
44.54
45.68
45.05
43.23
40.65
37.65
34.48
31.28
28.19
25.23
22.36
19.49
16.56
13.57
10.66
8.09
6.15
4.97
4.40
3.97
3.10
1.35
-1.37
-4.75
-8.10
-10.77
-12.36
-12.95
-13.09
-13.56
-15.16
-18.31
-22.85
-28.07
-32.75
-35.53
-35.34
-31.66
-24.71
-15.42
-5.06
5.08
13.98
21.05
26.10
29.16
30.42
30.17
28.78
26.74
24.49
22.42
20.64
19.01
17.24
15.04
12.35
9.32
6.29
3.58
1.39
-0.28
-1.60
-2.78
-3.99
-5.33
-6.84
-8.51
-10.35
-12.30
-14.20
-15.84
-16.96
-17.47
-17.58
-17.85
-18.99
-21.53
-25.50
-30.18
-34.20
-36.00
-34.37
-28.98
-20.50
-10.31
0.01
9.17
16.55
22.05
25.91
28.37
29.55
29.45
28.16
25.94
23.30
20.75
18.65
16.99
15.44
13.53
10.97
7.82
4.58
1.90
0.26
-0.31
-0.27
-0.37
-1.27
-3.24
-6.06
-9.16
-11.95
-14.09
-15.58
-16.74
-18.00
-19.71
-22.09
-25.26
-29.22
-33.77
-38.38
-42.13
-43.81
-42.25
-36.83
-27.82
-16.38
-4.24
6.88
15.87
22.33
26.50
28.89
29.91
29.80
28.65
26.65
24.16
21.57
19.24
17.27
15.45
13.43
10.92
7.86
4.48
1.25
-1.34
-3.06
-3.96
-4.45
-5.10
-6.44
-8.66
-11.61
-14.81
-17.72
-19.93
-21.33
-22.14
-22.85
-23.98
-26.02
-29.21
-33.37
-37.83
-41.46
-42.87
-40.91
-35.00
-25.51
-13.59
-0.90
10.96
20.83
28.20
33.06
35.71
36.52
35.91
34.28
32.05
29.67
27.50
25.64
24.00
22.28
20.18
17.52
14.36
10.98
7.79
5.15
3.30
2.18
1.53
0.93
-0.04
-1.63
-3.85
-6.55
-9.41
-12.09
-14.33
-15.95
-16.98
-17.69
-18.64
-20.51
-23.88
-28.83
-34.67
-39.93
-42.76
-41.63
-35.93
-26.33
-14.48
-2.39
8.31
16.84
23.25
28.01
31.54
33.88
34.76
33.94
31.56
28.26
24.93
22.30
20.60
19.47
18.21
16.24
13.44
10.16
7.07
4.77
3.45
2.89
2.53
1.86
0.59
-1.23
-3.32
-5.31
-7.00
-8.39
-9.64
-10.93
-12.37
-13.90
-15.47
-17.17
-19.30
-22.20
-25.96
-30.12
-33.58
-34.91
-32.93
-27.21
-18.40
-7.98
2.29
10.99
17.52
22.06
25.19
27.44
28.99
29.65
29.15
27.47
24.90
22.05
19.42
17.25
15.39
13.42
11.00
8.05
4.90
2.11
0.10
-1.02
-1.61
-2.35
-3.85
-6.39
-9.69
-13.07
-15.74
-17.22
-17.56
-17.36
-17.50
-18.73
-21.34
-25.08
-29.14
-32.52
-34.34
-33.98
-31.22
-26.20
-19.38
-11.47
-3.40
3.86
9.54
13.23
15.07
15.65
15.80
16.20
17.07
18.10
18.63
17.98
15.79
12.25
8.05
4.02
0.82
-1.29
-2.58
-3.60
-4.81
-6.47
-8.50
-10.96
-13.96
-17.64
-21.93
-26.27
-29.69
-31.28
-30.84
-29.45
-29.01
-31.25
-36.70
-44.01
-50.31
-52.58
-48.92
-39.72
-27.10
-13.83
-2.04
7.62
15.71
23.06
30.01
35.60
38.48
37.76
33.81
28.39
23.77
21.60
22.06
23.56
23.88
21.41
16.07
9.46
3.89
1.13
1.50
3.59
5.22
4.64
1.42
-3.47
-8.30
-11.60
-12.78
-12.55
-12.25
-13.25
-16.36
-21.49
-27.81
-33.97
-38.40
-39.78
-37.29
-30.79
-20.91
-8.90
3.73
15.57
25.73
33.75
39.51
43.12
44.68
44.37
42.50
39.54
36.11
32.73
29.65
26.80
23.87
20.55
16.77
12.79
9.13
6.30
4.49
3.50
2.69
1.40
-0.81
-3.88
-7.29
-10.33
-12.44
-13.54
-14.13
-15.04
-17.17
-21.01
-26.42
-32.54
-37.99
-41.21
-40.99
-36.73
-28.71
-17.88
-5.70
6.38
17.11
25.71
31.82
35.45
36.87
36.53
35.05
33.04
31.05
29.39
28.02
26.69
24.98
22.62
19.64
16.43
13.53
11.44
10.32
9.92
9.67
9.00
7.53
5.24
2.44
-0.45
-3.07
-5.19
-6.75
-7.82
-8.52
-9.13
-10.06
-11.80
-14.73
-18.79
-23.35
-27.26
-29.11
-27.82
-23.02
-15.26
-5.82
3.74
12.08
18.50
22.92
25.71
27.35
28.10
28.07
27.23
25.68
23.67
21.63
19.88
18.54
17.37
15.92
13.84
11.09
8.02
5.33
3.65
3.21
3.68
4.23
3.94
2.25
-0.68
-4.11
-7.02
-8.70
-9.09
-8.83
-8.92
-10.26
-13.21
-17.45
-22.13
-26.20
-28.71
-29.11
-27.25
-23.32
-17.76
-11.07
-3.84
3.33
9.82
15.09
18.73
20.63
21.02
20.40
19.37
18.43
17.77
17.27
16.60
15.43
13.65
11.37
8.91
6.64
4.82
3.45
2.36
1.23
-0.25
-2.19
-4.52
-7.02
-9.47
-11.72
-13.78
-15.69
-17.48
-19.18
-20.84
-22.72
-25.23
-28.79
-33.48
-38.79
-43.56
-46.28
-45.66
-41.17
-33.25
-23.18
-12.59
-2.83
5.30
11.63
16.35
19.66
21.65
22.28
21.56
19.72
17.22
14.66
12.46
10.73
9.20
7.44
5.14
2.31
-0.62
-3.08
-4.59
-5.13
-5.13
-5.33
-6.38
-8.56
-11.60
-14.79
-17.34
-18.70
-18.84
-18.27
-17.87
-18.55
-20.92
-25.09
-30.61
-36.49
-41.47
-44.29
-43.94
-39.91
-32.32
-21.87
-9.73
2.71
14.09
23.39
30.10
34.23
36.23
36.73
36.39
35.69
34.90
34.11
33.32
32.43
31.30
29.82
27.87
25.46
22.74
19.95
17.37
15.16
13.37
11.89
10.51
8.93
6.96
4.52
1.76
-0.97
-3.26
-4.88
-5.94
-6.89
-8.38
-11.03
-14.99
-19.95
-25.09
-29.37
-31.77
-31.60
-28.63
-23.17
-15.85
-7.59
0.68
8.16
14.34
19.02
22.26
24.24
25.23
25.42
25.02
24.22
23.21
22.11
21.02
19.90
18.63
17.05
15.11
12.90
10.65
8.66
7.19
6.22
5.57
4.86
3.75
2.07
-0.13
-2.59
-4.98
-7.06
-8.69
-9.93
-10.94
-11.99
-13.37
-15.37
-18.16
-21.65
-25.36
-28.43
-29.86
-28.75
-24.78
-18.28
-10.25
-1.94
5.49
11.35
15.51
18.32
20.26
21.73
22.82
23.38
23.21
22.29
20.81
19.18
17.74
16.60
15.61
14.43
12.81
10.77
8.66
6.97
6.02
5.79
5.86
5.61
4.58
2.67
0.20
-2.22
-4.05
-5.07
-5.51
-5.97
-7.13
-9.49
-13.10
-17.59
-22.25
-26.26
-28.91
-29.70
-28.42
-25.17
-20.23
-14.08
-7.34
-0.69
5.24
9.96
13.17
14.86
15.30
14.95
14.25
13.57
13.02
12.51
11.86
10.86
9.48
7.84
6.16
4.62
3.34
2.27
1.26
0.16
-1.09
-2.48
-3.93
-5.31
-6.59
-7.76
-8.85
-9.86
-10.70
-11.33
-11.82
-12.48
-13.83
-16.37
-20.20
-24.80
-29.04
-31.56
-31.30
-27.97
-22.12
-14.91
-7.55
-0.91
4.69
9.25
12.94
15.79
17.68
18.56
18.58
18.10
17.63
17.32
17.06
16.38
14.83
12.29
9.16
6.17
4.06
3.09
2.91
2.80
1.99
0.17
-2.48
-5.35
-7.77
-9.43
-10.34
-10.84
-11.30
-11.98
-12.97
-14.30
-16.11
-18.95
-23.29
-29.20
-35.92
-41.71
-44.35
-42.13
-34.56
-23.14
-10.50
0.66
8.75
13.87
17.40
20.87
24.93
28.79
31.00
30.42
27.15
22.67
19.01
17.62
18.59
20.40
20.98
18.93
14.35
8.85
4.61
3.09
4.37
6.89
8.53
7.75
4.32
-0.62
-5.32
-8.37
-9.29
-8.79
-8.17
-8.66
-10.92
-14.85
-19.83
-24.93
-29.17
-31.82
-32.31
-30.38
-26.08
-19.78
-12.11
-3.87
4.20
11.44
17.40
21.81
24.58
25.84
25.90
25.23
24.33
23.56
22.98
22.40
21.49
19.96
17.77
15.11
12.40
10.01
8.22
7.03
6.22
5.50
4.61
3.42
2.03
0.67
-0.42
-1.02
-1.13
-0.87
-0.57
-0.62
-1.39
-3.15
-5.96
-9.61
-13.63
-17.37
-20.14
-21.40
-20.85
-18.48
-14.64
-9.91
-4.97
-0.47
3.21
5.98
8.01
9.62
11.03
12.27
13.16
13.47
13.10
12.07
10.64
9.08
7.67
6.51
5.61
4.92
4.32
3.74
3.11
2.41
1.59
0.61
-0.55
-1.90
-3.33
-4.66
-5.64
-6.14
-6.23
-6.22
-6.63
-7.89
-10.18
-13.22
-16.35
-18.71
-19.57
-18.52
-15.66
-11.44
-6.51
-1.53
3.09
7.08
10.36
12.92
14.74
15.78
16.06
15.66
14.78
13.70
12.66
11.78
10.99
10.14
9.03
7.61
5.98
4.34
2.87
1.59
0.31
-1.19
-3.03
-5.08
-7.01
-8.44
-9.20
-9.49
-9.83
-10.88
-13.13
-16.61
-20.85
-24.97
-27.97
-29.07
-27.95
-24.77
-20.02
-14.36
-8.29
-2.23
3.49
8.56
12.67
15.53
17.10
17.51
17.14
16.37
15.44
14.41
13.15
11.53
9.56
7.40
5.33
3.58
2.23
1.14
0.02
-1.41
-3.30
-5.61
-8.08
-10.36
-12.18
-13.47
-14.41
-15.44
-17.10
-19.79
-23.65
-28.36
-33.24
-37.33
-39.64
-39.37
-36.15
-30.13
-21.91
-12.42
-2.74
6.17
13.55
19.00
22.44
24.03
24.16
23.27
21.82
20.19
18.57
16.99
15.33
13.48
11.42
9.30
7.35
5.74
4.47
3.35
2.07
0.40
-1.68
-3.95
-6.05
-7.69
-8.75
-9.34
-9.75
-10.41
-11.78
-14.24
-18.06
-23.17
-29.08
-34.77
-38.96
-40.34
-38.02
-31.90
-22.70
-11.79
-0.73
9.13
17.00
22.68
26.47
28.84
30.20
30.77
30.56
29.56
27.79
25.44
22.81
20.22
17.84
15.66
13.57
11.50
9.48
7.73
6.43
5.63
5.17
4.70
3.84
2.47
0.68
-1.26
-3.03
-4.46
-5.62
-6.82
-8.49
-11.06
-14.83
-19.69
-25.06
-29.92
-32.98
-33.11
-29.80
-23.21
-14.28
-4.27
5.53
14.14
21.10
26.28
29.86
32.15
33.45
34.04
34.07
33.57
32.46
30.69
28.23
25.21
21.87
18.48
15.31
12.53
10.22
8.37
6.85
5.47
4.04
2.39
0.51
-1.47
-3.36
-4.95
-6.21
-7.25
-8.34
-9.85
-12.10
-15.28
-19.33
-23.85
-28.14
-31.18
-31.96
-29.75
-24.33
-16.16
-6.28
3.96
13.25
20.65
25.79
28.75
29.97
29.98
29.20
27.86
26.05
23.82
21.30
18.73
16.42
14.61
13.31
12.35
11.38
10.10
8.37
6.30
4.11
2.02
0.12
-1.70
-3.65
-5.92
-8.50
-11.19
-13.67
-15.78
-17.70
-19.93
-23.12
-27.60
-33.06
-38.38
-41.96
-42.28
-38.55
-31.06
-21.05
-10.25
-0.23
8.02
14.26
18.74
21.83
23.76
24.58
24.26
22.92
20.90
18.69
16.69
15.06
13.60
11.91
9.64
6.73
3.47
0.38
-2.08
-3.76
-4.90
-6.07
-7.77
-10.22
-13.20
-16.18
-18.63
-20.33
-21.54
-22.86
-25.01
-28.45
-33.10
-38.34
-43.10
-46.11
-46.29
-42.90
-35.85
-25.68
-13.46
-0.61
11.43
21.44
28.69
32.93
34.45
33.89
32.11
29.96
28.03
26.55
25.33
23.92
21.88
19.05
15.79
12.66
10.29
8.98
8.52
8.32
7.81
6.64
4.90
2.77
0.45
-2.00
-4.62
-7.29
-9.60
-11.13
-11.74
-12.07
-13.31
-16.66
-22.54
-30.02
-36.97
-40.91
-40.11
-34.53
-25.64
-15.65
-6.45
1.19
7.62
13.62
19.76
25.59
30.09
32.27
31.82
29.53
26.84
25.17
25.13
25.96
26.18
24.43
20.36
14.99
10.23
7.83
8.40
10.81
12.90
12.70
9.52
4.40
-0.59
-3.46
-3.41
-1.31
1.04
1.82
0.17
-3.57
-8.24
-12.61
-15.86
-17.93
-19.12
-19.70
-19.61
-18.46
-15.84
-11.59
-5.93
0.38
6.42
11.36
14.73
16.54
17.15
17.14
17.07
17.24
17.61
17.91
17.73
16.82
15.15
12.99
10.82
9.03
7.75
6.80
5.85
4.53
2.74
0.68
-1.27
-2.75
-3.64
-4.14
-4.66
-5.63
-7.34
-9.81
-12.85
-16.19
-19.52
-22.54
-24.89
-26.16
-25.90
-23.81
-19.87
-14.45
-8.25
-2.10
3.20
7.17
9.66
10.85
11.14
10.97
10.64
10.29
9.85
9.17
8.06
6.48
4.54
2.45
0.45
-1.33
-2.88
-4.32
-5.81
-7.46
-9.27
-11.11
-12.86
-14.35
-15.58
-16.56
-17.40
-18.25
-19.30
-20.83
-23.16
-26.52
-30.86
-35.71
-40.11
-42.86
-42.80
-39.30
-32.48
-23.24
-12.97
-3.05
5.44
12.04
16.76
19.94
21.88
22.79
22.72
21.74
20.06
18.06
16.20
14.76
13.73
12.80
11.57
9.80
7.63
5.44
3.72
2.66
2.05
1.36
0.02
-2.28
-5.37
-8.72
-11.67
-13.77
-15.02
-15.87
-17.10
-19.55
-23.82
-29.92
-37.11
-43.98
-48.73
-49.75
-46.16
-38.06
-26.54
-13.22
0.22
12.43
22.61
30.40
35.71
38.70
39.67
39.08
37.52
35.58
33.66
31.95
30.36
28.76
27.02
25.11
23.11
21.13
19.29
17.62
16.15
14.88
13.78
12.77
11.75
10.54
9.01
7.13
4.95
2.68
0.52
-1.41
-3.05
-4.56
-6.25
-8.49
-11.64
-15.87
-20.95
-26.19
-30.48
-32.61
-31.67
-27.44
-20.49
-11.94
-3.08
5.07
12.01
17.64
22.07
25.39
27.55
28.44
28.12
26.86
25.15
23.48
22.15
21.17
20.25
19.02
17.24
14.92
12.41
10.19
8.65
7.87
7.59
7.31
6.56
5.09
2.98
0.54
-1.89
-4.07
-5.94
-7.54
-8.99
-10.43
-12.09
-14.26
-17.23
-21.15
-25.85
-30.68
-34.65
-36.65
-35.86
-31.96
-25.33
-16.91
-7.98
0.28
7.03
11.93
15.13
17.05
18.16
18.82
19.17
19.21
18.83
17.95
16.54
14.60
12.20
9.46
6.58
3.80
1.38
-0.59
-2.18
-3.65
-5.28
-7.30
-9.79
-12.61
-15.57
-18.39
-20.88
-22.96
-24.70
-26.38
-28.42
-31.23
-34.98
-39.37
-43.56
-46.34
-46.45
-43.02
-35.93
-25.82
-13.99
-1.98
8.82
17.47
23.63
27.48
29.53
30.43
30.72
30.69
30.42
29.80
28.68
26.97
24.69
22.01
19.14
16.28
13.58
11.07
8.74
6.55
4.38
2.17
-0.18
-2.68
-5.28
-7.80
-10.07
-11.99
-13.77
-15.85
-18.86
-23.25
-28.97
-35.32
-41.01
-44.47
-44.47
-40.40
-32.53
-21.87
-9.87
1.97
12.44
20.75
26.56
29.95
31.28
31.12
30.08
28.68
27.23
25.77
24.12
22.04
19.37
16.21
12.89
9.83
7.40
5.66
4.31
2.85
0.78
-2.14
-5.75
-9.55
-12.99
-15.73
-17.83
-19.68
-21.92
-25.11
-29.59
-35.25
-41.58
-47.59
-52.00
-53.45
-50.86
-43.79
-32.61
-18.56
-3.39
11.06
23.29
32.44
38.35
41.40
42.35
41.95
40.85
39.40
37.71
35.69
33.28
30.52
27.56
24.65
22.01
19.72
17.70
15.79
13.83
11.69
9.39
7.04
4.75
2.58
0.52
-1.49
-3.53
-5.69
-8.14
-11.14
-15.00
-19.98
-25.92
-32.08
-37.10
-39.35
-37.46
-31.00
-20.66
-8.17
4.35
15.10
23.11
28.38
31.57
33.47
34.64
35.20
35.02
33.98
32.16
29.89
27.54
25.39
23.45
21.52
19.39
17.00
14.49
12.13
10.05
8.17
6.16
3.66
0.49
-3.15
-6.75
-9.60
-11.26
-11.77
-11.80
-12.41
-14.66
-18.99
-24.93
-31.01
-35.41
-36.43
-33.27
-26.32
-16.82
-6.41
3.51
12.09
18.78
23.34
25.66
25.86
24.44
22.34
20.54
19.73
19.70
19.64
18.58
16.01
12.29
8.48
5.76
4.74
4.94
5.19
4.26
1.63
-2.19
-5.94
-8.39
-8.97
-8.44
-8.23
-9.70
-13.39
-18.62
-23.97
-28.13
-30.53
-31.71
-32.58
-33.60
-34.21
-33.00
-28.50
-20.26
-9.23
2.25
11.68
17.40
19.32
18.72
17.48
17.04
17.96
19.65
21.06
21.27
19.95
17.42
14.37
11.46
9.12
7.30
5.69
3.94
1.81
-0.64
-3.16
-5.35
-6.91
-7.78
-8.18
-8.54
-9.42
-11.34
-14.60
-19.16
-24.53
-29.86
-34.08
-36.13
-35.27
-31.20
-24.19
-14.99
-4.73
5.38
14.26
21.14
25.69
28.05
28.65
28.08
26.94
25.65
24.38
23.11
21.64
19.81
17.51
14.87
12.14
9.64
7.53
5.81
4.27
2.64
0.72
-1.46
-3.71
-5.76
-7.42
-8.65
-9.61
-10.61
-12.10
-14.53
-18.19
-23.04
-28.56
-33.79
-37.51
-38.53
-36.14
-30.27
-21.55
-11.07
-0.18
9.92
18.32
24.54
28.47
30.38
30.78
30.20
29.18
28.04
26.90
25.66
24.16
22.21
19.77
16.99
14.14
11.53
9.37
7.67
6.31
5.03
3.65
2.08
0.33
-1.50
-3.33
-5.11
-6.82
-8.43
-10.02
-11.76
-13.95
-16.93
-20.83
-25.31
-29.58
-32.51
-32.95
-30.28
-24.58
-16.60
-7.56
1.27
8.93
14.90
19.15
21.94
23.59
24.34
24.28
23.46
21.99
20.08
18.10
16.29
14.75
13.32
11.67
9.55
6.96
4.22
1.85
0.32
-0.28
-0.26
-0.30
-1.05
-2.83
-5.48
-8.38
-10.82
-12.36
-13.05
-13.43
-14.28
-16.30
-19.75
-24.29
-29.06
-32.93
-34.79
-33.93
-30.19
-24.01
-16.22
-7.74
0.62
8.30
14.93
20.25
24.00
26.02
26.41
25.54
24.01
22.39
21.02
19.81
18.42
16.46
13.76
10.55
7.29
4.49
2.48
1.29
0.68
0.28
-0.27
-1.18
-2.44
-3.94
-5.47
-6.87
-8.05
-9.01
-9.82
-10.62
-11.61
-13.14
-15.56
-19.08
-23.56
-28.28
-32.07
-33.64
-32.07
-27.25
-19.93
-11.43
-3.15
3.90
9.33
13.25
15.99
17.82
18.91
19.28
19.02
18.24
17.13
15.84
14.45
12.92
11.15
9.11
6.85
4.58
2.61
1.26
0.67
0.68
0.85
0.57
-0.65
-3.03
-6.31
-9.86
-12.92
-15.02
-16.16
-16.86
-17.95
-20.17
-23.86
-28.74
-33.95
-38.26
-40.43
-39.57
-35.31
-27.99
-18.43
-7.82
2.66
12.07
19.86
25.87
30.18
32.96
34.38
34.61
33.82
32.32
30.46
28.52
26.68
24.90
23.04
20.92
18.52
15.94
13.45
11.31
9.70
8.63
7.91
7.24
6.28
4.84
2.95
0.80
-1.14
-2.52
-3.17
-3.24
-3.21
-3.70
-5.25
-8.08
-11.94
-16.24
-20.13
-22.76
-23.51
-22.14
-18.81
-14.01
-8.35
-2.47
3.18
8.28
12.70
16.36
19.22
21.18
22.16
22.20
21.44
20.22
18.92
17.82
17.01
16.27
15.25
13.68
11.56
9.28
7.37
6.30
6.20
6.75
7.45
7.86
7.80
7.43
7.09
7.03
7.29
7.66
7.84
7.56
6.71
5.36
3.60
1.52
-0.84
-3.43
-6.15
-8.70
-10.73
-11.81
-11.74
-10.62
-8.78
-6.78
-5.04
-3.77
-2.86
-2.02
-0.98
0.33
1.73
2.87
3.42
3.24
2.41
1.28
0.22
-0.46
-0.66
-0.52
-0.30
-0.27
-0.51
-0.90
-1.22
-1.34
-1.28
-1.28
-1.53
-2.10
-2.78
-3.14
-2.86
-1.84
-0.43
0.71
0.90
-0.22
-2.53
-5.41
-8.04
-9.78
-10.38
-10.07
-9.34
-8.61
-8.03
-7.46
-6.60
-5.33
-3.76
-2.22
-1.03
-0.32
0.05
0.33
0.71
1.19
1.56
1.60
1.22
0.52
-0.24
-0.77
-0.94
-0.84
-0.68
-0.72
-1.11
-1.77
-2.44
-2.79
-2.55
-1.66
-0.33
1.03
1.97
2.16
1.48
-0.01
-2.07
-4.41
-6.74
-8.75
-10.08
-10.54
-10.09
-9.06
-7.98
-7.37
-7.44
-7.98
-8.40
-8.10
-6.73
-4.45
-1.82
0.39
1.55
1.40
0.07
-1.92
-3.79
-5.02
-5.26
-4.62
-3.51
-2.37
-1.44
-0.73
0.00
0.63
0.88
0.32
-1.18
-3.19
-4.72
-4.84
-3.15
-0.48
1.69
1.84
-0.65
-5.04
-9.61
-12.61
-13.14
-11.77
-9.90
-8.98
-9.50
-10.82
-11.57
-10.63
-7.75
-3.93
-0.65
0.92
0.60
-0.71
-1.64
-1.19
0.79
3.37
5.23
5.36
3.67
0.92
-1.63
-3.00
-2.77
-1.40
0.24
1.35
1.54
0.93
0.02
-0.66
-0.69
-0.03
1.07
2.12
2.59
2.08
0.48
-1.93
-4.54
-6.72
-7.99
-8.29
-7.92
-7.31
-6.77
-6.31
-5.65
-4.52
-2.81
-0.78
1.16
2.58
3.31
3.41
3.19
2.93
2.75
2.60
2.28
1.66
0.73
-0.33
-1.19
-1.56
-1.33
-0.57
0.41
1.23
1.60
1.42
0.88
0.30
0.05
0.30
0.98
1.73
2.08
1.61
0.19
-1.98
-4.42
-6.58
-8.09
-8.82
-8.92
-8.66
-8.20
-7.56
-6.70
-5.63
-4.49
-3.48
-2.81
-2.49
-2.33
-2.04
-1.43
-0.56
0.32
0.88
0.91
0.45
-0.25
-0.82
-1.05
-0.88
-0.48
-0.11
0.09
0.06
-0.04
-0.07
0.10
0.43
0.79
1.04
1.12
1.02
0.84
0.64
0.35
-0.16
-1.12
-2.63
-4.60
-6.72
-8.51
-9.53
-9.55
-8.69
-7.26
-5.68
-4.23
-2.93
-1.63
-0.14
1.55
3.23
4.49
5.04
4.79
3.99
3.05
2.35
2.01
1.87
1.64
1.11
0.29
-0.63
-1.37
-1.78
-1.91
-1.94
-2.08
-2.40
-2.80
-3.09
-3.09
-2.69
-1.97
-1.13
-0.45
-0.23
-0.72
-2.01
-4.02
-6.45
-8.87
-10.86
-12.11
-12.53
-12.22
-11.36
-10.07
-8.43
-6.45
-4.15
-1.69
0.66
2.63
4.00
4.77
5.06
5.06
4.90
4.59
4.06
3.31
2.40
1.58
1.07
1.04
1.42
1.97
2.37
2.36
1.90
1.19
0.51
0.12
0.06
0.16
0.14
-0.19
-0.80
-1.42
-1.78
-1.76
-1.57
-1.72
-2.71
-4.76
-7.65
-10.75
-13.31
-14.72
-14.77
-13.64
-11.74
-9.53
-7.28
-5.01
-2.65
-0.16
2.36
4.60
6.24
7.08
7.19
6.89
6.61
6.66
7.06
7.56
7.79
7.52
6.77
5.85
5.12
4.83
4.99
5.35
5.61
5.54
5.10
4.44
3.74
3.15
2.68
2.24
1.73
1.09
0.41
-0.17
-0.48
-0.49
-0.35
-0.48
-1.27
-2.98
-5.48
-8.31
-10.78
-12.28
-12.55
-11.73
-10.20
-8.38
-6.50
-4.59
-2.55
-0.33
2.04
4.38
6.56
8.44
9.93
10.99
11.55
11.62
11.24
10.54
9.70
8.92
8.32
7.95
7.80
7.77
7.79
7.73
7.59
7.37
7.17
7.04
6.96
6.88
6.70
6.34
5.81
5.22
4.68
4.31
4.16
4.22
4.41
4.60
4.61
4.20
3.20
1.56
-0.51
-2.67
-4.44
-5.54
-5.84
-5.51
-4.78
-3.82
-2.70
-1.35
0.26
1.93
3.39
4.30
4.53
4.23
3.77
3.50
3.55
3.72
3.62
2.94
1.67
0.15
-1.16
-1.85
-1.82
-1.31
-0.70
-0.27
-0.11
-0.07
0.03
0.22
0.41
0.35
-0.15
-1.05
-2.09
-2.87
-3.06
-2.58
-1.67
-0.81
-0.53
-1.19
-2.82
-5.12
-7.60
-9.83
-11.54
-12.69
-13.39
-13.79
-13.86
-13.45
-12.33
-10.38
-7.73
-4.79
-2.07
-0.02
1.25
1.93
2.44
3.07
3.88
4.60
4.89
4.60
3.91
3.27
3.16
3.74
4.80
5.85
6.43
6.37
5.88
5.45
5.48
6.10
7.07
7.91
8.21
7.78
6.84
5.81
5.12
5.00
5.36
5.81
5.85
5.11
3.47
1.14
-1.43
-3.76
-5.51
-6.56
-7.05
-7.18
-7.08
-6.77
-6.13
-5.06
-3.60
-1.95
-0.34
1.06
2.23
3.28
4.25
5.11
5.62
5.59
4.94
3.94
3.11
2.96
3.71
5.07
6.38
6.88
6.22
4.62
2.95
2.05
2.50
4.17
6.30
7.98
8.69
8.53
8.08
7.72
7.46
6.84
5.29
2.65
-0.50
-3.19
-4.56
-4.62
-4.13
-4.22
-5.58
-7.96
-10.23
-11.11
-9.93
-7.25
-4.38
-2.70
-2.79
-4.05
-5.11
-4.70
-2.32
1.03
3.72
4.31
2.42
-0.95
-3.98
-5.11
-3.78
-1.13
1.08
1.31
-0.77
-4.02
-6.55
-6.82
-4.46
-0.81
2.08
2.62
0.54
-2.83
-5.42
-5.60
-3.03
0.88
3.99
4.52
2.00
-2.50
-7.07
-9.95
-10.32
-8.69
-6.28
-4.34
-3.44
-3.34
-3.33
-2.68
-1.05
1.27
3.71
5.66
6.78
7.12
6.99
6.72
6.63
6.71
6.77
6.56
5.89
4.77
3.46
2.34
1.79
1.97
2.75
3.72
4.45
4.54
3.93
2.87
1.83
1.27
1.45
2.30
3.43
4.33
4.55
3.94
2.62
0.97
-0.64
-2.02
-3.19
-4.27
-5.38
-6.49
-7.39
-7.83
-7.66
-6.93
-5.84
-4.68
-3.62
-2.77
-2.06
-1.45
-0.94
-0.61
-0.54
-0.72
-1.10
-1.53
-1.91
-2.14
-2.25
-2.32
-2.41
-2.63
-3.06
-3.68
-4.37
-4.97
-5.27
-5.19
-4.80
-4.34
-4.03
-3.98
-4.07
-4.05
-3.73
-3.13
-2.56
-2.37
-2.83
-3.94
-5.33
-6.54
-7.18
-7.12
-6.51
-5.60
-4.64
-3.72
-2.75
-1.67
-0.44
0.82
1.92
2.67
2.97
2.92
2.73
2.60
2.66
2.85
2.99
2.88
2.44
1.76
1.13
0.83
1.01
1.64
2.46
3.16
3.50
3.41
