1553281625.00
64.000000
-0.00
-0.00
-0.00
-0.00
-0.00
-0.00
-0.00
-0.00
-0.00
-0.00
0.00
0.01
0.01
-0.00
-0.03
-0.05
-0.05
0.00
0.13
0.36
0.66
1.01
1.37
1.72
2.06
2.40
2.79
3.24
3.80
4.42
5.06
5.66
6.20
6.68
7.15
7.68
8.31
9.14
10.09
11.04
11.88
12.56
13.14
13.76
14.65
15.96
17.91
20.32
22.90
25.38
27.58
29.57
31.68
34.32
37.81
42.54
48.15
54.10
59.83
64.97
69.58
74.14
79.34
85.71
93.76
103.00
112.62
121.73
129.77
136.75
143.30
150.75
157.77
166.64
177.95
191.79
206.97
220.57
228.25
225.36
208.53
176.87
132.76
80.05
23.07
-34.94
-92.44
-149.16
-205.23
-260.37
-313.74
-363.87
-409.83
-450.91
-486.50
-515.74
-537.23
-549.22
-549.96
-538.37
-514.21
-478.67
-433.88
-382.45
-327.02
-269.84
-212.63
-156.66
-102.95
-52.37
-5.90
35.58
71.43
101.35
125.50
144.38
158.69
169.15
176.37
180.75
182.57
182.07
179.51
175.23
169.65
163.18
156.15
148.81
141.30
133.69
126.02
118.33
110.69
103.16
95.80
88.68
81.83
75.25
68.95
62.95
57.25
51.86
46.78
42.03
37.59
33.45
29.61
26.07
22.81
19.83
17.11
14.67
12.48
10.54
8.83
7.35
6.07
4.97
4.05
3.27
2.62
2.09
1.65
1.30
1.01
0.79
0.61
0.47
0.37
0.29
0.23
0.19
0.17
0.15
0.15
0.16
0.18
0.20
0.23
0.26
0.30
0.34
0.39
0.43
0.48
0.53
0.57
0.63
0.68
0.74
0.80
0.87
0.95
1.03
1.12
1.22
1.34
1.46
1.61
1.77
1.94
2.14
2.37
2.61
2.88
3.18
3.51
3.87
4.26
4.69
5.15
5.65
6.19
6.77
7.39
8.06
8.76
9.52
10.31
11.16
12.05
12.98
13.96
15.01
16.12
17.30
18.54
19.81
21.08
22.31
23.42
24.31
24.87
24.97
24.49
23.32
21.40
18.70
15.30
11.27
6.82
2.17
-2.48
-6.92
-10.99
-14.56
-17.53
-19.83
-21.43
-22.32
-22.53
-22.18
-21.40
-20.36
-19.23
-18.13
-17.08
-16.06
-14.98
-13.80
-12.53
-11.26
-10.13
-9.31
-8.85
-8.70
-8.67
-8.52
-8.09
-7.39
-6.61
-6.03
-6.02
-6.73
-8.02
-9.48
-10.59
-11.14
-11.04
-10.61
-10.39
-10.99
-12.71
-15.41
-18.50
-21.36
-23.64
-25.27
-26.49
-27.87
-30.07
-33.73
-39.44
-47.45
-57.37
-68.10
-77.22
-81.76
-79.38
-69.41
-53.43
-34.65
-16.80
-0.75
11.93
21.00
27.23
31.50
34.24
35.39
34.85
32.95
30.56
28.36
26.95
26.33
25.93
24.87
22.61
19.18
15.19
11.50
8.54
6.54
5.19
3.89
2.03
-0.64
-3.81
-6.75
-8.55
-8.68
-6.91
-3.47
1.05
5.90
10.44
14.20
16.94
18.63
19.28
19.02
18.03
16.45
14.39
12.02
9.61
7.53
6.21
5.90
6.58
7.92
9.34
10.27
10.39
9.74
8.70
7.72
7.10
6.87
6.77
6.47
5.74
4.58
3.25
2.02
1.08
0.41
-0.23
-1.17
-2.75
-5.14
-8.26
-11.77
-15.21
-18.01
-19.75
-20.16
-19.18
-16.90
-13.50
-9.22
-4.40
0.47
4.86
8.25
10.35
11.14
10.92
10.08
8.99
7.89
6.91
6.16
5.79
5.97
6.80
8.18
9.87
11.52
12.81
13.53
13.66
13.22
12.34
11.09
9.53
7.71
5.64
3.36
0.97
-1.38
-3.52
-5.34
-6.94
-8.58
-10.60
-13.25
-16.51
-20.01
-23.16
-25.26
-25.77
-24.49
-21.53
-17.34
-12.44
-7.33
-2.39
2.10
5.89
8.64
10.04
9.82
7.98
4.85
1.03
-2.86
-6.37
-9.40
-12.05
-14.49
-16.77
-18.81
-20.54
-22.01
-23.47
-25.25
-27.52
-30.27
-33.25
-36.22
-39.16
-42.33
-46.17
-51.03
-56.86
-63.14
-69.06
-73.72
-76.54
-77.31
-76.16
-73.27
-68.74
-62.41
-54.02
-43.30
-30.29
-15.37
0.85
17.63
34.27
50.20
64.91
77.83
88.33
95.76
99.72
100.22
97.78
93.33
87.91
82.31
76.86
71.49
65.96
60.17
54.40
49.16
44.94
41.94
39.89
38.21
36.30
33.88
31.05
28.15
25.51
23.25
21.19
18.99
16.39
13.38
10.16
7.06
4.33
2.08
0.14
-1.74
-3.84
-6.29
-9.05
-11.79
-14.05
-15.28
-15.12
-13.41
-10.33
-6.31
-1.88
2.47
6.39
9.68
12.21
13.90
14.69
14.59
13.77
12.53
11.23
10.20
9.66
9.64
10.07
10.87
11.93
13.16
14.44
15.60
16.43
16.73
16.35
15.28
13.56
11.33
8.74
5.98
3.23
0.70
-1.45
-3.13
-4.38
-5.37
-6.32
-7.45
-8.92
-10.77
-12.99
-15.49
-18.08
-20.53
-22.56
-23.79
-23.90
-22.69
-20.14
-16.42
-11.95
-7.25
-2.87
0.79
3.50
5.23
6.15
6.46
6.36
5.99
5.43
4.76
4.11
3.63
3.44
3.59
4.05
4.69
5.37
5.99
6.51
6.95
7.33
7.64
7.77
7.58
6.92
5.70
3.93
1.72
-0.70
-3.13
-5.34
-7.23
-8.78
-10.08
-11.25
-12.39
-13.54
-14.71
-15.88
-16.88
-17.50
-17.42
-16.32
-13.96
-10.33
-5.71
-0.60
4.37
8.68
12.03
14.35
15.70
16.17
15.85
14.74
12.92
10.65
8.27
6.24
4.92
4.46
4.73
5.45
6.26
6.93
7.39
7.68
7.88
7.95
7.74
6.99
5.53
3.36
0.67
-2.12
-4.64
-6.65
-8.18
-9.43
-10.65
-12.04
-13.60
-15.21
-16.67
-17.93
-18.92
-19.66
-20.06
-19.84
-18.65
-16.17
-12.41
-7.69
-2.62
2.10
5.96
8.75
10.53
11.54
12.01
12.04
11.60
10.58
8.97
6.95
4.84
3.08
1.98
1.67
1.95
2.50
3.00
3.32
3.54
3.89
4.55
5.46
6.42
7.08
7.18
6.62
5.51
4.09
2.56
1.06
-0.44
-2.01
-3.68
-5.48
-7.33
-9.18
-11.02
-12.89
-14.82
-16.72
-18.34
-19.26
-18.98
-17.19
-13.94
-9.59
-4.84
-0.42
3.08
5.43
6.66
7.06
6.94
6.52
5.91
5.15
4.30
3.62
3.44
4.01
5.31
6.96
8.35
8.96
8.67
7.78
6.89
6.41
6.41
6.51
6.17
5.03
3.17
0.99
-1.03
-2.56
-3.62
-4.46
-5.33
-6.32
-7.32
-8.20
-8.93
-9.73
-10.83
-12.37
-14.17
-15.76
-16.54
-16.05
-14.22
-11.32
-7.92
-4.61
-1.80
0.44
2.25
3.82
5.21
6.28
6.82
6.69
6.01
5.20
4.72
4.92
5.73
6.77
7.43
7.37
6.61
5.61
4.95
4.99
5.64
6.35
6.53
5.79
4.24
2.38
0.75
-0.31
-1.01
-1.80
-3.16
-5.23
-7.76
-10.23
-12.22
-13.63
-14.72
-15.92
-17.40
-19.01
-20.26
-20.54
-19.43
-16.90
-13.31
-9.24
-5.26
-1.75
1.12
3.38
5.08
6.24
6.85
6.86
6.36
5.53
4.66
4.12
4.12
4.80
6.06
7.70
9.35
10.76
11.77
12.35
12.69
12.94
13.16
13.20
12.81
11.71
9.76
7.10
4.02
0.93
-1.84
-4.14
-6.00
-7.56
-9.03
-10.60
-12.33
-14.23
-16.08
-17.58
-18.32
-17.96
-16.34
-13.53
-9.86
-5.83
-1.89
1.59
4.40
6.50
7.89
8.54
8.42
7.54
6.09
4.40
2.95
2.14
2.19
3.04
4.38
5.85
7.14
8.10
8.73
9.11
9.28
9.20
8.77
7.85
6.41
4.56
2.50
0.56
-1.09
-2.32
-3.21
-3.93
-4.71
-5.70
-6.99
-8.59
-10.43
-12.45
-14.46
-16.20
-17.27
-17.26
-15.88
-13.11
-9.31
-5.10
-1.16
2.04
4.32
5.87
7.03
8.02
8.89
9.40
9.26
8.29
6.68
4.86
3.44
2.93
3.47
4.92
6.83
8.77
10.36
11.47
12.13
12.37
12.20
11.52
10.27
8.45
6.24
3.91
1.72
-0.19
-1.95
-3.73
-5.75
-7.97
-10.18
-12.08
-13.49
-14.50
-15.47
-16.71
-18.28
-19.88
-20.88
-20.70
-19.02
-16.00
-12.19
-8.17
-4.44
-1.17
1.62
3.90
5.51
6.25
5.98
4.84
3.18
1.56
0.35
-0.29
-0.47
-0.36
-0.08
0.41
1.23
2.43
3.83
5.06
5.68
5.46
4.43
2.81
0.94
-0.93
-2.80
-4.81
-7.13
-9.76
-12.54
-15.15
-17.23
-18.62
-19.48
-20.14
-20.97
-22.11
-23.33
-24.13
-23.91
-22.29
-19.28
-15.35
-11.22
-7.60
-5.00
-3.66
-3.51
-4.34
-5.90
-8.01
-10.57
-13.57
-17.02
-20.80
-24.74
-28.60
-32.13
-35.22
-37.93
-40.49
-43.16
-46.15
-49.41
-52.71
-55.60
-57.64
-58.49
-57.87
-55.63
-51.61
-45.70
-37.83
-28.12
-16.90
-4.71
7.75
19.85
31.00
40.75
48.74
54.69
58.44
59.99
59.65
57.98
55.74
53.69
52.40
52.10
52.63
53.53
54.25
54.26
53.31
51.46
48.99
46.32
43.73
41.39
39.21
37.06
34.87
32.72
30.84
29.38
28.35
27.55
26.65
25.41
23.74
21.78
19.78
17.94
16.35
14.99
13.73
12.51
11.27
10.03
8.82
7.64
6.48
5.28
3.97
2.48
0.75
-1.29
-3.66
-6.39
-9.49
-12.85
-16.26
-19.36
-21.70
-22.83
-22.49
-20.72
-17.85
-14.40
-10.92
-7.76
-5.07
-2.82
-0.96
0.50
1.42
1.66
1.08
-0.22
-1.89
-3.40
-4.15
-3.77
-2.16
0.43
3.50
6.47
8.90
10.49
11.18
11.02
10.17
8.86
7.42
6.08
4.95
3.94
2.86
1.53
0.03
-1.40
-2.45
-2.99
-3.23
-3.63
-4.69
-6.68
-9.46
-12.48
-15.09
-16.74
-17.12
-16.22
-14.23
-11.41
-8.03
-4.31
-0.47
3.23
6.48
8.91
10.23
10.33
9.28
7.38
5.02
2.57
0.35
-1.43
-2.56
-2.88
-2.38
-1.18
0.34
1.75
2.60
2.72
2.19
1.24
0.08
-1.20
-2.57
-4.09
-5.78
-7.54
-9.27
-10.90
-12.40
-13.78
-15.02
-16.10
-17.04
-17.90
-18.87
-20.10
-21.62
-23.21
-24.44
-24.85
-24.05
-21.91
-18.57
-14.36
-9.68
-4.89
-0.31
3.78
7.15
9.58
10.98
11.41
11.04
10.16
9.05
7.92
6.93
6.10
5.47
5.07
4.93
5.07
5.44
5.91
6.29
6.44
6.35
6.12
5.88
5.75
5.71
5.57
5.14
4.32
3.19
2.02
1.10
0.59
0.41
0.29
-0.11
-1.03
-2.49
-4.38
-6.45
-8.49
-10.30
-11.71
-12.47
-12.33
-11.17
-9.02
-6.14
-2.91
0.22
2.95
5.07
6.50
7.19
7.11
6.27
4.78
2.87
0.84
-0.99
-2.41
-3.29
-3.62
-3.42
-2.78
-1.85
-0.80
0.18
0.98
1.55
1.92
2.16
2.26
2.22
1.91
1.30
0.36
-0.83
-2.16
-3.48
-4.67
-5.72
-6.62
-7.45
-8.30
-9.26
-10.36
-11.50
-12.41
-12.73
-12.17
-10.61
-8.17
-5.20
-2.15
0.59
2.74
4.19
4.86
4.75
3.89
2.42
0.60
-1.23
-2.73
-3.69
-4.00
-3.68
-2.76
-1.26
0.76
3.14
5.63
7.94
9.80
11.04
11.63
11.62
11.02
9.85
8.05
5.70
2.95
0.10
-2.49
-4.56
-6.01
-6.97
-7.75
-8.72
-10.18
-12.24
-14.75
-17.23
-19.09
-19.74
-18.87
-16.46
-12.81
-8.34
-3.47
1.46
6.19
10.46
13.95
16.38
17.61
17.68
16.88
15.67
14.43
13.41
12.64
11.94
11.04
9.76
8.05
6.12
4.30
2.94
2.26
2.24
2.74
3.53
4.43
5.36
6.22
6.94
7.34
7.32
6.79
5.78
4.44
2.82
0.90
-1.39
-4.08
-6.98
-9.64
-11.34
-11.39
-9.33
-5.12
0.80
7.63
14.45
20.40
24.93
27.71
28.64
27.74
25.19
21.29
16.50
11.50
7.01
3.62
1.76
1.41
2.30
3.95
5.96
8.07
10.22
12.43
14.67
16.71
18.21
18.82
18.33
16.79
14.43
11.61
8.68
5.92
3.56
1.80
0.78
0.50
0.74
1.16
1.31
0.87
-0.23
-1.75
-3.24
-4.23
-4.42
-3.78
-2.52
-1.01
0.40
1.54
2.37
2.99
3.50
3.91
4.14
4.06
3.61
2.90
2.15
1.62
1.47
1.70
2.12
2.46
2.53
2.21
1.56
0.75
-0.07
-0.86
-1.75
-2.92
-4.51
-6.50
-8.63
-10.60
-12.14
-13.18
-13.99
-14.92
-16.26
-17.94
-19.63
-20.92
-21.55
-21.56
-21.28
-20.94
-20.51
-19.59
-17.72
-14.60
-10.43
-5.87
-1.84
0.87
1.90
1.37
-0.23
-2.30
-4.38
-6.21
-7.77
-9.16
-10.44
-11.56
-12.38
-12.72
-12.54
-11.93
-11.11
-10.30
-9.66
-9.18
-8.74
-8.19
-7.48
-6.62
-5.75
-5.01
-4.52
-4.29
-4.24
-4.36
-4.69
-5.34
-6.47
-8.20
-10.45
-12.96
-15.29
-16.90
-17.38
-16.51
-14.24
-10.74
-6.34
-1.52
3.23
7.43
10.72
12.94
14.18
14.63
14.47
13.77
12.41
10.26
7.36
4.02
0.84
-1.55
-2.80
-2.94
-2.29
-1.30
-0.26
0.75
1.83
2.97
4.02
4.68
4.57
3.46
1.35
-1.54
-4.79
-7.93
-10.52
-12.32
-13.32
-13.71
-13.78
-13.66
-13.25
-12.23
-10.22
-7.08
-2.97
1.62
6.05
9.77
12.45
14.07
14.78
14.82
14.42
13.69
12.73
11.61
10.45
9.41
8.52
7.73
6.87
5.77
4.41
3.00
1.85
1.27
1.36
1.98
2.79
3.53
4.08
4.59
5.31
6.41
7.81
9.22
10.17
10.29
9.47
7.85
5.85
3.92
2.44
1.66
1.72
2.67
4.52
7.16
10.31
13.61
16.60
18.99
20.68
21.72
22.25
22.37
22.05
21.20
19.77
17.78
15.32
12.48
9.33
5.93
2.34
-1.27
-4.80
-8.22
-11.67
-15.42
-19.69
-24.51
-29.61
-34.53
-38.82
-42.25
-44.78
-46.66
-48.19
-49.70
-51.52
-53.92
-57.14
-61.27
-66.13
-71.24
-75.92
-79.48
-81.46
-81.82
-80.84
-78.93
-76.39
-73.23
-69.14
-63.66
-56.42
-47.30
-36.50
-24.46
-11.75
1.06
13.43
24.86
34.95
43.31
49.67
53.87
56.02
56.47
55.89
55.08
54.71
55.11
56.10
57.08
57.21
55.71
52.16
46.56
39.33
31.13
22.70
14.73
7.77
2.21
-1.87
-4.61
-6.37
-7.64
-8.83
-10.27
-12.13
-14.37
-16.86
-19.28
-21.24
-22.25
-21.84
-19.69
-15.74
-10.20
-3.63
3.36
10.06
16.01
20.88
24.50
26.77
27.63
27.08
25.25
22.57
19.73
17.59
16.96
18.32
21.61
26.27
31.44
36.27
40.14
42.85
44.54
45.50
46.06
46.43
46.66
46.72
46.52
46.01
45.11
43.81
42.04
39.73
36.81
33.31
29.36
25.23
21.29
17.94
15.39
13.68
12.46
11.24
9.55
7.22
4.42
1.53
-1.10
-3.44
-5.87
-8.82
-12.56
-16.89
-21.17
-24.64
-26.81
-27.67
-27.64
-27.27
-26.85
-26.36
-25.47
-23.89
-21.55
-18.76
-16.15
-14.35
-13.69
-14.07
-14.95
-15.63
-15.62
-14.83
-13.69
-12.84
-12.80
-13.69
-15.20
-16.78
-17.99
-18.73
-19.22
-19.83
-20.74
-21.78
-22.45
-22.18
-20.59
-17.64
-13.76
-9.57
-5.71
-2.58
-0.26
1.38
2.58
3.52
4.16
4.35
3.86
2.62
0.72
-1.48
-3.52
-4.88
-5.29
-4.61
-3.00
-0.75
1.76
4.16
6.16
7.48
7.98
7.64
6.61
5.17
3.69
2.50
1.79
1.58
1.72
2.01
2.17
2.01
1.38
0.32
-0.97
-2.11
-2.67
-2.32
-1.02
1.04
3.46
5.83
7.91
9.62
11.04
12.24
13.14
13.61
13.44
12.56
11.02
9.03
6.90
4.90
3.22
1.92
0.92
0.10
-0.68
-1.46
-2.23
-2.90
-3.44
-3.89
-4.34
-4.89
-5.57
-6.31
-6.97
-7.40
-7.58
-7.52
-7.23
-6.64
-5.56
-3.75
-1.05
2.48
6.55
10.69
14.35
17.03
18.41
18.35
16.94
14.46
11.36
8.19
5.49
3.70
3.10
3.73
5.42
7.80
10.45
12.90
14.79
15.91
16.22
15.79
14.74
13.21
11.27
8.96
6.29
3.37
0.31
-2.70
-5.48
-7.93
-10.09
-12.07
-14.07
-16.21
-18.45
-20.53
-22.13
-22.94
-22.84
-21.91
-20.37
-18.47
-16.32
-13.96
-11.44
-8.86
-6.46
-4.54
-3.25
-2.58
-2.29
-2.09
-1.81
-1.46
-1.14
-0.91
-0.65
-0.08
1.09
2.95
5.29
7.57
9.21
9.79
9.21
7.73
5.76
3.77
1.91
0.16
-1.72
-3.90
-6.36
-8.81
-10.91
-12.39
-13.35
-14.12
-14.99
-15.93
-16.47
-15.87
-13.64
-9.79
-5.15
-0.89
1.94
2.88
2.24
0.77
-0.72
-1.75
-2.36
-2.88
-3.66
-4.77
-5.98
-6.90
-7.23
-6.93
-6.33
-5.92
-6.18
-7.33
-9.26
-11.62
-13.99
-16.07
-17.76
-19.13
-20.27
-21.10
-21.39
-20.84
-19.32
-16.96
-14.11
-11.20
-8.44
-5.74
-2.81
0.69
4.93
9.76
14.72
19.15
22.55
24.59
25.37
25.30
24.87
24.48
24.34
24.35
24.34
24.17
23.86
23.45
23.01
22.51
21.89
21.19
20.53
20.07
19.95
20.05
20.08
19.66
18.52
16.57
13.96
10.99
7.93
5.04
2.43
0.15
-1.83
-3.61
-5.31
-6.96
-8.56
-9.91
-10.74
-10.71
-9.60
-7.37
-4.24
-0.68
2.72
5.44
7.16
7.88
7.83
7.36
6.82
6.37
6.03
5.70
5.27
4.76
4.29
4.00
3.97
4.15
4.39
4.49
4.37
4.05
3.61
3.11
2.52
1.76
0.76
-0.43
-1.66
-2.72
-3.52
-4.13
-4.82
-5.89
-7.58
-9.95
-12.92
-16.18
-19.33
-21.95
-23.59
-23.92
-22.78
-20.23
-16.61
-12.44
-8.30
-4.67
-1.88
-0.06
0.81
0.88
0.40
-0.35
-1.09
-1.68
-2.04
-2.17
-2.03
-1.52
-0.47
1.28
3.72
6.69
9.90
13.04
15.93
18.57
21.05
23.57
26.24
29.11
32.17
35.39
38.74
42.25
45.95
49.83
53.76
57.43
60.39
61.99
61.55
58.60
53.10
45.58
37.14
29.08
22.58
18.21
15.66
14.04
12.34
9.92
6.79
3.52
0.91
-0.58
-1.13
-1.69
-3.45
-7.27
-13.29
-20.89
-28.81
-35.55
-39.83
-40.86
-38.80
-34.44
-28.98
-23.79
-20.13
-18.97
-20.28
-22.67
-23.34
-19.31
-7.99
11.43
36.73
62.70
82.98
92.72
90.83
80.27
65.12
49.61
36.23
25.08
14.35
2.03
-12.45
-27.92
-42.59
-57.14
-72.83
-90.42
-109.70
-129.90
-149.77
-167.82
-182.72
-193.55
-202.22
-209.75
-215.10
-215.78
-210.08
-197.49
-178.57
-154.61
-112.94
-51.79
19.00
84.08
133.41
165.38
184.23
195.71
204.33
212.20
216.97
216.11
209.49
199.34
187.94
178.00
172.50
174.03
183.75
198.74
215.04
229.30
241.11
247.07
245.19
236.46
224.39
212.54
201.71
191.41
180.88
169.66
152.46
125.92
91.02
52.51
15.46
-17.68
-46.07
-69.54
-88.00
-109.33
-138.94
-176.29
-215.66
-251.45
-281.53
-306.44
-327.88
-347.78
-377.81
-425.81
-491.49
-567.18
-644.59
-719.15
-789.78
-857.34
-861.77
-773.67
-610.73
-425.00
-260.04
-132.28
-39.20
28.36
79.17
119.28
142.38
144.23
127.11
99.84
71.58
48.31
33.97
32.23
46.48
66.99
89.41
110.54
129.09
143.35
151.03
151.31
146.07
138.88
128.39
113.60
94.79
74.31
54.58
36.88
21.63
8.90
-1.43
-11.70
-24.73
-40.68
-57.41
-72.31
-83.64
-90.89
-94.75
-96.96
-100.64
-108.10
-119.95
-134.62
-149.06
-159.94
-164.83
-163.02
-155.66
-145.03
-133.28
-121.58
-109.79
-96.87
-81.72
-63.94
-44.10
-23.31
-2.73
17.02
35.86
54.00
71.54
88.28
103.68
117.07
128.03
136.58
143.29
149.18
155.39
162.96
172.54
184.18
197.05
209.53
219.47
224.85
224.45
218.34
207.74
194.55
180.63
167.37
155.60
145.85
138.59
134.29
133.23
135.20
139.52
145.28
151.69
158.41
165.55
173.48
182.77
194.07
208.31
226.49
249.20
275.80
303.82
329.16
347.19
354.39
349.74
335.08
314.34
291.96
271.30
253.89
239.56
227.11
215.15
202.33
187.46
169.29
146.66
118.95
86.64
51.65
16.99
-13.90
-38.35
-55.38
-65.90
-72.25
-76.96
-81.47
-85.52
-87.50
-85.58
-79.13
-69.43
-59.23
-51.59
-48.45
-49.92
-54.48
-60.02
-64.86
-68.20
-69.75
-69.00
-64.87
-56.01
-41.69
-22.67
-1.57
17.91
32.01
38.14
35.37
24.39
7.00
-14.48
-37.97
-61.52
-83.39
-102.11
-116.42
-125.66
-130.25
-131.69
-132.71
-136.02
-143.30
-154.16
-165.98
-174.83
-177.16
-171.52
-159.47
-144.68
-131.26
-121.74
-116.09
-112.27
-107.82
-101.44
-94.21
-88.44
-86.19
-87.57
-90.23
-90.47
-85.25
-73.89
-58.90
-44.39
-33.90
-28.52
-26.21
-23.10
-15.84
-3.45
11.52
24.43
30.60
27.55
16.03
-0.57
-18.00
-32.90
-44.02
-51.66
-56.65
-59.10
-58.35
-53.90
-46.76
-39.72
-36.96
-41.83
-55.08
-74.28
-94.83
-112.19
-123.69
-128.89
-129.12
-126.00
-120.63
-113.59
-105.53
-97.62
-91.20
-86.78
-83.42
-78.87
-71.01
-59.60
-47.07
-37.54
-34.68
-39.58
-50.24
-62.66
-73.04
-79.53
-82.51
-83.10
-81.24
-74.81
-60.96
-38.78
-11.40
14.25
30.31
32.03
20.08
-0.00
-21.31
-39.37
-54.29
-69.70
-89.40
-114.00
-139.59
-159.52
-168.32
-165.17
-154.87
-145.50
-143.98
-152.19
-165.76
-175.94
-173.97
-155.29
-121.45
-78.86
-35.34
3.46
36.00
64.13
90.89
118.16
145.73
171.94
195.16
215.05
232.90
251.14
272.30
298.22
329.55
365.77
405.43
446.26
485.11
518.08
540.85
549.45
541.31
515.92
474.92
421.52
359.25
291.02
218.64
143.42
67.17
-7.11
-75.19
-132.75
-176.75
-206.45
-223.34
-230.08
-228.80
-220.00
-202.54
-174.88
-136.73
-90.22
-39.90
8.37
49.02
77.98
93.34
95.24
85.68
68.10
46.94
26.87
11.58
2.65
-0.89
-1.94
-3.66
-7.71
-13.67
-19.55
-23.63
-25.96
-28.62
-34.36
-44.60
-58.05
-71.09
-79.93
-83.09
-82.72
-83.76
-91.38
-108.17
-132.60
-159.75
-183.55
-199.12
-204.11
-198.49
-183.55
-160.94
-132.26
-99.17
-63.32
-26.19
11.19
48.33
84.86
120.22
153.59
183.95
210.31
231.60
245.85
249.65
238.69
209.74
163.25
104.84
44.31
-7.67
-43.86
-62.93
-69.00
-68.64
-67.11
-66.13
-64.26
-59.11
-49.80
-37.98
-26.82
-19.18
-15.87
-15.51
-15.64
-14.35
-11.37
-7.88
-5.66
-5.84
-8.12
-11.21
-13.70
-15.26
-17.03
-21.19
-29.54
-42.12
-56.55
-68.60
-73.75
-68.89
-53.65
-30.23
-2.39
26.05
52.37
75.31
94.65
110.56
123.12
132.41
138.78
143.11
146.89
151.71
158.80
168.60
180.52
193.25
205.15
214.84
221.64
225.72
227.93
229.38
231.09
233.53
236.49
239.14
240.06
237.36
228.83
212.40
186.75
152.21
110.97
66.70
23.56
-15.28
-48.77
-78.32
-107.31
-139.84
-179.50
-228.39
-286.76
-353.34
-425.62
-500.05
-572.24
-637.25
-690.38
-728.11
-748.71
-752.18
-739.46
-711.46
-668.56
-611.08
-540.70
-461.38
-379.06
-299.95
-228.05
-163.72
-104.33
-46.01
14.20
77.45
143.67
212.31
282.30
351.27
414.40
464.78
495.11
500.50
480.13
437.09
376.56
304.03
224.91
145.76
75.26
23.53
-0.96
4.67
35.37
79.35
122.17
152.13
163.53
157.24
138.40
113.16
86.25
60.34
36.57
15.52
-2.36
-16.76
-27.72
-35.69
-41.37
-45.34
-48.06
-49.80
-50.83
-51.34
-51.33
-50.66
-49.18
-46.83
-43.93
-40.88
-38.04
-35.60
-33.37
-31.18
-28.95
-26.78
-24.91
-23.31
-21.61
-19.09
-14.89
-8.43
0.29
10.58
21.26
31.19
39.74
47.26
54.90
63.91
74.83
86.85
97.96
105.73
108.42
105.78
99.24
91.00
83.10
76.62
71.57
67.29
63.10
58.64
53.89
48.66
42.28
33.55
21.15
4.31
-16.64
-40.07
-63.30
-83.32
-97.62
-104.93
-105.43
-100.55
-92.51
-83.78
-76.62
-72.75
-73.12
-77.69
-85.47
-94.53
-102.50
-107.10
-106.77
-101.37
-92.25
-81.82
-72.68
-66.64
-63.87
-62.99
-61.61
-57.50
-49.60
-38.48
-25.97
-14.10
-4.03
4.47
12.57
21.44
31.35
41.26
49.39
54.18
55.20
53.38
50.39
47.54
45.08
42.20
37.64
30.79
22.14
13.34
6.16
1.79
0.24
0.40
0.80
0.38
-1.05
-2.99
-4.84
-5.89
-5.20
-1.35
7.11
20.84
38.63
57.28
72.40
80.40
80.15
73.23
63.12
53.16
45.08
38.68
32.47
25.17
16.56
7.52
-0.58
-6.60
-10.08
-11.08
-10.53
-9.73
-10.03
-12.29
-16.41
-21.40
-25.73
-28.10
-28.45
-27.61
-26.79
-26.55
-26.38
-24.81
-20.38
-12.47
-2.33
7.69
14.97
17.82
16.22
11.58
5.97
1.22
-2.03
-4.11
-5.93
-8.46
-12.41
-18.03
-25.15
-33.13
-41.57
-50.05
-58.47
-66.93
-75.44
-83.75
-91.42
-98.09
-104.32
-111.35
-120.57
-132.47
-145.73
-157.08
-162.10
-156.51
-137.98
-106.96
-66.71
-22.54
19.75
55.19
80.60
95.09
99.54
96.15
87.99
78.84
72.89
74.28
86.10
109.16
140.69
174.83
204.44
223.63
229.75
223.90
209.57
190.42
168.17
142.05
109.64
68.67
18.92
-37.18
-94.87
-148.24
-191.88
-221.89
-236.48
-236.11
-223.12
-201.48
-176.07
-151.59
-131.46
-117.04
-107.55
-100.75
-94.28
-86.64
-77.58
-67.59
-57.08
-46.06
-34.24
-21.78
-9.72
0.11
6.18
8.39
8.55
9.90
15.60
27.02
43.33
61.79
79.25
93.86
105.86
117.36
131.15
149.13
171.22
195.07
216.66
231.55
235.98
227.77
206.86
175.12
136.02
94.02
53.85
19.88
-4.63
-18.10
-20.99
-15.92
-7.12
0.69
3.70
0.28
-8.96
-21.85
-36.11
-50.56
-65.38
-81.51
-99.41
-118.29
-136.14
-150.73
-160.80
-166.93
-171.30
-176.57
-184.41
-194.21
-203.29
-207.97
-205.31
-194.52
-177.16
-156.09
-134.18
-113.59
-96.08
-83.68
-78.57
-82.03
-92.58
-105.06
-111.69
-105.12
-81.87
-44.20
0.91
45.03
81.97
109.76
130.16
146.34
160.36
172.01
179.34
180.29
174.23
162.42
147.47
132.25
118.59
106.84
96.14
85.25
73.39
60.64
47.78
35.82
25.40
16.52
8.77
1.60
-5.26
-11.48
-16.20
-18.26
-16.68
-11.16
-2.37
8.06
18.00
25.44
29.14
29.03
26.07
21.78
17.60
14.40
12.33
11.08
10.34
10.12
10.75
12.58
15.67
19.57
23.41
26.36
27.97
28.38
28.13
27.67
27.02
25.74
23.27
19.37
14.43
9.28
4.62
0.52
-3.76
-9.37
-17.14
-27.02
-37.89
-47.97
-55.45
-59.14
-58.62
-54.23
-46.64
-36.67
-25.08
-12.59
-0.07
11.38
20.44
25.89
27.06
24.21
18.61
12.24
7.09
4.45
4.53
6.49
9.02
10.92
11.59
11.07
9.83
8.38
6.95
5.46
3.57
1.03
-2.05
-5.08
-7.12
-7.27
-5.17
-1.31
3.11
6.57
7.92
6.80
3.66
-0.61
-5.06
-9.11
-12.49
-15.00
-16.32
-15.98
-13.58
-9.17
-3.43
2.44
7.15
9.78
10.02
8.00
4.19
-0.80
-6.28
-11.26
-14.54
-14.99
-12.02
-6.02
1.82
9.94
17.08
22.79
27.41
31.52
35.47
38.89
41.06
41.32
39.61
36.60
33.40
30.90
29.39
28.07
25.60
20.67
12.77
2.53
-8.39
-18.03
-24.77
-28.10
-28.26
-25.94
-21.60
-15.41
-7.37
2.17
12.28
21.42
28.06
31.33
31.24
28.67
24.89
21.03
17.88
15.76
14.71
14.62
15.32
16.50
17.78
18.79
19.32
19.34
18.98
18.33
17.34
15.82
13.56
10.55
7.13
3.80
1.10
-0.76
-2.00
-3.21
-5.03
-7.94
-11.95
-16.66
-21.38
-25.30
-27.78
-28.44
-27.18
-24.15
-19.74
-14.38
-8.58
-2.81
2.47
6.87
10.14
12.22
13.23
13.50
13.43
13.39
13.68
14.42
15.68
17.47
19.78
22.56
25.66
28.79
31.53
33.42
34.09
33.34
31.27
28.24
24.66
20.90
17.14
13.33
9.32
4.97
0.23
-4.77
-9.86
-14.81
-19.38
-23.23
-25.99
-27.24
-26.62
-23.97
-19.41
-13.41
-6.69
-0.11
5.61
9.96
12.84
14.43
15.10
15.22
15.05
14.73
14.37
14.12
14.19
14.77
15.88
17.34
18.80
19.92
20.47
20.40
19.82
18.85
17.59
16.05
14.22
12.13
9.85
7.55
5.36
3.40
1.68
0.02
-1.85
-4.28
-7.46
-11.30
-15.27
-18.51
-20.12
-19.50
-16.59
-11.91
-6.32
-0.72
4.24
8.26
11.27
13.32
14.39
14.46
13.62
12.12
10.49
9.25
8.82
9.35
10.63
12.30
13.97
15.44
16.66
17.64
18.32
18.54
18.04
16.72
14.66
12.20
9.76
7.59
5.69
3.86
1.83
-0.49
-3.04
-5.66
-8.23
-10.87
-13.69
-16.66
-19.35
-20.99
-20.72
-18.00
-12.89
-6.27
0.55
6.37
10.45
12.83
14.06
14.86
15.67
16.34
16.42
15.50
13.65
11.47
9.95
9.86
11.37
13.94
16.57
18.35
18.93
18.55
17.82
17.27
17.14
17.17
16.85
15.76
13.71
10.85
7.59
4.39
1.64
-0.56
-2.34
-4.07
-6.15
-8.79
-11.83
-14.71
-16.56
-16.65
-14.66
-10.87
-6.05
-1.13
3.08
6.15
8.01
8.81
8.67
7.61
5.56
2.54
-1.23
-5.26
-8.87
-11.47
-12.74
-12.82
-12.18
-11.48
-11.25
-11.72
-12.68
-13.72
-14.45
-14.70
-14.60
-14.40
-14.36
-14.53
-14.80
-15.04
-15.24
-15.56
-16.28
-17.66
-19.77
-22.45
-25.44
-28.50
-31.53
-34.54
-37.44
-39.89
-41.24
-40.68
-37.53
-31.64
-23.52
-14.27
-5.26
2.28
7.59
10.42
11.01
9.83
7.37
4.09
0.39
-3.29
-6.45
-8.54
-9.13
-8.13
-5.79
-2.67
0.56
3.41
5.63
7.25
8.43
9.26
9.70
9.66
9.01
7.81
6.22
4.51
2.99
1.94
1.50
1.63
2.03
2.20
1.59
-0.14
-2.84
-5.91
-8.44
-9.59
-8.97
-6.70
-3.40
0.19
3.45
6.02
7.81
8.85
9.10
8.47
6.85
4.24
0.86
-2.86
-6.42
-9.34
-11.39
-12.53
-12.90
-12.64
-11.76
-10.15
-7.71
-4.53
-1.02
2.22
4.58
5.72
5.76
5.17
4.46
3.95
3.58
3.05
2.01
0.33
-1.87
-4.36
-6.93
-9.52
-12.15
-14.71
-16.86
-17.99
-17.48
-14.97
-10.65
-5.19
0.42
5.21
8.57
10.33
10.73
10.23
9.22
7.95
6.45
4.63
2.43
-0.04
-2.43
-4.31
-5.34
-5.46
-4.97
-4.38
-4.13
-4.33
-4.77
-5.07
-5.05
-4.83
-4.94
-5.94
-8.14
-11.38
-15.08
-18.50
-21.10
-22.79
-23.85
-24.83
-26.16
-28.02
-30.19
-32.27
-33.75
-34.29
-33.77
-32.23
-29.79
-26.55
-22.51
-17.75
-12.43
-6.94
-1.76
2.61
5.90
8.08
9.37
10.02
10.27
10.24
10.03
9.77
9.68
10.05
11.05
12.62
14.46
16.06
16.98
17.00
16.27
15.20
14.18
13.40
12.70
11.66
9.90
7.27
3.99
0.50
-2.97
-6.45
-10.21
-14.50
-19.23
-23.90
-27.83
-30.59
-32.23
-33.20
-33.89
-34.23
-33.61
-31.11
-26.16
-18.91
-10.33
-1.86
5.21
10.11
12.73
13.50
12.99
11.87
10.39
8.79
7.19
5.80
4.94
5.01
6.23
8.55
11.29
13.56
14.55
13.97
12.26
10.38
9.23
9.18
9.61
9.42
7.63
4.05
-0.56
-4.84
-7.62
-8.64
-8.77
-9.51
-12.09
-16.76
-22.64
-28.15
-31.90
-33.16
-32.24
-29.85
-26.59
-22.50
-17.23
-10.52
-2.67
5.37
12.22
16.68
18.31
17.49
15.12
12.30
9.82
8.16
7.33
7.21
7.62
8.45
9.59
10.92
12.27
13.41
14.15
14.37
14.10
13.50
12.75
11.98
11.12
10.08
8.78
7.21
5.49
3.71
1.98
0.31
-1.31
-2.83
-4.26
-5.67
-7.29
-9.35
-11.92
-14.73
-17.12
-18.26
-17.45
-14.47
-9.64
-3.79
2.13
7.29
11.23
13.85
15.34
15.96
15.93
15.35
14.22
12.68
10.99
9.61
8.94
9.17
10.12
11.29
12.10
12.15
11.46
10.40
9.47
9.08
9.26
9.75
10.09
9.82
8.74
6.95
4.79
2.71
1.05
-0.11
-0.92
-1.72
-2.85
-4.50
-6.66
-9.16
-11.67
-13.86
-15.39
-15.91
-15.13
-12.86
-9.16
-4.29
1.19
6.60
11.34
14.95
17.27
18.37
18.46
17.81
16.61
14.99
13.02
10.84
8.68
6.91
5.84
5.64
6.21
7.21
8.26
9.04
9.46
9.62
9.62
9.49
9.08
8.17
6.57
4.30
1.63
-1.02
-3.22
-4.69
-5.48
-5.89
-6.39
-7.42
-9.13
-11.38
-13.74
-15.69
-16.84
-16.96
-16.03
-14.13
-11.32
-7.66
-3.26
1.65
6.64
11.16
14.68
16.83
17.55
17.08
15.68
13.62
11.15
8.46
5.91
3.93
2.94
3.11
4.12
5.31
5.96
5.64
4.47
2.96
1.72
1.01
0.57
-0.16
-1.66
-3.99
-6.64
-8.87
-10.10
-10.28
-10.07
-10.39
-11.99
-15.00
-18.79
-22.25
-24.31
-24.35
-22.51
-19.43
-15.91
-12.49
-9.27
-6.07
-2.71
0.73
3.77
5.78
6.29
5.26
3.15
0.71
-1.37
-2.67
-3.17
-3.10
-2.73
-2.25
-1.63
-0.77
0.38
1.75
3.08
4.02
4.25
3.63
2.30
0.55
-1.23
-2.73
-3.84
-4.72
-5.59
-6.64
-7.94
-9.43
-11.01
-12.57
-14.04
-15.35
-16.37
-16.82
-16.41
-14.86
-12.13
-8.39
-4.09
0.20
3.86
6.43
7.72
7.74
6.79
5.28
3.63
2.20
1.15
0.49
0.14
-0.00
-0.02
0.11
0.46
1.01
1.70
2.31
2.62
2.44
1.69
0.49
-0.98
-2.54
-4.08
-5.61
-7.14
-8.68
-10.17
-11.47
-12.42
-12.95
-13.13
-13.20
-13.45
-14.13
-15.23
-16.37
-16.91
-16.18
-13.79
-9.82
-4.85
0.28
4.76
8.17
10.43
11.71
12.18
11.88
10.78
8.92
6.61
4.42
2.97
2.71
3.60
5.18
6.76
7.77
8.06
7.95
7.97
8.54
9.70
11.04
11.92
11.78
10.44
8.20
5.66
3.40
1.76
0.66
-0.20
-1.24
-2.72
-4.68
-6.97
-9.35
-11.61
-13.65
-15.32
-16.53
-17.08
-16.70
-15.21
-12.64
-9.30
-5.81
-2.88
-1.05
-0.53
-1.07
-2.19
-3.40
-4.46
-5.39
-6.34
-7.34
-8.19
-8.50
-7.94
-6.42
-4.25
-1.99
-0.17
0.92
1.30
1.32
1.34
1.54
1.88
2.03
1.64
0.51
-1.30
-3.43
-5.46
-7.06
-8.28
-9.46
-11.03
-13.29
-16.10
-18.90
-20.89
-21.37
-20.03
-17.03
-12.94
-8.41
-3.98
0.07
3.62
6.57
8.70
9.70
9.32
7.61
5.03
2.31
0.22
-0.85
-0.93
-0.47
0.04
0.28
0.32
0.47
1.00
1.99
3.19
4.19
4.63
4.35
3.41
2.00
0.36
-1.40
-3.18
-4.96
-6.67
-8.22
-9.57
-10.72
-11.81
-13.02
-14.50
-16.24
-18.02
-19.36
-19.66
-18.47
-15.67
-11.55
-6.76
-2.08
1.87
4.76
6.61
7.60
7.90
7.56
6.57
4.96
2.96
1.01
-0.30
-0.51
0.52
2.48
4.73
6.60
7.58
7.63
7.06
6.35
5.90
5.77
5.72
5.37
4.49
3.05
1.32
-0.54
-2.40
-4.28
-6.20
-8.03
-9.49
-10.37
-10.75
-11.16
-12.26
-14.48
-17.61
-20.65
-22.22
-21.24
-17.45
-11.71
-5.49
-0.29
3.08
4.73
5.43
6.03
6.90
7.59
7.37
5.68
2.76
-0.37
-2.28
-2.00
0.59
4.37
7.78
9.53
9.35
8.04
6.91
7.04
8.61
10.67
11.84
11.13
8.44
4.71
1.32
-0.66
-0.97
-0.32
0.16
-0.43
-2.36
-5.24
-8.39
-11.26
-13.61
-15.55
-17.20
-18.45
-18.90
-18.03
-15.51
-11.40
-6.14
-0.52
4.65
8.79
11.58
13.04
13.37
12.83
11.77
10.40
8.91
7.46
6.18
5.19
4.59
4.47
4.90
5.89
7.31
8.97
10.56
11.76
12.31
12.12
11.31
10.15
8.95
7.96
7.18
6.49
5.71
4.72
3.60
2.50
1.57
0.68
-0.52
-2.52
-5.66
-9.88
-14.61
-18.92
-21.80
-22.57
-21.09
-17.74
-13.24
-8.32
-3.49
1.00
5.02
8.43
10.98
12.37
12.45
11.30
9.37
7.24
5.53
4.60
4.52
5.12
6.07
7.10
8.08
8.98
9.83
10.63
11.31
11.73
11.80
11.48
10.84
10.03
9.16
8.22
7.13
5.77
4.11
2.27
0.51
-0.95
-2.04
-2.94
-4.08
-5.92
-8.73
-12.40
-16.38
-19.84
-21.92
-22.04
-20.06
-16.29
-11.31
-5.81
-0.36
4.63
8.87
12.10
14.11
14.79
14.14
12.46
10.21
7.90
6.03
4.90
4.59
5.02
6.00
7.31
8.78
10.21
11.46
12.38
12.93
13.07
12.86
12.35
11.61
10.62
9.34
7.77
6.00
4.20
2.58
1.26
0.18
-0.94
-2.52
-4.91
-8.23
-12.23
-16.35
-19.84
-21.85
-21.87
-19.71
-15.60
-10.13
-4.05
1.98
7.45
12.03
15.40
17.31
17.61
16.37
14.04
11.33
9.02
7.69
7.43
7.96
8.84
9.71
10.51
11.38
12.50
13.87
15.20
16.07
16.19
15.53
14.34
13.02
11.84
10.82
9.65
7.95
5.52
2.51
-0.65
-3.45
-5.61
-7.19
-8.68
-10.68
-13.60
-17.42
-21.64
-25.39
-27.75
-27.94
-25.67
-21.14
-14.97
-8.01
-1.13
4.99
9.90
13.52
15.93
17.30
17.86
17.74
17.07
16.01
14.80
13.79
13.36
13.75
14.98
16.69
18.31
19.25
19.12
17.98
16.20
14.28
12.61
11.32
10.24
9.07
7.57
5.74
3.73
1.80
0.13
-1.33
-2.79
-4.50
-6.64
-9.17
-11.89
-14.54
-16.97
-19.18
-21.24
-23.07
-24.33
-24.45
-22.80
-19.10
-13.60
-7.08
-0.59
4.93
8.98
11.53
12.91
13.48
13.44
12.80
11.55
9.81
7.96
6.57
6.11
6.76
8.33
10.27
12.02
13.15
13.59
13.55
13.41
13.38
13.51
13.52
13.10
11.96
10.05
7.65
5.12
2.84
0.99
-0.50
-1.83
-3.25
-4.93
-6.87
-8.97
-11.13
-13.19
-14.99
-16.23
-16.53
-15.49
-12.79
-8.44
-2.81
3.41
9.32
14.11
17.27
18.72
18.76
17.85
16.39
14.55
12.31
9.66
6.78
4.09
2.17
1.45
2.01
3.48
5.20
6.51
7.05
6.84
6.22
5.57
5.11
4.77
4.29
3.32
1.70
-0.49
-2.92
-5.13
-6.83
-7.91
-8.62
-9.40
-10.68
-12.73
-15.51
-18.72
-21.88
-24.47
-26.05
-26.25
-24.83
-21.72
-17.03
-11.14
-4.67
1.63
7.01
10.91
13.08
13.61
12.91
11.49
9.86
8.36
7.11
6.08
5.22
4.57
4.31
4.68
5.75
7.39
9.21
10.73
11.60
11.73
11.34
10.69
9.96
9.06
7.73
5.73
3.01
-0.12
-3.18
-5.64
-7.25
-8.06
-8.47
-9.00
-10.12
-12.07
-14.75
-17.81
-20.62
-22.52
-22.90
-21.41
-18.06
-13.22
-7.58
-1.87
3.25
7.35
10.21
11.80
12.16
11.43
9.88
7.83
5.72
3.95
2.77
2.28
2.38
2.87
3.58
4.40
5.26
6.14
6.99
7.71
8.17
8.25
7.85
6.93
5.57
3.88
1.99
0.05
-1.82
-3.52
-4.96
-6.09
-6.95
-7.69
-8.56
-9.79
-11.53
-13.65
-15.82
-17.56
-18.37
-17.95
-16.19
-13.25
-9.41
-4.99
-0.34
4.26
8.50
12.00
14.41
15.50
15.22
13.82
11.51
8.62
5.46
2.37
-0.16
-1.53
-1.30
0.56
3.45
6.36
8.34
8.96
8.51
7.83
7.66
8.15
8.65
8.15
5.91
1.99
-2.67
-6.73
-9.16
-9.75
-9.33
-9.18
-10.31
-12.91
-16.34
-19.47
-21.42
-21.85
-21.16
-19.93
-18.49
-16.60
-13.67
-9.15
-3.09
3.82
10.29
15.05
17.34
17.19
15.32
12.70
10.17
8.23
6.90
6.04
5.47
5.20
5.33
5.94
7.00
8.32
9.62
10.59
11.10
11.11
10.64
9.75
8.45
6.82
4.90
2.78
0.57
-1.64
-3.75
-5.68
-7.38
-8.84
-10.17
-11.60
-13.40
-15.74
-18.50
-21.18
-23.05
-23.33
-21.59
-17.89
-12.80
-7.18
-1.87
2.54
5.83
8.10
9.54
10.32
10.49
10.00
8.82
7.09
5.10
3.30
2.14
1.85
2.37
3.38
4.44
5.19
5.49
5.44
5.30
5.27
5.39
5.50
5.25
4.38
2.77
0.63
-1.61
-3.53
-4.83
-5.60
-6.20
-7.17
-8.91
-11.56
-14.92
-18.58
-22.06
-24.99
-27.06
-28.01
-27.54
-25.36
-21.40
-15.90
-9.54
-3.25
2.08
5.88
8.05
8.84
8.72
8.06
7.07
5.82
4.38
2.93
1.77
1.23
1.53
2.69
4.44
6.37
8.01
8.99
9.17
8.70
7.91
7.17
6.67
6.36
5.91
5.01
3.54
1.71
-0.10
-1.54
-2.52
-3.35
-4.49
-6.33
-8.98
-12.21
-15.63
-18.87
-21.67
-23.87
-25.26
-25.50
-24.27
-21.36
-16.99
-11.76
-6.46
-1.86
1.66
4.10
5.76
6.94
7.75
8.09
7.76
6.78
5.45
4.32
3.97
4.74
6.49
8.74
10.86
12.31
12.92
12.85
12.45
12.04
11.62
10.98
9.83
8.04
5.81
3.54
1.67
0.45
-0.28
-0.90
-1.80
-3.16
-4.89
-6.67
-8.30
-9.73
-11.24
-13.11
-15.39
-17.67
-19.08
-18.66
-15.74
-10.33
-3.28
4.03
10.21
14.34
16.28
16.55
15.90
14.98
14.00
12.86
11.35
9.46
7.51
5.97
5.29
5.67
6.90
8.51
9.98
10.97
11.42
11.48
11.40
11.37
11.37
11.22
10.64
9.44
7.64
5.46
3.28
1.44
0.14
-0.73
-1.49
-2.59
-4.35
-6.86
-9.96
-13.15
-15.85
-17.49
-17.65
-16.18
-13.29
-9.38
-4.97
-0.55
3.54
7.09
9.96
12.00
13.06
13.02
11.90
9.90
7.45
5.02
3.09
1.94
1.68
2.19
3.27
4.69
6.29
7.93
9.50
10.77
11.51
11.46
10.55
8.90
6.82
4.63
2.57
0.67
-1.08
-2.74
-4.28
-5.66
-6.92
-8.23
-9.89
-12.18
-15.17
-18.63
-22.03
-24.65
-25.77
-24.88
-21.82
-16.89
-10.71
-4.13
2.03
7.17
10.95
13.32
14.40
14.39
13.49
11.95
10.05
8.15
6.59
5.60
5.28
5.54
6.22
7.09
8.04
9.01
10.00
11.02
11.94
12.56
12.57
11.80
10.24
8.14
5.93
4.00
2.53
1.38
0.21
-1.34
-3.44
-5.93
-8.47
-10.68
-12.33
-13.50
-14.46
-15.56
-17.06
-19.02
-21.35
-23.77
-25.97
-27.59
-28.26
-27.65
-25.51
-21.78
-16.71
-10.80
-4.82
0.46
4.46
6.92
7.97
7.99
7.42
6.55
5.53
4.36
3.08
1.83
0.91
0.69
1.40
3.06
5.39
7.90
10.06
11.53
12.16
12.11
11.65
11.07
10.54
10.05
9.51
8.82
7.90
6.81
5.63
4.46
3.35
2.31
1.29
0.29
-0.70
-1.66
-2.64
-3.75
-5.16
-7.02
-9.29
-11.67
-13.62
-14.44
-13.64
-11.06
-7.03
-2.30
2.27
5.97
8.43
9.66
9.95
9.64
8.95
7.98
6.75
5.32
3.85
2.63
1.92
1.92
2.58
3.70
5.00
6.18
7.08
7.66
8.00
8.17
8.22
8.09
7.66
6.81
5.50
3.85
2.05
0.29
-1.33
-2.87
-4.50
-6.36
-8.47
-10.72
-12.94
-15.07
-17.20
-19.46
-21.85
-24.02
-25.33
-25.09
-22.90
-18.88
-13.65
-8.09
-2.96
1.34
4.71
7.25
8.94
9.66
9.23
7.65
5.24
2.63
0.57
-0.38
0.02
1.54
3.66
5.75
7.37
8.28
8.61
8.49
8.13
7.61
6.92
6.04
5.04
3.96
2.92
1.75
0.26
-1.70
-4.04
-6.42
-8.34
-9.50
-9.98
-10.44
-11.66
-14.13
-17.65
-21.25
-23.60
-23.59
-20.85
-16.04
-10.38
-5.12
-0.93
2.20
4.78
7.25
9.63
11.33
11.56
9.86
6.46
2.25
-1.48
-3.70
-3.96
-2.56
-0.29
2.03
3.87
5.13
6.03
6.81
7.67
8.49
9.05
9.11
8.52
7.28
5.51
3.43
1.28
-0.75
-2.57
-4.18
-5.69
-7.27
-9.03
-11.01
-13.18
-15.47
-17.81
-20.13
-22.28
-23.96
-24.67
-23.89
-21.27
-16.83
-11.03
-4.69
1.32
6.31
9.95
12.28
13.49
13.82
13.41
12.33
10.66
8.63
6.56
4.88
3.94
3.93
4.77
6.18
7.77
9.17
10.13
10.55
10.46
9.98
9.19
8.09
6.67
4.88
2.78
0.54
-1.59
-3.35
-4.58
-5.32
-5.79
-6.30
-7.15
-8.50
-10.38
-12.68
-15.19
-17.59
-19.49
-20.41
-19.90
-17.70
-13.86
-8.78
-3.15
2.24
6.75
10.01
11.97
12.82
12.83
12.26
11.29
10.03
8.61
7.23
6.16
5.61
5.73
6.41
7.42
8.43
9.19
9.62
9.77
9.78
9.77
9.73
9.56
9.16
8.45
7.47
6.33
5.18
4.16
3.32
2.59
1.80
0.70
-0.92
-3.17
-5.96
-9.01
-11.90
-14.14
-15.36
-15.31
-13.94
-11.33
-7.71
-3.33
1.46
6.28
10.70
14.26
16.59
17.47
16.97
15.40
13.26
11.10
9.33
8.16
7.63
7.62
8.01
8.66
9.36
9.94
10.21
10.06
9.53
8.77
7.96
7.21
6.34
5.11
3.22
0.58
-2.56
-5.75
-8.47
-10.43
-11.77
-12.93
-14.45
-16.71
-19.70
-23.03
-26.04
-28.06
-28.65
-27.66
-25.16
-21.44
-16.82
-11.69
-6.43
-1.46
2.71
5.63
7.05
6.97
5.78
4.09
2.54
1.63
1.49
1.96
2.78
3.73
4.75
5.93
7.34
8.99
10.68
12.14
13.09
13.37
12.98
12.02
10.66
9.10
7.51
5.94
4.42
2.89
1.26
-0.52
-2.46
-4.48
-6.53
-8.59
-10.74
-13.05
-15.47
-17.75
-19.36
-19.68
-18.23
-14.92
-10.19
-4.76
0.50
4.95
8.29
10.58
11.98
12.69
12.74
12.12
10.88
9.24
7.61
6.45
6.13
6.72
7.98
9.41
10.51
10.97
10.77
10.18
9.48
8.83
8.16
7.21
5.78
3.77
1.39
-1.06
-3.24
-4.95
-6.15
-6.97
-7.61
-8.30
-9.25
-10.55
-12.21
-14.08
-15.92
-17.40
-18.10
-17.66
-15.79
-12.39
-7.61
-1.92
4.00
9.39
13.64
16.49
18.02
18.59
18.58
18.26
17.66
16.74
15.49
14.05
12.75
11.95
11.91
12.56
13.59
14.50
14.83
14.29
12.86
10.78
8.39
6.00
3.82
1.84
-0.01
-1.82
-3.64
-5.35
-6.80
-7.90
-8.68
-9.42
-10.44
-12.01
-14.16
-16.62
-18.89
-20.38
-20.65
-19.51
-17.05
-13.58
-9.51
-5.23
-1.03
2.82
6.12
8.61
10.03
10.18
9.10
7.12
4.80
2.83
1.72
1.63
2.35
3.47
4.57
5.48
6.19
6.79
7.32
7.64
7.52
6.76
5.35
3.47
1.39
-0.65
-2.57
-4.35
-6.04
-7.63
-9.05
-10.23
-11.19
-12.09
-13.23
-14.87
-17.15
-19.89
-22.59
-24.55
-25.12
-23.86
-20.75
-16.19
-10.84
-5.40
-0.45
3.64
6.72
8.74
9.77
9.90
9.27
8.10
6.69
5.43
4.63
4.53
5.16
6.36
7.85
9.30
10.52
11.45
12.14
12.67
13.04
13.16
12.86
12.01
10.63
8.82
6.84
4.90
3.15
1.59
0.11
-1.44
-3.15
-5.02
-6.96
-8.91
-10.88
-12.96
-15.22
-17.50
-19.37
-20.22
-19.50
-17.01
-13.01
-8.22
-3.47
0.57
3.60
5.66
6.91
7.48
7.30
6.28
4.48
2.21
0.06
-1.37
-1.68
-0.91
0.56
2.15
3.37
4.06
4.41
4.70
5.23
5.98
6.67
6.91
6.38
5.01
3.01
0.68
-1.70
-3.95
-6.04
-7.94
-9.61
-10.96
-12.02
-13.07
-14.51
-16.66
-19.44
-22.24
-24.03
-23.78
-21.02
-16.15
-10.24
-4.58
-0.12
2.97
5.14
7.02
8.94
10.53
11.13
10.18
7.71
4.51
1.82
0.69
1.51
3.67
6.06
7.66
8.06
7.72
7.56
8.41
10.49
13.08
15.04
15.36
13.82
11.05
8.22
6.33
5.75
5.96
6.02
5.17
3.20
0.55
-2.10
-4.28
-5.97
-7.61
-9.65
-12.17
-14.72
-16.42
-16.42
-14.31
-10.30
-5.21
-0.08
4.18
7.13
8.74
9.33
9.24
8.76
8.03
7.14
6.19
5.32
4.63
4.19
3.96
3.91
4.04
4.44
5.15
6.12
7.16
8.02
8.48
8.45
8.05
7.38
6.54
5.46
4.01
2.12
-0.11
-2.36
-4.24
-5.47
-6.01
-6.17
-6.48
-7.43
-9.30
-12.00
-15.08
-17.91
-19.81
-20.29
-19.15
-16.50
-12.68
-8.14
-3.35
1.30
5.50
8.97
11.48
12.87
13.13
12.43
11.13
9.62
8.26
7.23
6.55
6.18
6.08
6.28
6.82
7.65
8.62
9.45
9.87
9.73
9.04
7.95
6.71
5.52
4.48
3.49
2.41
1.10
-0.47
-2.16
-3.70
-4.91
-5.73
-6.38
-7.24
-8.66
-10.76
-13.36
-15.94
-17.90
-18.73
-18.19
-16.32
-13.41
-9.80
-5.85
-1.88
1.77
4.77
6.80
7.68
7.43
6.29
4.71
3.11
1.81
0.94
0.48
0.36
0.61
1.28
2.43
3.99
5.67
7.11
7.99
8.21
7.86
7.22
6.52
5.82
4.97
3.72
1.94
-0.28
-2.59
-4.56
-5.87
-6.53
-6.86
-7.31
-8.32
-9.99
-12.11
-14.13
-15.41
-15.51
-14.19
-11.54
-7.87
-3.59
0.90
5.19
8.95
11.80
13.46
13.77
12.81
10.92
8.58
6.32
4.49
3.15
2.19
1.46
0.91
0.68
0.94
1.74
2.90
3.98
4.56
4.39
3.56
2.45
1.47
0.84
0.52
0.15
-0.64
-1.97
-3.71
-5.52
-7.01
-8.01
-8.61
-9.15
-10.03
-11.55
-13.72
-16.26
-18.65
-20.27
-20.60
-19.28
-16.31
-12.01
-6.95
-1.82
2.75
6.29
8.70
10.08
10.70
10.86
10.71
10.29
9.59
8.67
7.71
7.01
6.84
7.31
8.31
9.57
10.78
11.74
12.41
12.86
13.13
13.20
12.88
11.98
10.43
8.26
5.76
3.28
1.18
-0.35
-1.32
-1.96
-2.53
-3.25
-4.14
-5.10
-5.99
-6.79
-7.57
-8.35
-8.99
-9.17
-8.45
-6.59
-3.72
-0.33
2.83
5.14
6.33
6.50
6.03
5.29
4.46
3.49
2.24
0.72
-0.91
-2.23
-2.82
-2.43
-1.16
0.63
2.41
3.75
4.50
4.73
4.68
4.57
4.46
4.25
3.74
2.81
1.48
-0.06
-1.53
-2.73
-3.63
-4.34
-5.09
-6.10
-7.50
-9.29
-11.33
-13.42
-15.27
-16.61
-17.18
-16.76
-15.19
-12.49
-8.80
-4.44
0.11
4.35
7.76
10.02
10.98
10.77
9.71
8.18
6.54
5.02
3.67
2.54
1.65
1.08
0.97
1.42
2.37
3.61
4.82
5.71
6.15
6.17
5.89
5.40
4.65
3.56
2.03
0.12
-1.97
-3.99
-5.70
-7.06
-8.23
-9.52
-11.20
-13.41
-16.04
-18.77
-21.10
-22.49
-22.49
-20.85
-17.66
-13.26
-8.24
-3.22
1.31
5.04
7.85
9.71
10.64
10.61
9.67
8.02
6.03
4.21
3.08
2.94
3.80
5.35
7.16
8.81
10.12
11.10
11.85
12.48
12.96
13.12
12.77
11.84
10.38
8.60
6.74
4.97
3.36
1.87
0.46
-0.93
-2.34
-3.82
-5.48
-7.43
-9.73
-12.27
-14.68
-16.39
-16.74
-15.28
-11.96
-7.23
-1.92
3.03
6.91
9.46
10.86
11.55
11.94
12.17
12.13
11.59
10.43
8.80
7.08
5.73
5.08
5.13
5.65
6.27
6.65
6.70
6.51
6.27
6.08
5.90
5.49
4.57
3.01
0.88
-1.57
-4.02
-6.24
-8.19
-9.93
-11.55
-13.12
-14.65
-16.16
-17.72
-19.39
-21.20
-22.94
-24.16
-24.28
-22.73
-19.30
-14.24
-8.24
-2.28
2.75
6.32
8.37
9.33
9.72
10.00
10.26
10.30
9.83
8.79
7.43
6.25
5.63
5.65
6.05
6.41
6.47
6.35
6.40
6.91
7.79
8.60
8.72
7.80
5.98
3.84
2.02
0.90
0.28
-0.37
-1.51
-3.27
-5.31
-7.04
-8.05
-8.41
-8.78
-9.98
-12.41
-15.70
-18.74
-20.09
-18.73
-14.54
-8.53
-2.25
2.86
6.12
7.71
8.39
8.93
9.64
10.22
10.10
8.88
6.72
4.28
2.44
1.79
2.42
3.83
5.31
6.30
6.65
6.58
6.48
6.66
7.20
7.91
8.49
8.66
8.22
7.14
5.55
3.70
1.95
0.61
-0.21
-0.63
-0.99
-1.67
-2.95
-4.87
-7.27
-9.82
-12.19
-14.03
-15.03
-14.93
-13.55
-10.89
-7.14
-2.67
2.05
6.51
10.24
12.85
14.12
14.03
12.77
10.77
8.51
6.41
4.71
3.43
2.53
1.93
1.63
1.71
2.17
2.93
3.82
4.62
5.19
5.48
5.52
5.34
4.98
4.42
3.64
2.61
1.34
-0.10
-1.57
-2.94
-4.04
-4.82
-5.37
-5.95
-6.88
-8.39
-10.46
-12.66
-14.32
-14.74
-13.48
-10.52
-6.27
-1.39
3.47
7.84
11.40
13.99
15.44
15.65
14.61
12.52
9.81
7.02
4.66
3.00
2.08
1.73
1.74
1.99
2.46
3.18
4.14
5.23
6.17
6.67
6.55
5.82
4.71
3.49
2.40
1.49
0.65
-0.25
-1.26
-2.28
-3.10
-3.60
-3.84
-4.15
-4.98
-6.69
-9.32
-12.50
-15.47
-17.37
-17.52
-15.68
-12.10
-7.37
-2.21
2.82
7.36
11.20
14.18
16.08
16.70
15.98
14.15
11.69
9.19
7.03
5.33
3.94
2.67
1.53
0.75
0.68
1.53
3.13
4.99
6.50
7.16
6.85
5.74
4.19
2.53
0.85
-0.87
-2.71
-4.62
-6.40
-7.78
-8.63
-9.04
-9.45
-10.39
-12.27
-15.03
-18.17
-20.83
-22.13
-21.57
-19.21
-15.57
-11.39
-7.22
-3.29
0.46
4.17
7.83
11.14
13.64
14.90
14.80
13.52
11.56
9.43
7.61
6.32
5.59
5.36
5.56
6.15
7.05
8.18
9.39
10.46
11.19
11.37
10.84
9.56
7.59
5.12
2.46
-0.05
-2.14
-3.71
-4.88
-5.92
-7.14
-8.75
-10.76
-13.03
-15.29
-17.31
-18.87
-19.79
-19.89
-18.98
-16.87
-13.55
-9.25
-4.51
-0.08
3.36
5.40
6.08
5.82
5.16
4.55
4.14
3.82
3.43
2.95
2.55
2.53
3.13
4.29
5.68
6.84
7.41
7.32
6.79
6.16
5.68
5.33
4.87
3.92
2.31
0.10
-2.36
-4.61
-6.29
-7.31
-7.88
-8.40
-9.21
-10.55
-12.37
-14.43
-16.40
-17.93
-18.78
-18.81
-17.97
-16.27
-13.78
-10.61
-6.99
-3.20
0.36
3.30
5.34
6.33
6.33
5.54
4.28
2.83
1.46
0.30
-0.54
-1.04
-1.16
-0.85
-0.10
1.07
2.51
3.98
5.19
5.83
5.75
4.94
3.59
1.97
0.32
-1.24
-2.69
-4.06
-5.38
-6.66
-7.91
-9.20
-10.62
-12.29
-14.20
-16.15
-17.75
-18.51
-17.98
-15.92
-12.42
-7.86
-2.82
2.10
6.41
9.81
12.21
13.65
14.24
14.08
13.27
11.90
10.13
8.24
6.53
5.26
4.56
4.39
4.58
4.92
5.22
5.40
5.48
5.51
5.56
5.60
5.49
5.03
4.09
2.69
1.04
-0.57
-1.88
-2.88
-3.82
-5.11
-7.06
-9.72
-12.81
-15.86
-18.35
-19.96
-20.48
-19.86
-18.11
-15.28
-11.55
-7.26
-2.89
1.00
3.92
5.61
6.08
5.56
4.41
2.98
1.53
0.19
-0.92
-1.67
-1.86
-1.32
0.02
2.00
4.26
6.31
7.77
8.50
8.64
8.50
8.32
8.10
7.64
6.63
4.89
2.57
0.10
-2.05
-3.61
-4.66
-5.59
-6.90
-8.87
-11.46
-14.26
-16.63
-17.98
-17.91
-16.32
-13.35
-9.35
-4.75
0.03
4.60
8.60
11.71
13.66
14.24
13.46
11.59
9.17
6.91
5.46
5.18
5.99
7.49
9.15
10.58
11.62
12.32
12.80
13.04
12.96
12.50
11.79
11.02
10.44
9.94
9.23
7.88
5.67
2.86
0.06
-2.06
-3.15
-3.46
-3.71
-4.68
-6.76
-9.79
-13.15
-16.17
-18.36
-19.69
-20.26
-20.16
-19.24
-17.23
-13.88
-9.30
-3.93
1.36
5.74
8.66
10.09
10.46
10.49
10.75
11.50
12.37
12.83
12.42
11.22
9.84
9.23
10.07
12.39
15.43
18.04
19.29
18.93
17.47
15.85
14.76
14.40
14.29
13.77
12.43
10.41
8.28
6.65
5.81
5.59
5.41
4.70
3.18
0.89
-1.90
-4.86
-7.73
-10.30
-12.29
-13.35
-13.07
-11.26
-7.98
-3.67
1.04
5.53
9.35
12.29
14.32
15.46
15.66
14.86
13.06
10.49
7.55
4.76
2.59
1.24
0.66
0.61
0.84
1.22
1.78
2.65
3.83
5.23
6.62
7.70
8.25
8.19
7.60
6.63
5.46
4.21
2.87
1.37
-0.38
-2.45
-4.81
-7.40
-10.19
-13.15
-16.21
-19.16
-21.64
-23.10
-23.05
-21.26
-17.85
-13.35
-8.48
-3.89
-0.04
2.95
5.15
6.70
7.68
8.08
7.86
7.03
5.78
4.42
3.36
2.86
3.01
3.63
4.45
5.16
5.65
5.98
6.26
6.55
6.75
6.59
5.82
4.33
2.21
-0.24
-2.69
-4.90
-6.82
-8.54
-10.20
-11.92
-13.73
-15.66
-17.68
-19.77
-21.82
-23.54
-24.58
-24.50
-23.05
-20.21
-16.22
-11.51
-6.53
-1.64
2.89
6.88
10.17
12.65
14.27
15.03
15.01
14.34
13.14
11.56
9.81
8.18
6.96
6.38
6.50
7.19
8.21
9.33
10.40
11.42
12.38
13.24
13.78
13.76
12.96
11.33
9.04
6.46
4.00
2.01
0.56
-0.45
-1.37
-2.57
-4.35
-6.78
-9.73
-12.87
-15.71
-17.73
-18.47
-17.64
-15.24
-11.62
-7.48
-3.64
-0.84
0.54
0.59
-0.22
-1.32
-2.26
-2.97
-3.58
-4.27
-5.02
-5.57
-5.52
-4.57
-2.68
-0.28
2.06
3.79
4.66
4.85
4.75
4.74
4.95
5.11
4.80
3.69
1.81
-0.36
-2.16
-3.00
-2.71
-1.64
-0.49
-0.00
-0.68
-2.56
-5.29
-8.27
-10.78
-12.31
-12.53
-11.38
-9.02
-5.73
-1.89
2.12
6.00
9.44
12.23
14.18
15.14
15.06
14.00
12.20
10.02
7.88
6.06
4.72
3.80
3.21
2.81
2.53
2.46
2.62
3.03
3.55
3.91
3.82
3.07
1.57
-0.52
-2.90
-5.23
-7.20
-8.72
-9.88
-10.93
-12.17
-13.76
-15.73
-17.91
-20.07
-21.99
-23.44
-24.26
-24.24
-23.15
-20.87
-17.44
-13.18
-8.67
-4.53
-1.24
0.98
2.29
2.96
3.28
3.36
3.18
2.69
1.97
1.24
0.81
0.98
1.84
3.26
4.95
6.58
7.87
8.73
9.19
9.36
9.33
9.11
8.64
7.85
6.71
5.35
3.95
2.74
1.82
1.12
0.38
-0.70
-2.35
-4.63
-7.28
-9.90
-11.97
-13.05
-12.89
-11.48
-9.03
-5.90
-2.45
0.99
4.18
6.93
9.06
10.43
10.99
10.81
10.14
9.32
8.66
8.28
8.11
7.97
7.69
7.30
7.00
7.08
7.69
8.78
9.99
10.89
11.12
10.57
9.41
7.96
6.53
5.26
4.09
2.82
1.34
-0.31
-1.86
-3.00
-3.51
-3.44
-3.08
-2.83
-3.03
-3.82
-5.12
-6.72
-8.39
-9.89
-10.95
-11.25
-10.46
-8.36
-4.96
-0.63
4.05
8.40
11.87
14.15
15.23
15.27
14.59
13.48
12.17
10.81
9.47
8.20
7.03
6.07
5.46
5.32
5.66
6.32
7.07
7.65
7.89
7.78
7.40
6.82
6.08
5.11
3.84
2.29
0.53
-1.30
-3.04
-4.62
-6.02
-7.30
-8.47
-9.60
-10.77
-12.08
-13.63
-15.35
-17.03
-18.25
-18.60
-17.79
-15.82
-12.96
-9.62
-6.18
-2.91
0.02
2.47
4.23
5.15
5.11
4.24
2.88
1.51
0.54
0.19
0.46
1.12
1.89
2.57
3.07
3.43
3.78
4.19
4.64
5.01
5.13
4.88
4.24
3.31
2.22
1.04
-0.23
-1.61
-3.12
-4.65
-6.02
-7.15
-8.06
-9.03
-10.43
-12.43
-14.82
-16.98
-18.10
-17.54
-15.20
-11.51
-7.23
-3.10
0.45
3.30
5.48
6.98
7.68
7.49
6.51
5.09
3.68
2.58
1.81
1.19
0.52
-0.16
-0.55
-0.30
0.76
2.42
4.14
5.38
5.81
5.51
4.87
4.34
4.15
4.10
3.78
2.82
1.16
-0.85
-2.66
-3.79
-4.18
-4.33
-5.02
-6.86
-9.93
-13.59
-16.74
-18.40
-18.07
-16.08
-13.25
-10.38
-7.90
-5.65
-3.20
-0.27
2.98
5.90
7.67
7.76
6.23
3.68
0.91
-1.39
-2.88
-3.61
-3.83
-3.80
-3.63
-3.31
-2.79
-2.03
-1.06
-0.04
0.81
1.31
1.32
0.86
0.06
-0.91
-1.88
-2.76
-3.52
-4.25
-5.01
-5.91
-7.02
-8.43
-10.19
-12.20
-14.26
-15.97
-16.87
-16.55
-14.84
-11.79
-7.76
-3.27
1.15
5.02
8.01
9.98
10.93
10.99
10.40
9.40
8.22
7.04
5.95
4.99
4.22
3.76
3.69
4.08
4.83
5.78
6.65
7.21
7.35
7.04
6.32
5.27
3.93
2.30
0.44
-1.58
-3.62
-5.51
-7.11
-8.37
-9.33
-10.17
-11.16
-12.52
-14.34
-16.47
-18.49
-19.83
-19.97
-18.58
-15.73
-11.83
-7.51
-3.37
0.19
3.02
5.18
6.75
7.74
8.13
7.87
7.07
6.02
5.07
4.54
4.62
5.23
6.14
7.08
7.81
8.26
8.47
8.58
8.68
8.82
8.95
8.98
8.84
8.54
8.12
7.64
7.10
6.45
5.62
4.54
3.25
1.85
0.43
-0.98
-2.47
-4.18
-6.18
-8.39
-10.46
-11.87
-12.16
-11.04
-8.55
-5.10
-1.22
2.51
5.75
8.35
10.32
11.69
12.42
12.45
11.76
10.52
9.07
7.84
7.17
7.13
7.53
7.99
8.19
7.99
7.51
7.07
6.90
7.08
7.43
7.61
7.29
6.36
4.89
3.20
1.57
0.22
-0.83
-1.68
-2.49
-3.38
-4.47
-5.81
-7.52
-9.69
-12.31
-15.17
-17.77
-19.45
-19.61
-17.94
-14.64
-10.33
-5.78
-1.67
1.66
4.21
6.14
7.56
8.36
8.31
7.23
5.20
2.69
0.36
-1.13
-1.42
-0.62
0.78
2.22
3.26
3.82
4.06
4.23
4.46
4.65
4.54
3.82
2.41
0.46
-1.70
-3.65
-5.08
-5.91
-6.30
-6.56
-7.06
-8.08
-9.71
-11.84
-14.15
-16.27
-17.81
-18.47
-18.07
-16.56
-14.01
-10.67
-6.81
-2.80
1.02
4.28
6.67
7.95
8.03
7.07
5.43
3.60
2.07
1.12
0.82
1.04
1.58
2.31
3.21
4.32
5.67
7.16
8.60
9.71
10.27
10.18
9.50
8.40
7.11
5.81
4.58
3.45
2.38
1.33
0.24
-0.97
-2.37
-4.04
-6.06
-8.38
-10.86
-13.19
-14.94
-15.67
-15.02
-12.87
-9.45
-5.22
-0.81
3.23
6.58
9.20
11.20
12.70
13.76
14.29
14.23
13.62
12.69
11.80
11.32
11.42
12.05
12.89
13.58
13.87
13.74
13.36
12.96
12.69
12.44
12.00
11.08
9.58
7.64
5.58
3.74
2.25
1.00
-0.35
-2.11
-4.39
-7.06
-9.77
-12.19
-14.18
-15.81
-17.23
-18.45
-19.26
-19.19
-17.76
-14.79
-10.51
-5.60
-0.95
2.73
5.08
6.16
6.31
5.92
5.22
4.25
2.97
1.40
-0.24
-1.60
-2.32
-2.17
-1.20
0.24
1.71
2.84
3.51
3.84
4.09
4.47
4.95
5.28
5.10
4.15
2.41
0.17
-2.12
-4.08
-5.49
-6.46
-7.27
-8.19
-9.37
-10.73
-12.10
-13.36
-14.48
-15.56
-16.62
-17.48
-17.72
-16.84
-14.50
-10.73
-6.04
-1.23
2.96
6.06
8.04
9.18
9.78
10.05
9.94
9.33
8.20
6.74
5.35
4.51
4.55
5.43
6.83
8.27
9.31
9.79
9.83
9.70
9.65
9.73
9.76
9.43
8.48
6.89
4.85
2.69
0.67
-1.08
-2.63
-4.11
-5.64
-7.25
-8.88
-10.44
-11.86
-13.03
-13.76
-13.83
-12.97
-11.04
-8.05
-4.26
-0.06
4.12
7.89
10.97
13.25
14.68
15.34
15.31
14.69
13.60
12.16
10.55
8.99
7.72
6.89
6.56
6.58
6.75
6.88
6.90
6.87
6.91
7.14
7.52
7.86
7.88
7.30
5.96
3.93
1.49
-0.94
-2.96
-4.35
-5.17
-5.78
-6.66
-8.19
-10.52
-13.40
-16.52
-19.46
-21.84
-23.37
-23.71
-22.56
-19.76
-15.48
-10.35
-5.25
-1.04
1.80
3.34
4.07
4.55
5.06
5.47
5.40
4.59
3.18
1.72
0.94
1.35
3.00
5.31
7.50
8.91
9.37
9.16
8.88
8.98
9.55
10.15
10.16
9.11
7.01
4.35
1.89
0.26
-0.30
-0.18
-0.04
-0.57
-2.09
-4.45
-7.19
-9.70
-11.52
-12.47
-12.58
-11.92
-10.50
-8.27
-5.16
-1.32
2.97
7.15
10.68
13.18
14.49
14.74
14.20
13.15
11.80
10.31
8.78
7.39
6.35
5.83
5.90
6.50
7.48
8.58
9.56
10.23
10.44
10.12
9.29
8.10
6.76
5.51
4.52
3.79
3.17
2.44
1.39
-0.04
-1.77
-3.65
-5.49
-7.26
-9.02
-10.88
-12.87
-14.81
-16.36
-17.04
-16.53
-14.70
-11.77
-8.14
-4.31
-0.73
2.30
4.60
6.09
6.72
6.49
5.44
3.76
1.74
-0.26
-1.89
-2.91
-3.23
-2.93
-2.21
-1.29
-0.39
0.40
1.01
1.44
1.67
1.68
1.40
0.80
-0.14
-1.35
-2.68
-4.01
-5.23
-6.32
-7.36
-8.52
-9.93
-11.67
-13.69
-15.77
-17.60
-18.82
-19.10
-18.22
-16.19
-13.17
-9.49
-5.53
-1.69
1.69
4.38
6.22
7.17
7.32
6.81
5.88
4.72
3.53
2.46
1.64
1.20
1.29
1.96
3.13
4.52
5.77
6.52
6.64
6.21
5.50
4.76
4.10
3.43
2.57
1.35
-0.21
-1.95
-3.65
-5.16
-6.54
-7.99
-9.74
-11.86
-14.24
-16.54
-18.38
-19.42
-19.50
-18.55
-16.58
-13.64
-9.78
-5.21
-0.25
4.52
8.54
11.34
12.77
13.02
12.51
11.68
10.86
10.14
9.50
8.94
8.49
8.33
8.56
9.22
10.20
11.21
12.02
12.43
12.42
12.11
11.68
11.24
10.80
10.19
9.18
7.64
5.63
3.43
1.44
-0.11
-1.22
-2.20
-3.50
-5.39
-7.87
-10.56
-12.86
-14.18
-14.10
-12.53
-9.63
-5.86
-1.76
2.09
5.24
7.41
8.60
8.95
8.71
8.11
7.26
6.21
5.01
3.76
2.69
2.02
1.88
2.23
2.87
3.51
3.95
4.10
4.11
4.13
4.26
4.41
4.32
3.73
2.49
0.67
-1.43
-3.42
-5.00
-6.10
-6.92
-7.79
-9.07
-10.90
-13.14
-15.43
-17.26
-18.19
-17.98
-16.62
-14.26
-11.20
-7.76
-4.27
-1.02
1.71
3.66
4.69
4.80
4.15
3.06
1.87
0.88
0.29
0.12
0.32
0.78
1.40
2.14
2.95
3.79
4.61
5.28
5.71
5.80
5.53
4.94
4.13
3.19
2.18
1.10
-0.04
-1.29
-2.63
-4.05
-5.58
-7.27
-9.21
-11.44
-13.80
-15.95
-17.38
-17.59
-16.28
-13.54
-9.74
-5.50
-1.37
2.28
5.30
7.74
9.61
10.93
11.60
11.53
10.75
9.39
7.78
6.31
5.37
5.20
5.84
7.06
8.52
9.84
10.76
11.23
11.37
11.33
11.14
10.67
9.72
8.16
6.09
3.85
1.85
0.36
-0.61
-1.38
-2.36
-3.88
-6.02
-8.57
-11.18
-13.46
-15.11
-15.93
-15.81
-14.67
-12.45
-9.23
-5.18
-0.68
3.78
7.67
10.61
12.40
13.08
12.89
12.13
11.12
10.05
9.09
8.32
7.84
7.74
8.08
8.85
9.94
11.11
12.10
12.68
12.80
12.51
11.97
11.31
10.54
9.57
8.27
6.55
4.49
2.24
0.04
-1.98
-3.80
-5.54
-7.40
-9.49
-11.77
-14.01
-15.87
-16.92
-16.84
-15.49
-12.93
-9.50
-5.65
-1.84
1.59
4.44
6.65
8.20
9.03
9.05
8.20
6.55
4.41
2.22
0.44
-0.58
-0.80
-0.39
0.34
1.08
1.67
2.11
2.50
2.91
3.36
3.70
3.74
3.32
2.40
1.11
-0.32
-1.68
-2.85
-3.88
-4.88
-6.00
-7.31
-8.81
-10.48
-12.30
-14.21
-16.01
-17.31
-17.61
-16.46
-13.72
-9.67
-5.00
-0.53
3.09
5.57
6.98
7.52
7.39
6.64
5.28
3.42
1.40
-0.30
-1.27
-1.48
-1.20
-0.90
-0.92
-1.27
-1.62
-1.51
-0.71
0.62
2.02
2.92
3.02
2.36
1.27
0.17
-0.66
-1.35
-2.15
-3.34
-5.01
-6.95
-8.80
-10.24
-11.18
-11.95
-12.97
-14.54
-16.49
-18.13
-18.52
-16.92
-13.17
-7.99
-2.54
1.98
4.93
6.44
7.25
8.14
9.53
11.07
12.08
11.90
10.46
8.37
6.65
6.16
7.14
9.03
10.90
11.92
11.84
11.07
10.35
10.27
10.93
11.83
12.20
11.49
9.64
7.14
4.71
2.92
1.93
1.43
0.88
-0.14
-1.78
-3.88
-6.13
-8.26
-10.09
-11.55
-12.48
-12.69
-11.96
-10.17
-7.45
-4.12
-0.61
2.70
5.57
7.86
9.51
10.42
10.53
9.84
8.47
6.67
4.76
3.02
1.65
0.76
0.38
0.51
1.09
2.01
3.10
4.17
5.02
5.51
5.60
5.29
4.63
3.69
2.56
1.33
0.03
-1.31
-2.75
-4.32
-6.00
-7.68
-9.21
-10.44
-11.35
-12.12
-13.00
-14.23
-15.81
-17.43
-18.60
-18.81
-17.79
-15.63
-12.70
-9.48
-6.38
-3.56
-1.05
1.15
2.93
4.06
4.33
3.66
2.31
0.74
-0.47
-0.92
-0.52
0.50
1.73
2.79
3.48
3.88
4.22
4.72
5.47
6.31
6.92
6.96
6.22
4.77
2.85
0.84
-0.96
-2.44
-3.64
-4.74
-5.88
-7.17
-8.64
-10.33
-12.24
-14.37
-16.58
-18.51
-19.63
-19.42
-17.59
-14.25
-9.98
-5.52
-1.53
1.65
4.08
6.00
7.63
8.94
9.67
9.52
8.45
6.72
4.85
3.41
2.72
2.75
3.20
3.70
4.00
4.06
4.11
4.32
4.80
5.43
5.91
5.98
5.51
4.58
3.46
2.38
1.44
0.58
-0.37
-1.58
-3.08
-4.76
-6.45
-8.05
-9.59
-11.09
-12.53
-13.65
-14.02
-13.24
-11.12
-7.89
-4.08
-0.31
2.94
5.54
7.65
9.51
11.26
12.72
13.55
13.42
12.25
10.35
8.31
6.74
6.03
6.13
6.63
7.03
7.02
6.66
6.28
6.24
6.67
7.37
7.88
7.80
6.94
5.44
3.63
1.86
0.36
-0.86
-1.98
-3.20
-4.70
-6.54
-8.63
-10.79
-12.79
-14.43
-15.58
-16.15
-16.09
-15.36
-13.94
-11.85
-9.18
-6.12
-2.93
0.10
2.68
4.60
5.70
5.95
5.48
4.52
3.34
2.16
1.08
0.05
-1.00
-2.06
-2.99
-3.56
-3.58
-3.01
-2.05
-1.02
-0.22
0.17
0.19
-0.04
-0.37
-0.82
-1.47
-2.46
-3.82
-5.43
-7.06
-8.52
-9.74
-10.90
-12.24
-13.89
-15.75
-17.39
-18.23
-17.76
-15.79
-12.55
-8.54
-4.38
-0.51
2.82
5.57
7.78
9.42
10.43
10.69
10.19
9.05
7.59
6.18
5.16
4.70
4.78
5.19
5.72
6.18
6.51
6.75
6.98
7.23
7.49
7.67
7.68
7.38
6.74
5.78
4.62
3.45
2.44
1.59
0.80
-0.21
-1.68
-3.66
-6.00
-8.42
-10.56
-12.14
-12.97
-12.92
-11.92
-9.93
-7.02
-3.41
0.51
4.29
7.52
9.92
11.41
12.08
12.09
11.62
10.81
9.74
8.55
7.35
6.29
5.50
5.04
4.86
4.82
4.76
4.50
4.00
3.32
2.65
2.18
2.01
2.05
2.08
1.85
1.23
0.31
-0.67
-1.45
-1.96
-2.38
-3.08
-4.46
-6.71
-9.70
-13.00
-16.06
-18.32
-19.40
-19.15
-17.57
-14.85
-11.23
-6.99
-2.43
2.09
6.18
9.43
11.51
12.27
11.85
10.66
9.17
7.83
6.87
6.28
5.95
5.75
5.64
5.64
5.78
6.00
6.17
6.11
5.75
5.16
4.47
3.82
3.27
2.74
2.08
1.08
-0.35
-2.23
-4.48
-6.91
-9.33
-11.57
-13.55
-15.30
-16.92
-18.42
-19.73
-20.56
-20.51
-19.27
-16.73
-13.08
-8.77
-4.35
-0.28
3.12
5.72
7.45
8.25
8.11
7.06
5.35
3.34
1.51
0.29
-0.08
0.42
1.62
3.19
4.81
6.22
7.25
7.82
7.90
7.50
6.65
5.42
3.93
2.37
0.93
-0.26
-1.17
-1.96
-2.85
-4.12
-5.89
-8.12
-10.64
-13.19
-15.51
-17.36
-18.51
-18.65
-17.50
-14.85
-10.89
-6.13
-1.32
2.85
6.01
8.19
9.66
10.68
11.18
10.86
9.46
7.05
4.21
1.86
0.77
1.26
2.93
5.01
6.71
7.65
7.92
7.99
8.29
8.97
9.66
9.81
8.98
7.09
4.57
2.13
0.35
-0.53
-0.96
-1.60
-3.05
-5.49
-8.52
-11.49
-13.82
-15.25
-15.99
-16.34
-16.40
-15.86
-14.17
-10.92
-6.11
-0.31
5.46
10.21
13.34
14.86
15.23
15.11
14.99
15.04
15.09
14.86
14.21
13.22
12.18
11.43
11.24
11.69
12.65
13.82
14.87
15.49
15.51
14.88
13.71
12.20
10.48
8.65
6.74
4.76
2.74
0.81
-0.91
-2.37
-3.66
-5.05
-6.78
-8.99
-11.54
-13.99
-15.75
-16.28
-15.28
-12.81
-9.24
-5.11
-0.98
2.72
5.72
7.87
9.11
9.35
8.60
6.96
4.64
1.98
-0.66
-2.89
-4.42
-5.05
-4.74
-3.60
-1.85
0.14
2.03
3.54
4.50
4.90
4.83
4.43
3.80
3.02
2.15
1.25
0.43
-0.24
-0.72
-1.08
-1.47
-2.09
-3.05
-4.32
-5.62
-6.57
-6.73
-5.79
-3.67
-0.47
3.55
8.18
13.17
18.29
23.16
27.28
30.09
31.20
30.53
28.38
25.32
21.96
18.77
15.98
13.59
11.59
9.93
8.61
7.64
6.97
6.47
5.95
5.24
4.23
2.85
1.17
-0.68
-2.51
-4.17
-5.57
-6.78
-7.89
-9.08
-10.52
-12.32
-14.57
-17.26
-20.30
-23.40
-26.09
-27.77
-27.89
-26.17
-22.71
-17.99
-12.71
-7.53
-2.91
0.96
4.06
6.37
7.78
8.14
7.37
5.66
3.40
1.21
-0.31
-0.78
-0.11
1.47
3.49
5.48
7.10
8.24
9.03
9.60
10.04
10.27
10.13
9.50
8.45
7.24
6.27
5.74
5.63
5.61
5.26
4.27
2.52
0.15
-2.58
-5.44
-8.20
-10.60
-12.30
-12.90
-12.00
-9.45
-5.38
-0.40
4.71
9.13
12.34
14.23
15.06
15.28
15.26
15.02
14.38
13.10
11.17
8.92
6.89
5.58
5.18
5.47
6.01
6.35
6.34
6.05
5.67
5.32
4.93
4.25
3.08
1.34
-0.87
-3.30
-5.71
-7.91
-9.78
-11.32
-12.64
-13.89
-15.28
-16.96
-18.91
-20.82
-22.20
-22.49
-21.33
-18.67
-14.85
-10.40
-5.88
-1.69
1.94
4.87
7.00
8.20
8.36
7.44
5.63
3.27
0.89
-1.05
-2.21
-2.54
-2.22
-1.59
-0.97
-0.51
-0.20
0.12
0.57
1.10
1.49
1.44
0.70
-0.71
-2.54
-4.38
-5.85
-6.80
-7.39
-7.96
-8.92
-10.53
-12.79
-15.47
-18.18
-20.48
-22.04
-22.57
-21.95
-20.13
-17.18
-13.26
-8.71
-3.94
0.56
4.37
7.22
9.04
9.98
10.26
10.07
9.54
8.74
7.82
6.96
6.47
6.57
7.36
8.69
10.26
11.74
12.90
13.68
14.11
14.24
14.09
13.55
12.54
11.04
9.19
7.21
5.35
3.75
2.33
0.87
-0.95
-3.37
-6.42
-9.87
-13.29
-16.09
-17.76
-17.95
-16.57
-13.82
-10.13
-6.01
-1.92
1.83
5.14
7.97
10.34
12.12
13.19
13.41
12.79
11.53
10.02
8.67
7.79
7.45
7.51
7.71
7.81
7.71
7.52
7.42
7.56
7.90
8.21
8.11
7.30
5.65
3.26
0.40
-2.57
-5.38
-7.93
-10.22
-12.31
-14.24
-16.04
-17.76
-19.47
-21.27
-23.16
-25.01
-26.42
-26.87
-25.90
-23.26
-19.14
-14.01
-8.60
-3.57
0.58
3.60
5.48
6.34
6.34
5.67
4.52
3.10
1.67
0.51
-0.11
0.01
0.84
2.20
3.69
4.95
5.74
6.09
6.20
6.28
6.39
6.35
5.85
4.69
2.91
0.87
-1.01
-2.47
-3.57
-4.62
-5.99
-7.89
-10.23
-12.73
-15.05
-16.91
-18.12
-18.50
-17.87
-16.09
-13.11
-9.10
-4.41
0.45
5.02
8.90
11.80
13.55
14.10
13.51
12.03
10.08
8.10
6.45
5.36
4.85
4.82
5.14
5.67
6.30
6.90
7.36
7.58
7.51
7.20
6.72
6.11
5.34
4.33
3.00
1.36
-0.44
-2.19
-3.70
-4.89
-5.87
-6.87
-8.17
-9.96
-12.20
-14.63
-16.84
-18.38
-18.88
-18.18
-16.29
-13.36
-9.59
-5.24
-0.69
3.58
7.12
9.60
11.02
11.68
11.99
12.26
12.44
12.24
11.39
9.95
8.36
7.33
7.41
8.63
10.49
12.20
13.17
13.26
12.84
12.44
12.39
12.59
12.46
11.35
8.99
5.68
2.23
-0.47
-1.87
-2.08
-1.88
-2.24
-3.83
-6.69
-10.23
-13.58
-15.97
-16.99
-16.76
-15.55
-13.66
-11.20
-8.16
-4.54
-0.45
3.77
7.67
10.76
12.66
13.23
12.57
11.02
9.04
7.12
5.62
4.77
4.63
5.13
6.09
7.32
8.63
9.85
10.87
11.56
11.89
11.78
11.18
10.09
8.60
6.87
5.14
3.59
2.26
1.04
-0.29
-1.93
-3.91
-6.10
-8.27
-10.25
-12.02
-13.77
-15.71
-17.91
-20.13
-21.82
-22.36
-21.27
-18.46
-14.28
-9.33
-4.32
0.25
4.09
7.15
9.42
10.88
11.43
10.99
9.57
7.43
5.06
3.06
1.94
1.92
2.86
4.37
5.98
7.39
8.49
9.37
10.09
10.62
10.77
10.37
9.34
7.80
5.98
4.15
2.47
0.93
-0.57
-2.23
-4.14
-6.37
-8.86
-11.51
-14.23
-16.92
-19.45
-21.63
-23.16
-23.69
-22.90
-20.68
-17.17
-12.79
-8.13
-3.76
-0.12
2.61
4.45
5.52
5.96
5.83
5.14
3.97
2.55
1.25
0.48
0.55
1.52
3.16
5.10
6.96
8.50
9.70
10.65
11.46
12.14
12.60
12.66
12.14
11.03
9.46
7.69
6.00
4.55
3.29
2.01
0.43
-1.64
-4.20
-7.04
-9.84
-12.25
-14.00
-14.86
-14.67
-13.28
-10.68
-6.96
-2.51
2.20
6.53
10.06
12.55
14.04
14.75
14.88
14.50
13.54
11.87
9.57
6.93
4.50
2.82
2.20
2.51
3.32
4.12
4.60
4.74
4.77
4.88
5.07
5.00
4.29
2.70
0.34
-2.35
-4.78
-6.55
-7.59
-8.22
-8.93
-10.14
-11.99
-14.33
-16.86
-19.24
-21.24
-22.75
-23.68
-23.90
-23.18
-21.27
-18.05
-13.65
-8.50
-3.28
1.31
4.74
6.80
7.61
7.47
6.69
5.53
4.13
2.62
1.17
0.01
-0.65
-0.73
-0.29
0.48
1.38
2.27
3.09
3.82
4.43
4.83
4.92
4.61
3.84
2.62
1.05
-0.73
-2.56
-4.32
-5.94
-7.44
-8.89
-10.40
-12.04
-13.93
-16.11
-18.51
-20.93
-22.92
-23.93
-23.43
-21.17
-17.31
-12.34
-7.03
-2.07
2.05
5.16
7.29
8.50
8.80
8.17
6.59
4.28
1.70
-0.52
-1.84
-2.05
-1.33
-0.19
0.85
1.50
1.83
2.11
2.59
3.29
3.91
4.05
3.40
1.96
0.03
-1.94
-3.58
-4.80
-5.77
-6.80
-8.20
-10.14
-12.56
-15.24
-17.85
-19.99
-21.29
-21.41
-20.16
-17.50
-13.61
-8.85
-3.67
1.45
6.12
10.02
12.90
14.60
15.09
14.47
13.01
11.12
9.17
7.53
6.44
6.03
6.37
7.39
8.97
10.84
12.68
14.21
15.21
15.62
15.47
14.86
13.89
12.65
11.18
9.61
8.05
6.62
5.43
4.48
3.68
2.85
1.74
0.16
-1.99
-4.59
-7.31
-9.65
-11.07
-11.17
-9.80
-7.11
-3.45
0.76
5.16
9.47
13.47
16.92
19.51
20.99
21.20
20.24
18.43
16.25
14.16
12.49
11.43
10.95
10.94
11.29
11.92
12.77
13.76
14.75
15.46
15.62
14.99
13.52
11.42
9.03
6.78
4.91
3.47
2.25
0.96
-0.59
-2.46
-4.48
-6.52
-8.49
-10.42
-12.40
-14.39
-16.11
-17.10
-16.87
-15.16
-12.07
-8.08
-3.83
0.12
3.50
6.26
8.50
10.19
11.14
11.09
9.88
7.61
4.71
1.77
-0.67
-2.26
-2.96
-2.89
-2.30
-1.37
-0.22
1.01
2.19
3.10
3.57
3.47
2.83
1.77
0.50
-0.82
-2.08
-3.29
-4.54
-5.91
-7.46
-9.18
-11.04
-13.02
-15.08
-17.18
-19.16
-20.71
-21.42
-20.89
-18.86
-15.37
-10.75
-5.60
-0.61
3.61
6.62
8.26
8.60
7.88
6.42
4.53
2.49
0.53
-1.17
-2.45
-3.18
-3.39
-3.20
-2.77
-2.26
-1.71
-1.06
-0.25
0.66
1.45
1.74
1.21
-0.27
-2.54
-5.25
-7.93
-10.20
-11.92
-13.14
-14.12
-15.24
-16.74
-18.61
-20.52
-21.88
-22.17
-21.08
-18.64
-15.14
-10.99
-6.52
-1.99
2.34
6.06
8.74
10.02
9.85
8.62
7.01
5.73
5.21
5.46
6.12
6.72
6.96
6.83
6.61
6.60
7.03
7.68
8.14
7.95
6.86
5.02
2.91
1.11
-0.00
-0.47
-0.71
-1.23
-2.39
-4.20
-6.43
-8.75
-10.92
-12.97
-14.96
-16.85
-18.35
-18.93
-18.06
-15.49
-11.38
-6.33
-1.19
3.33
6.82
9.25
10.81
11.75
12.22
12.26
11.85
11.01
9.87
8.66
7.61
6.93
6.74
7.06
7.82
8.81
9.78
10.46
10.63
10.20
9.29
8.03
6.60
5.08
3.46
1.72
-0.09
-1.88
-3.52
-4.92
-6.16
-7.38
-8.82
-10.69
-13.00
-15.58
-18.00
-19.70
-20.16
-19.10
-16.56
-12.89
-8.62
-4.27
-0.21
3.39
6.45
8.92
10.69
11.59
11.59
10.79
9.54
8.25
7.29
6.84
6.92
7.38
8.03
8.74
9.45
10.15
10.82
11.35
11.59
11.35
10.54
9.19
7.49
5.72
4.13
2.85
1.84
0.90
-0.16
-1.48
-3.10
-5.01
-7.23
-9.77
-12.56
-15.33
-17.61
-18.79
-18.38
-16.21
-12.56
-8.03
-3.31
1.02
4.64
7.44
9.43
10.61
10.95
10.49
9.37
7.86
6.30
4.99
4.11
3.71
3.72
4.02
4.49
5.01
5.50
5.89
6.14
6.21
6.06
5.66
4.97
3.99
2.77
1.48
0.29
-0.71
-1.55
-2.41
-3.49
-4.99
-6.93
-9.15
-11.38
-13.32
-14.68
-15.20
-14.69
-13.02
-10.18
-6.32
-1.75
3.04
7.53
11.26
13.89
15.30
15.52
14.69
13.02
10.70
7.99
5.20
2.72
0.95
0.22
0.57
1.78
3.31
4.55
5.04
4.69
3.77
2.76
2.08
1.87
1.90
1.74
0.99
-0.48
-2.46
-4.60
-6.54
-8.16
-9.63
-11.28
-13.39
-15.94
-18.60
-20.81
-21.91
-21.44
-19.29
-15.68
-11.09
-6.08
-1.15
3.40
7.40
10.71
13.19
14.62
14.82
13.78
11.79
9.34
7.06
5.50
4.87
5.09
5.80
6.58
7.14
7.36
7.38
7.39
7.52
7.76
7.89
7.64
6.75
5.10
2.82
0.18
-2.40
-4.55
-6.10
-7.07
-7.72
-8.40
-9.43
-10.96
-12.91
-15.02
-16.85
-17.99
-18.06
-16.87
-14.40
-10.79
-6.36
-1.54
3.16
7.24
10.28
12.02
12.49
11.94
10.77
9.41
8.13
7.03
6.09
5.29
4.71
4.52
4.92
5.94
7.42
9.05
10.52
11.62
12.34
12.76
12.99
13.05
12.88
12.37
11.46
10.18
8.63
7.00
5.48
4.15
2.99
1.83
0.45
-1.37
-3.72
-6.51
-9.45
-12.15
-14.18
-15.21
-15.03
-13.59
-11.03
-7.59
-3.64
0.41
4.13
7.18
9.32
10.38
10.37
9.40
7.70
5.59
3.47
1.69
0.48
-0.04
-0.04
0.24
0.52
0.60
0.50
0.31
0.19
0.21
0.30
0.26
-0.07
-0.79
-1.85
-3.07
-4.30
-5.42
-6.46
-7.49
-8.60
-9.83
-11.20
-12.76
-14.57
-16.64
-18.86
-20.87
-22.10
-21.99
-20.13
-16.56
-11.71
-6.29
-1.02
3.60
7.32
10.12
12.00
12.93
12.84
11.72
9.72
7.24
4.84
2.98
1.98
1.78
2.10
2.57
2.93
3.13
3.33
3.67
4.18
4.70
4.91
4.51
3.39
1.67
-0.30
-2.16
-3.68
-4.86
-5.90
-7.06
-8.49
-10.16
-11.93
-13.69
-15.44
-17.26
-19.14
-20.83
-21.84
-21.57
-19.59
-15.89
-10.92
-5.43
-0.24
4.09
7.30
9.49
10.88
11.65
11.81
11.28
10.05
8.21
6.13
4.30
3.18
3.02
3.77
5.11
6.66
8.11
9.35
10.43
11.42
12.34
13.09
13.48
13.32
12.51
11.11
9.31
7.36
5.48
3.81
2.28
0.72
-1.08
-3.24
-5.78
-8.62
-11.59
-14.49
-17.04
-18.87
-19.58
-18.76
-16.27
-12.25
-7.25
-2.00
2.77
6.59
9.28
10.95
11.75
11.77
11.07
9.70
7.87
5.99
4.47
3.67
3.62
4.11
4.79
5.44
6.00
6.65
7.55
8.75
9.98
10.87
11.07
10.45
9.19
7.62
6.04
4.63
3.23
1.63
-0.38
-2.82
-5.50
-8.11
-10.42
-12.40
-14.35
-16.60
-19.35
-22.35
-24.89
-26.02
-24.99
-21.66
-16.72
-11.33
-6.67
-3.40
-1.42
-0.09
1.26
2.89
4.39
5.07
4.33
2.17
-0.76
-3.49
-5.16
-5.42
-4.57
-3.23
-2.03
-1.25
-0.79
-0.33
0.40
1.45
2.53
3.25
3.21
2.29
0.64
-1.33
-3.18
-4.58
-5.53
-6.28
-7.22
-8.71
-10.91
-13.76
-17.02
-20.30
-23.15
-25.06
-25.56
-24.27
-21.11
-16.29
-10.39
-4.12
1.81
6.89
10.78
13.33
14.51
14.38
13.16
11.20
9.01
7.09
5.81
5.37
5.75
6.82
8.30
9.95
11.51
12.82
13.75
14.24
14.29
13.87
12.97
11.57
9.75
7.64
5.48
3.49
1.81
0.39
-0.93
-2.38
-4.14
-6.25
-8.71
-11.44
-14.31
-17.07
-19.31
-20.48
-20.02
-17.66
-13.49
-8.05
-2.15
3.44
8.14
11.72
14.17
15.60
16.09
15.67
14.40
12.50
10.38
8.54
7.41
7.21
7.83
8.96
10.19
11.24
12.03
12.63
13.14
13.56
13.71
13.34
12.27
10.46
8.11
5.55
3.12
1.10
-0.47
-1.71
-2.85
-4.12
-5.66
-7.50
-9.59
-11.84
-14.16
-16.35
-18.13
-19.09
-18.78
-16.86
-13.28
-8.41
-2.89
2.50
7.11
10.55
12.76
13.86
13.99
13.24
11.67
9.41
6.79
4.32
2.58
2.00
2.63
4.17
6.03
7.66
8.76
9.35
9.67
9.99
10.38
10.67
10.54
9.69
8.03
5.73
3.13
0.61
-1.64
-3.64
-5.56
-7.61
-9.93
-12.52
-15.24
-17.89
-20.26
-22.11
-23.13
-23.02
-21.48
-18.39
-13.94
-8.59
-3.12
1.72
5.37
7.63
8.64
8.74
8.23
7.33
6.09
4.53
2.84
1.35
0.48
0.56
1.62
3.41
5.42
7.15
8.29
8.82
8.95
8.89
8.79
8.56
8.01
6.94
5.32
3.37
1.43
-0.21
-1.41
-2.29
-3.21
-4.57
-6.69
-9.65
-13.25
-17.01
-20.25
-22.21
-22.32
-20.32
-16.40
-11.16
-5.36
0.21
5.00
8.76
11.44
13.07
13.67
13.27
11.97
10.03
7.88
6.05
4.98
4.88
5.66
7.00
8.47
9.71
10.52
10.95
11.14
11.24
11.29
11.21
10.81
9.94
8.55
6.79
4.87
3.02
1.35
-0.16
-1.62
-3.21
-5.09
-7.37
-10.08
-13.14
-16.31
-19.13
-20.99
-21.32
-19.76
-16.29
-11.34
-5.60
0.11
5.10
8.91
11.34
12.43
12.33
11.31
9.67
7.78
5.95
4.49
3.60
3.39
3.81
4.73
5.92
7.12
8.12
8.82
9.26
9.53
9.75
9.92
9.94
9.60
8.70
7.21
5.24
3.10
1.16
-0.35
-1.41
-2.26
-3.31
-5.00
-7.55
-10.88
-14.57
-17.98
-20.39
-21.27
-20.36
-17.71
-13.61
-8.49
-2.81
2.90
8.14
12.42
15.36
16.77
16.73
15.53
13.66
11.59
9.70
8.28
7.44
7.26
7.71
8.69
10.04
11.49
12.79
13.73
14.19
14.16
13.71
12.96
12.00
10.93
9.76
8.49
7.08
5.49
3.74
1.90
0.11
-1.48
-2.81
-3.98
-5.26
-6.99
-9.35
-12.26
-15.23
-17.51
-18.33
-17.21
-14.18
-9.72
-4.60
0.43
4.82
8.24
10.54
11.64
11.50
10.17
7.89
5.05
2.20
-0.14
-1.61
-2.07
-1.58
-0.31
1.54
3.76
6.17
8.57
10.74
12.43
13.38
13.35
12.25
10.18
7.44
4.46
1.63
-0.77
-2.69
-4.24
-5.62
-6.98
-8.42
-10.01
-11.80
-13.89
-16.29
-18.87
-21.29
-22.96
-23.27
-21.78
-18.41
-13.54
-7.89
-2.29
2.60
6.41
9.14
10.95
11.97
12.23
11.63
10.12
7.87
5.34
3.08
1.63
1.18
1.65
2.67
3.88
4.98
5.86
6.44
6.56
6.07
4.78
2.65
-0.09
-3.07
-5.80
-7.94
-9.35
-10.20
-10.79
-11.52
-12.64
-14.20
-15.99
-17.79
-19.41
-20.84
-22.23
-23.64
-24.90
-25.53
-24.84
-22.40
-18.20
-12.78
-6.98
-1.58
3.02
6.76
9.72
11.86
12.87
12.41
10.40
7.26
3.87
1.18
-0.15
-0.12
0.81
2.00
3.05
4.01
5.23
7.00
9.32
11.68
13.45
14.13
13.67
12.50
11.20
10.16
9.38
8.43
6.82
4.35
1.23
-1.96
-4.62
-6.43
-7.51
-8.35
-9.53
-11.34
-13.57
-15.65
-16.78
-16.34
-14.09
-10.26
-5.43
-0.30
4.47
8.39
11.24
12.95
13.62
13.40
12.45
10.91
8.99
6.90
4.95
3.48
2.81
3.04
4.02
5.40
6.70
7.56
7.79
7.47
6.80
5.96
5.04
4.02
2.78
1.25
-0.54
-2.46
-4.30
-5.83
-6.93
-7.63
-8.11
-8.68
-9.62
-11.08
-13.02
-15.23
-17.38
-19.11
-20.09
-20.04
-18.73
-16.05
-12.06
-7.06
-1.52
3.96
8.79
12.55
15.07
16.36
16.57
15.89
14.45
12.41
10.01
7.56
5.47
4.10
3.60
3.93
4.75
5.67
6.34
6.59
6.46
6.11
5.67
5.14
4.36
3.14
1.43
-0.67
-2.86
-4.84
-6.36
-7.41
-8.12
-8.72
-9.44
-10.46
-11.85
-13.61
-15.62
-17.60
-19.17
-19.89
-19.42
-17.62
-14.64
-10.84
-6.73
-2.80
0.54
3.05
4.62
5.26
5.05
4.15
2.75
1.13
-0.40
-1.49
-1.88
-1.43
-0.21
1.62
3.79
6.11
8.40
10.57
12.49
14.00
14.98
15.36
15.16
14.45
13.31
11.74
9.74
7.33
4.65
1.94
-0.57
-2.81
-4.95
-7.36
-10.43
-14.31
-18.77
-23.19
-26.72
-28.62
-28.46
-26.24
-22.39
-17.51
-12.28
-7.23
-2.75
0.89
3.52
5.01
5.36
4.77
3.60
2.31
1.34
0.94
1.20
2.01
3.24
4.79
6.56
8.47
10.36
11.97
13.00
13.23
12.68
11.57
10.31
9.30
8.77
8.68
8.73
8.56
7.93
6.87
5.62
4.49
3.67
3.06
2.37
1.31
-0.20
-1.93
-3.44
-4.28
-4.15
-3.07
-1.26
0.98
3.39
5.81
8.09
10.00
11.26
11.53
10.60
8.44
5.33
1.81
-1.50
-4.05
-5.57
-6.17
-6.24
-6.28
-6.64
-7.37
-8.24
-8.94
-9.27
-9.20
-8.92
-8.60
-8.37
-8.19
-8.01
-7.85
-7.86
-8.24
-9.17
-10.64
-12.46
-14.31
-15.86
-16.91
-17.37
-17.39
-17.22
-17.18
-17.59
-18.54
-19.81
-20.91
-21.17
-19.99
-17.08
-12.60
-7.09
-1.28
4.19
8.90
12.68
15.52
17.39
18.22
17.90
16.45
14.11
11.36
8.80
6.98
6.21
6.45
7.38
8.54
9.54
10.13
10.26
9.96
9.29
8.26
6.91
5.31
3.58
1.87
0.36
-0.81
-1.58
-1.96
-2.05
-2.04
-2.13
-2.54
-3.42
-4.84
-6.77
-9.08
-11.48
-13.51
-14.61
-14.21
-11.91
-7.66
-1.86
4.74
11.22
16.76
20.86
23.39
24.54
24.62
23.96
22.85
21.50
20.12
18.87
17.86
17.05
16.21
14.93
12.78
9.44
4.88
-0.60
-6.49
-12.25
-17.47
-21.92
-25.39
-27.69
-28.54
-27.75
-25.48
-22.34
-19.26
-17.15
-16.53
-17.34
-19.15
-21.42
-23.80
-26.14
-28.24
-29.65
-29.63
-27.53
-23.11
-16.79
-9.45
-2.03
4.82
10.93
16.33
21.07
25.03
27.98
29.81
30.62
30.70
30.37
29.80
29.05
28.07
26.80
25.24
23.38
21.24
18.86
16.30
13.67
11.07
8.50
5.90
3.22
0.50
-2.09
-4.34
-6.11
-7.38
-8.32
-9.14
-10.05
-11.18
-12.53
-14.12
-15.91
-17.83
-19.75
-21.34
-22.13
-21.60
-19.41
-15.55
-10.45
-4.87
0.35
4.55
7.45
9.16
10.01
10.41
10.63
10.75
10.78
10.63
10.33
9.94
9.64
9.57
9.84
10.43
11.15
11.81
12.23
12.31
12.08
11.53
10.55
9.00
6.78
4.01
1.04
-1.61
-3.58
-4.76
-5.40
-5.99
-7.03
-8.86
-11.51
-14.75
-18.15
-21.18
-23.24
-23.80
-22.47
-19.18
-14.30
-8.52
-2.69
2.45
6.43
9.17
10.85
11.75
12.07
11.83
10.99
9.50
7.52
5.42
3.70
2.82
2.99
4.11
5.79
7.59
9.14
10.24
10.83
10.93
10.50
9.51
7.96
5.99
3.83
1.81
0.14
-1.19
-2.49
-4.26
-6.98
-10.76
-15.19
-19.30
-22.00
-22.41
-20.35
-16.35
-11.33
-6.17
-1.37
2.97
6.96
10.55
13.36
14.88
14.77
13.12
10.50
7.73
5.50
4.16
3.52
3.18
2.82
2.41
2.23
2.61
3.69
5.24
6.67
7.38
7.03
5.69
3.82
1.94
0.41
-0.77
-1.91
-3.38
-5.44
-8.03
-10.78
-13.18
-14.66
-14.72
-13.14
-9.97
-5.57
-0.53
4.46
8.74
11.90
13.81
14.58
14.45
13.64
12.33
10.60
8.65
6.77
5.34
4.69
4.95
5.99
7.39
8.70
9.57
9.89
9.78
9.44
9.05
8.60
7.93
6.88
5.33
3.39
1.30
-0.61
-2.11
-3.16
-3.88
-4.57
-5.53
-6.98
-8.99
-11.52
-14.39
-17.36
-20.12
-22.24
-23.29
-22.82
-20.54
-16.48
-11.01
-4.87
1.06
6.04
9.57
11.59
12.33
12.15
11.34
10.09
8.46
6.48
4.31
2.19
0.49
-0.51
-0.64
0.00
1.10
2.22
2.92
2.96
2.34
1.28
0.11
-0.89
-1.64
-2.27
-3.02
-4.17
-5.86
-8.08
-10.67
-13.40
-15.96
-18.01
-19.14
-18.95
-17.11
-13.55
-8.57
-2.83
2.79
7.50
10.80
12.62
13.18
12.83
11.86
10.37
8.37
5.93
3.28
0.79
-1.12
-2.18
-2.40
-2.01
-1.44
-1.03
-1.00
-1.33
-1.84
-2.35
-2.76
-3.16
-3.73
-4.69
-6.17
-8.20
-10.60
-13.12
-15.43
-17.15
-17.96
-17.56
-15.82
-12.74
-8.56
-3.70
1.26
5.75
9.31
11.70
12.90
13.03
12.34
11.05
9.33
7.38
5.39
3.65
2.44
1.96
2.24
3.03
3.98
4.75
5.13
5.15
4.97
4.73
4.47
3.99
3.08
1.57
-0.45
-2.66
-4.66
-6.14
-7.04
-7.64
-8.39
-9.72
-11.84
-14.58
-17.47
-19.84
-21.10
-20.91
-19.23
-16.32
-12.57
-8.36
-4.02
0.15
3.93
7.01
9.08
9.90
9.40
7.72
5.24
2.45
-0.12
-2.10
-3.28
-3.66
-3.36
-2.56
-1.47
-0.28
0.87
1.87
2.59
2.95
2.86
2.25
1.13
-0.42
-2.25
-4.22
-6.24
-8.33
-10.57
-13.05
-15.71
-18.26
-20.21
-21.02
-20.28
-17.93
-14.28
-9.91
-5.47
-1.46
1.85
4.41
6.22
7.22
7.30
6.39
4.59
2.28
-0.00
-1.70
-2.49
-2.38
-1.68
-0.84
-0.27
-0.12
-0.33
-0.72
-1.05
-1.26
-1.45
-1.84
-2.68
-4.11
-6.13
-8.58
-11.20
-13.72
-15.86
-17.33
-17.81
-17.05
-14.93
-11.52
-7.12
-2.24
2.59
6.89
10.34
12.75
14.08
14.38
13.79
12.56
10.98
9.36
7.94
6.86
6.20
5.95
6.09
6.59
7.33
8.18
8.93
9.40
9.46
9.06
8.22
7.04
5.59
3.94
2.17
0.33
-1.50
-3.29
-5.07
-6.93
-9.02
-11.45
-14.17
-16.91
-19.15
-20.25
-19.63
-17.05
-12.71
-7.21
-1.38
4.08
8.70
12.34
15.03
16.82
17.66
17.41
16.11
13.96
11.40
8.95
7.00
5.72
5.00
4.66
4.54
4.61
4.89
5.39
6.01
6.51
6.64
6.22
5.20
3.67
1.86
-0.02
-1.81
-3.45
-5.03
-6.70
-8.58
-10.65
-12.68
-14.25
-14.89
-14.25
-12.21
-8.95
-4.89
-0.59
3.45
6.82
9.26
10.66
11.01
10.41
8.98
6.95
4.64
2.43
0.67
-0.35
-0.55
-0.08
0.71
1.46
1.90
1.95
1.71
1.35
0.93
0.38
-0.41
-1.57
-3.06
-4.75
-6.49
-8.23
-10.04
-11.99
-14.09
-16.02
-17.26
-17.20
-15.44
-11.97
-7.21
-1.79
3.59
8.48
12.62
15.93
18.33
19.70
19.90
18.90
16.85
14.17
11.41
9.10
7.59
6.98
7.14
7.82
8.77
9.80
10.84
11.82
12.59
12.93
12.57
11.39
9.48
7.20
5.03
3.34
2.23
1.45
0.55
-0.85
-2.90
-5.45
-8.14
-10.49
-12.11
-12.72
-12.15
-10.25
-7.04
-2.64
2.52
7.81
12.55
16.19
18.51
19.67
20.08
20.17
20.11
19.83
19.06
17.64
15.64
13.41
11.36
9.76
8.53
7.39
6.04
4.46
2.95
2.02
2.06
3.12
4.79
6.43
7.49
7.72
7.24
6.33
5.20
3.81
1.88
-0.82
-4.17
-7.60
-10.19
-11.09
-9.85
-6.69
-2.40
2.00
5.66
8.20
9.72
10.50
10.81
10.68
9.98
8.62
6.77
4.84
3.43
2.93
3.40
4.52
5.72
6.46
6.48
5.88
4.95
4.03
3.31
2.78
2.30
1.73
1.03
0.22
-0.62
-1.50
-2.50
-3.72
-5.30
-7.25
-9.47
-11.67
-13.49
-14.53
-14.49
-13.21
-10.79
-7.53
-3.84
-0.15
3.19
5.96
8.03
9.31
9.75
9.37
8.27
6.69
4.88
3.16
1.76
0.83
0.41
0.39
0.57
0.72
0.65
0.26
-0.46
-1.37
-2.37
-3.32
-4.17
-4.90
-5.53
-6.13
-6.80
-7.67
-8.85
-10.32
-11.91
-13.29
-14.07
-13.92
-12.69
-10.39
-7.24
-3.56
0.25
3.75
6.54
8.29
8.89
8.48
7.38
6.01
4.76
3.80
3.15
2.67
2.19
1.65
1.10
0.70
0.60
0.87
1.40
1.93
2.14
1.80
0.86
-0.58
-2.29
-4.03
-5.65
-7.03
-8.17
-9.05
-9.74
-10.39
-11.28
-12.68
-14.72
-17.26
-19.83
-21.76
-22.39
-21.37
-18.73
-14.89
-10.44
-5.94
-1.78
1.88
4.97
7.42
9.12
9.92
9.76
8.78
7.26
5.59
4.14
3.17
2.75
2.83
3.26
3.87
4.53
5.15
5.68
6.05
6.18
5.99
5.42
4.45
3.16
1.65
0.01
-1.67
-3.43
-5.33
-7.45
-9.81
-12.25
-14.43
-15.89
-16.20
-15.08
-12.55
-8.99
-4.94
-0.98
2.49
5.24
7.20
8.41
8.90
8.72
7.96
6.78
5.38
3.96
2.68
1.65
0.99
0.82
1.21
2.09
3.26
4.37
5.04
5.02
4.26
2.92
1.29
-0.37
-1.85
-3.11
-4.23
-5.30
-6.42
-7.68
-9.12
-10.71
-12.33
-13.78
-14.77
-15.04
-14.36
-12.65
-10.01
-6.69
-3.06
0.47
3.54
5.91
7.47
8.22
8.24
7.64
6.60
5.29
3.94
2.81
2.12
2.01
2.49
3.37
4.42
5.34
5.91
5.96
5.48
4.51
3.23
1.89
0.75
0.03
-0.26
-0.30
-0.51
-1.28
-2.83
-5.00
-7.30
-9.04
-9.66
-8.88
-6.82
-3.84
-0.40
3.08
6.29
8.91
10.67
11.32
10.75
9.10
6.77
4.28
2.15
0.68
-0.13
-0.50
-0.75
-1.15
-1.77
-2.58
-3.36
-3.94
-4.23
-4.20
-3.93
-3.52
-3.12
-2.89
-2.98
-3.52
-4.52
-5.84
-7.29
-8.67
-9.89
-11.07
-12.42
-14.15
-16.24
-18.42
-20.23
-21.13
-20.77
-19.06
-16.13
-12.34
-8.11
-3.85
0.06
3.26
5.49
6.59
6.55
5.55
3.90
1.94
0.01
-1.62
-2.78
-3.34
-3.24
-2.56
-1.48
-0.29
0.65
1.09
0.93
0.27
-0.63
-1.52
-2.26
-2.89
-3.59
-4.56
-5.88
-7.53
-9.33
-11.15
-12.89
-14.48
-15.79
-16.55
-16.38
-14.91
-12.02
-7.93
-3.20
1.50
5.58
8.78
11.09
12.61
13.40
13.40
12.51
10.78
8.52
6.28
4.66
4.02
4.46
5.72
7.38
9.03
10.32
11.06
11.14
10.48
9.06
6.95
4.35
1.53
-1.20
-3.57
-5.43
-6.71
-7.48
-7.92
-8.28
-8.89
-10.03
-11.84
-14.16
-16.55
-18.38
-19.06
-18.26
-16.05
-12.84
-9.24
-5.84
-3.07
-1.10
0.01
0.35
0.01
-0.90
-2.20
-3.63
-4.87
-5.58
-5.50
-4.52
-2.78
-0.60
1.59
3.39
4.54
5.03
4.99
4.63
4.10
3.45
2.65
1.65
0.48
-0.83
-2.20
-3.62
-5.12
-6.70
-8.27
-9.55
-10.13
-9.60
-7.71
-4.51
-0.40
3.98
7.93
10.88
12.52
12.94
12.41
11.30
9.88
8.30
6.59
4.82
3.16
1.86
1.16
1.15
1.70
2.56
3.42
4.12
4.62
4.97
5.18
5.19
4.89
4.18
3.07
1.70
0.28
-0.95
-1.92
-2.69
-3.49
-4.58
-6.17
-8.22
-10.36
-12.05
-12.64
-11.63
-8.85
-4.51
0.92
6.84
12.72
18.03
22.37
25.43
26.98
26.99
25.63
23.31
20.52
17.73
15.31
13.49
12.48
12.47
13.55
15.63
18.33
20.93
22.62
22.84
21.43
18.82
15.72
12.79
10.33
8.05
5.39
1.80
-2.90
-8.36
-13.81
-18.49
-21.81
-23.69
-24.30
-23.84
-22.35
-19.68
-15.68
-10.47
-4.61
0.92
5.09
7.23
7.28
5.81
3.67
1.66
0.22
-0.63
-1.12
-1.43
-1.63
-1.59
-1.19
-0.38
0.80
2.17
3.51
4.62
5.31
5.43
4.95
3.95
2.68
1.41
0.33
-0.62
-1.66
-3.13
-5.25
-8.00
-11.05
-13.88
-15.90
-16.48
-15.19
-11.83
-6.57
-0.03
6.89
13.19
18.08
21.21
22.66
22.82
22.11
20.81
19.03
16.87
14.50
12.20
10.30
9.01
8.40
8.36
8.70
9.24
9.77
10.10
10.06
9.55
8.61
7.41
6.17
4.96
3.70
2.12
-0.02
-2.83
-6.12
-9.51
-12.51
-14.66
-15.62
-15.19
-13.30
-10.07
-5.86
-1.20
3.29
7.11
9.95
11.77
12.70
12.90
12.51
11.64
10.42
9.10
8.01
7.46
7.57
8.21
9.05
9.76
10.15
10.20
10.02
9.67
9.06
7.93
6.04
3.30
-0.03
-3.40
-6.17
-7.85
-8.34
-7.97
-7.34
-7.15
-7.89
-9.69
-12.29
-15.17
-17.74
-19.46
-20.00
-19.16
-16.86
-13.06
-7.84
-1.45
5.59
12.48
18.34
22.44
24.42
24.40
22.85
20.41
17.69
15.10
12.90
11.19
10.04
9.39
9.10
8.94
8.65
8.03
6.97
5.44
3.44
0.93
-2.15
-5.71
-9.48
-12.99
-15.74
-17.37
-17.89
-17.68
-17.29
-17.32
-18.17
-20.00
-22.66
-25.69
-28.37
-29.80
-29.19
-26.04
-20.46
-13.14
-5.14
2.50
9.07
14.31
18.28
21.13
22.83
23.19
22.00
19.26
15.30
10.69
6.16
2.38
-0.12
-1.07
-0.43
1.49
4.16
6.77
8.60
9.15
8.41
6.78
4.95
3.53
2.87
2.92
3.33
3.68
3.61
2.99
1.85
0.36
-1.27
-2.94
-4.61
-6.36
-8.36
-10.76
-13.60
-16.65
-19.37
-21.07
-21.07
-19.05
-15.17
-9.99
-4.32
1.14
5.99
10.05
13.26
15.53
16.65
16.45
14.92
12.32
9.17
6.06
3.51
1.79
0.95
0.83
1.20
1.81
2.49
3.11
3.58
3.81
3.66
3.05
1.96
0.52
-0.97
-2.19
-2.92
-3.18
-3.19
-3.23
-3.49
-3.94
-4.39
-4.67
-4.85
-5.24
-6.32
-8.40
-11.49
-15.16
-18.67
-21.24
-22.19
-21.18
-18.22
-13.64
-8.03
-2.15
3.29
7.75
10.96
12.91
13.77
13.65
12.65
10.84
8.42
5.77
3.43
1.91
1.50
2.16
3.52
5.10
6.46
7.36
7.81
7.94
7.94
7.92
7.84
7.53
6.81
5.56
3.78
1.60
-0.75
-3.03
-5.07
-6.85
-8.45
-9.99
-11.59
-13.38
-15.44
-17.86
-20.62
-23.51
-26.06
-27.52
-27.16
-24.45
-19.45
-12.81
-5.59
1.11
6.50
10.27
12.56
13.75
14.13
13.89
13.07
11.70
9.97
8.22
6.81
6.04
5.97
6.49
7.34
8.27
9.15
9.94
10.63
11.19
11.45
11.21
10.29
8.71
6.71
4.63
2.82
1.46
0.52
-0.26
-1.18
-2.45
-4.10
-6.02
-7.99
-9.79
-11.33
-12.65
-13.97
-15.52
-17.52
-19.99
-22.72
-25.20
-26.75
-26.68
-24.49
-20.06
-13.72
-6.21
1.51
8.55
14.28
18.50
21.35
23.20
24.45
25.32
25.90
26.20
26.30
26.45
27.04
28.42
30.77
34.00
37.79
41.76
45.62
49.24
52.70
56.16
59.75
63.50
67.28
70.81
73.61
75.02
74.38
71.18
65.27
57.02
47.27
37.05
27.34
18.78
11.55
5.49
0.24
-4.55
-9.10
-13.46
-17.52
-21.06
-23.81
-25.54
-26.12
-25.63
-24.33
-22.63
-21.04
-19.97
-19.73
-20.41
-21.98
-24.27
-27.18
-30.66
-34.72
-39.33
-44.28
-49.20
-53.57
-57.00
-59.39
-61.02
-62.41
-64.02
-65.99
-68.04
-69.68
-70.45
-70.18
-69.09
-67.56
-65.85
-63.96
-61.60
-58.40
-54.20
-49.27
-44.17
-39.65
-36.32
-34.52
-34.25
-35.20
-36.78
-38.26
-38.80
-37.63
-34.19
-28.39
-20.62
-11.84
-3.20
4.18
9.62
13.04
14.99
16.38
18.18
21.01
24.94
29.44
33.65
36.74
38.27
38.29
37.26
35.67
33.79
31.59
28.91
25.72
22.23
18.92
16.24
14.34
13.07
12.10
11.23
10.46
9.98
9.91
10.10
10.06
9.33
7.70
5.52
3.50
2.47
2.90
4.75
7.45
10.25
12.56
14.09
14.82
14.85
14.21
12.91
10.92
8.38
5.58
3.01
1.08
0.07
-0.05
0.49
1.34
2.15
2.75
3.08
3.24
3.29
3.27
3.10
2.67
1.92
0.93
-0.13
-1.04
-1.60
-1.79
-1.67
-1.38
-1.05
-0.77
-0.64
-0.78
-1.37
-2.52
-4.25
-6.31
-8.15
-9.05
-8.27
-5.36
-0.25
6.66
14.66
22.95
30.79
37.60
43.05
46.93
49.28
50.33
50.53
50.54
51.03
52.51
55.10
58.37
61.38
63.04
62.48
59.41
54.22
47.70
40.58
33.16
25.23
16.45
6.74
-3.33
-12.65
-20.01
-24.58
-26.24
-25.49
-23.14
-19.99
-16.62
-13.38
-10.48
-8.08
-6.21
-4.82
-3.71
-2.56
-0.96
1.53
5.22
10.16
15.96
21.72
26.20
28.19
26.89
22.18
14.58
4.90
-6.09
-17.82
-29.82
-41.50
-52.17
-61.18
-68.17
-73.31
-77.07
-79.94
-82.04
-83.07
-82.52
-80.13
-76.18
-71.49
-67.06
-63.57
-60.83
-57.64
-51.95
-41.70
-25.61
-3.95
21.34
47.23
70.71
89.81
103.94
113.47
118.86
119.97
115.90
105.61
88.80
66.46
40.75
14.38
-10.31
-31.96
-50.22
-65.30
-77.32
-85.92
-90.52
-90.92
-87.90
-83.47
-80.20
-80.14
-83.66
-89.08
-93.25
-92.89
-86.09
-73.05
-55.88
-37.61
-21.00
-7.79
1.32
6.25
7.08
3.84
-3.24
-13.39
-25.07
-36.15
-44.48
-48.57
-48.00
-43.44
-36.31
-28.18
-20.37
-13.70
-8.61
-5.31
-3.83
-4.09
-5.78
-8.39
-11.22
-13.59
-15.01
-15.22
-14.15
-11.88
-8.56
-4.45
0.05
4.35
7.77
9.72
9.95
8.64
6.37
3.88
1.86
0.68
0.36
0.57
0.79
0.49
-0.65
-2.68
-5.23
-7.65
-9.16
-9.11
-7.08
-3.05
2.71
9.65
17.09
24.27
30.45
35.06
37.72
38.41
37.38
35.10
32.10
28.85
25.74
23.01
20.88
19.48
18.85
18.86
19.20
19.48
19.29
18.35
16.55
13.96
10.79
7.27
3.62
-0.01
-3.50
-6.82
-9.98
-13.06
-16.17
-19.35
-22.53
-25.31
-27.09
-27.16
-25.01
-20.55
-14.26
-7.04
0.03
6.07
10.54
13.34
14.56
14.42
13.09
10.78
7.77
4.54
1.65
-0.36
-1.17
-0.85
0.23
1.52
2.58
3.23
3.65
4.11
4.86
5.83
6.61
6.65
5.57
3.37
0.48
-2.44
-4.84
-6.54
-7.72
-8.85
-10.31
-12.27
-14.68
-17.34
-19.93
-22.12
-23.46
-23.41
-21.46
-17.37
-11.32
-4.00
3.57
10.33
15.52
18.80
20.25
20.17
18.95
16.88
14.23
11.30
8.52
6.39
5.37
5.67
7.16
9.37
11.68
13.50
14.47
14.51
13.75
12.43
10.80
9.03
7.27
5.54
3.82
1.97
-0.14
-2.69
-5.78
-9.38
-13.32
-17.19
-20.43
-22.39
-22.46
-20.27
-15.81
-9.52
-2.18
5.22
11.76
16.79
20.01
21.45
21.44
20.37
18.69
16.78
15.01
13.72
13.13
13.38
14.38
15.90
17.56
19.05
20.19
20.93
21.36
21.52
21.39
20.81
19.59
17.67
15.13
12.24
9.38
6.87
4.86
3.29
1.91
0.30
-1.90
-4.90
-8.65
-12.70
-16.29
-18.54
-18.69
-16.36
-11.70
-5.34
1.78
8.73
14.78
19.52
22.83
24.72
25.26
24.54
22.77
20.33
17.77
15.74
14.71
14.86
15.96
17.52
19.01
20.04
20.50
20.55
20.41
20.25
20.09
19.80
19.21
18.20
16.76
14.97
12.95
10.81
8.61
6.40
4.24
2.18
0.24
-1.64
-3.66
-6.06
-8.98
-12.32
-15.68
-18.40
-19.82
-19.41
-16.98
-12.74
-7.13
-0.84
5.41
10.95
15.20
17.83
18.77
18.27
16.81
14.91
13.05
11.52
10.45
9.90
9.82
10.19
10.94
11.92
12.98
13.87
14.40
14.45
14.00
13.19
12.16
11.06
9.93
8.69
7.22
5.42
3.40
1.42
-0.25
-1.45
-2.31
-3.23
-4.72
-7.14
-10.56
-14.64
-18.71
-22.03
-23.89
-23.92
-22.07
-18.59
-13.93
-8.62
-3.21
1.83
6.07
9.18
10.97
11.42
10.72
9.25
7.48
5.87
4.83
4.53
5.03
6.17
7.72
9.33
10.71
11.66
12.17
12.29
12.08
11.59
10.73
9.43
7.65
5.49
3.18
1.00
-0.79
-2.14
-3.15
-4.04
-5.08
-6.43
-8.11
-10.07
-12.16
-14.24
-16.11
-17.51
-18.05
-17.36
-15.18
-11.59
-7.04
-2.29
1.87
4.85
6.51
7.10
7.05
6.77
6.43
6.01
5.38
4.54
3.62
2.95
2.82
3.38
4.59
6.15
7.72
9.02
9.88
10.26
10.25
9.93
9.40
8.69
7.84
6.88
5.88
4.91
4.05
3.31
2.63
1.88
0.94
-0.28
-1.83
-3.70
-5.89
-8.45
-11.38
-14.56
-17.68
-20.24
-21.69
-21.58
-19.73
-16.32
-11.83
-6.88
-2.13
1.91
4.88
6.66
7.30
6.99
6.03
4.72
3.37
2.21
1.44
1.17
1.49
2.37
3.67
5.17
6.58
7.63
8.15
8.10
7.58
6.80
5.94
5.16
4.47
3.78
2.94
1.85
0.54
-0.86
-2.18
-3.32
-4.30
-5.25
-6.33
-7.66
-9.26
-11.10
-13.10
-15.19
-17.21
-18.88
-19.79
-19.51
-17.69
-14.33
-9.78
-4.69
0.17
4.19
7.06
8.82
9.67
9.81
9.28
8.04
6.03
3.46
0.78
-1.43
-2.64
-2.64
-1.64
-0.12
1.42
2.61
3.38
3.82
4.07
4.08
3.69
2.72
1.12
-0.91
-3.02
-4.80
-6.03
-6.77
-7.30
-7.98
-9.05
-10.49
-12.16
-13.86
-15.51
-17.18
-18.87
-20.40
-21.28
-20.87
-18.63
-14.47
-8.88
-2.83
2.56
6.47
8.56
9.07
8.60
7.74
6.86
6.01
5.04
3.86
2.59
1.63
1.43
2.20
3.83
5.85
7.70
9.02
9.73
10.00
10.05
9.96
9.67
9.04
7.99
6.62
5.09
3.58
2.10
0.57
-1.11
-2.91
-4.66
-6.19
-7.38
-8.34
-9.31
-10.62
-12.45
-14.75
-17.22
-19.38
-20.75
-20.92
-19.75
-17.29
-13.79
-9.60
-5.17
-0.94
2.71
5.49
7.22
7.92
7.73
6.91
5.77
4.63
3.69
3.10
2.90
3.09
3.68
4.65
5.96
7.43
8.82
9.85
10.37
10.35
9.93
9.25
8.43
7.46
6.23
4.74
3.05
1.33
-0.26
-1.68
-3.02
-4.39
-5.83
-7.25
-8.51
-9.54
-10.43
-11.40
-12.70
-14.41
-16.39
-18.20
-19.24
-19.02
-17.21
-13.85
-9.33
-4.31
0.49
4.50
7.36
9.04
9.73
9.71
9.22
8.46
7.51
6.50
5.60
5.02
5.01
5.69
7.04
8.81
10.62
12.13
13.09
13.48
13.43
13.19
12.85
12.44
11.83
10.89
9.58
7.97
6.24
4.51
2.87
1.31
-0.21
-1.73
-3.24
-4.77
-6.37
-8.11
-10.12
-12.44
-14.98
-17.50
-19.66
-21.01
-21.19
-20.00
-17.49
-14.00
-10.05
-6.20
-2.92
-0.46
1.13
1.94
2.10
1.69
0.76
-0.58
-2.11
-3.46
-4.23
-4.10
-2.99
-1.11
1.12
3.23
4.88
5.91
6.47
6.79
7.09
7.46
7.78
7.80
7.28
6.10
4.32
2.22
0.12
-1.70
-3.17
-4.34
-5.41
-6.58
-7.93
-9.49
-11.19
-13.05
-15.12
-17.48
-20.05
-22.50
-24.25
-24.70
-23.50
-20.68
-16.69
-12.17
-7.69
-3.57
0.10
3.30
5.86
7.53
8.03
7.30
5.61
3.53
1.69
0.59
0.39
0.97
2.04
3.33
4.68
6.00
7.27
8.42
9.33
9.85
9.90
9.50
8.75
7.75
6.57
5.24
3.74
2.05
0.22
-1.66
-3.48
-5.18
-6.77
-8.37
-10.18
-12.35
-14.92
-17.69
-20.20
-21.82
-21.94
-20.14
-16.44
-11.22
-5.22
0.73
5.93
9.96
12.69
14.27
14.95
14.91
14.22
12.96
11.24
9.34
7.59
6.31
5.68
5.63
6.04
6.78
7.80
9.08
10.53
11.88
12.81
13.09
12.69
11.87
10.88
9.86
8.69
7.15
5.09
2.65
0.23
-1.75
-3.04
-3.78
-4.46
-5.67
-7.84
-11.04
-14.95
-18.94
-22.28
-24.29
-24.59
-23.10
-19.98
-15.60
-10.37
-4.69
1.04
6.38
10.84
13.98
15.52
15.53
14.38
12.63
10.82
9.31
8.16
7.32
6.69
6.32
6.36
6.95
8.06
9.55
11.05
12.28
13.06
13.39
13.34
13.01
12.40
11.47
10.18
8.49
6.51
4.37
2.26
0.30
-1.43
-2.93
-4.27
-5.57
-7.02
-8.80
-11.03
-13.70
-16.53
-19.01
-20.52
-20.47
-18.56
-14.86
-9.79
-4.08
1.50
6.29
9.92
12.29
13.53
13.88
13.52
12.64
11.38
9.96
8.68
7.85
7.74
8.41
9.73
11.37
12.97
14.29
15.27
15.98
16.58
17.17
17.74
18.16
18.23
17.78
16.79
15.47
14.09
12.95
12.20
11.77
11.49
11.15
10.69
10.11
9.43
8.57
7.29
5.36
2.76
-0.20
-2.84
-4.39
-4.22
-2.11
1.71
6.68
12.09
17.33
21.97
25.80
28.82
31.08
32.58
33.29
33.18
32.31
30.93
29.42
28.16
27.31
26.72
26.02
24.76
22.69
19.87
16.64
13.42
10.52
8.06
5.93
3.96
1.99
-0.05
-2.19
-4.42
-6.71
-8.96
-11.02
-12.76
-14.05
-14.91
-15.46
-15.94
-16.59
-17.50
-18.63
-19.70
-20.32
-20.13
-18.84
-16.40
-12.93
-8.74
-4.12
0.60
5.11
9.10
12.18
13.99
14.29
13.08
10.65
7.53
4.34
1.60
-0.26
-1.03
-0.69
0.61
2.49
4.42
5.81
6.23
5.56
4.03
2.05
0.02
-1.82
-3.55
-5.32
-7.36
-9.74
-12.39
-15.13
-17.72
-19.99
-21.83
-23.34
-24.83
-26.69
-29.25
-32.52
-36.08
-39.09
-40.64
-40.10
-37.42
-33.08
-27.89
-22.63
-17.79
-13.55
-9.88
-6.81
-4.47
-3.13
-2.94
-3.82
-5.37
-6.99
-8.15
-8.46
-7.87
-6.59
-4.98
-3.42
-2.12
-1.15
-0.37
0.40
1.31
2.39
3.54
4.58
5.29
5.55
5.35
4.78
4.04
3.27
2.56
1.88
1.15
0.24
-0.93
-2.42
-4.23
-6.39
-8.94
-11.87
-15.03
-17.99
-20.11
-20.68
-19.22
-15.68
-10.51
-4.53
1.34
6.33
10.02
12.37
13.57
13.94
13.74
13.13
12.21
11.06
9.81
8.69
7.92
7.72
8.11
8.93
9.87
10.62
10.94
10.79
10.31
9.69
9.13
8.65
8.10
7.25
5.85
3.84
1.33
-1.34
-3.81
-5.81
-7.28
-8.34
-9.25
-10.26
-11.53
-13.16
-15.17
-17.55
-20.17
-22.73
-24.71
-25.51
-24.65
-22.01
-17.84
-12.82
-7.72
-3.24
0.18
2.39
3.45
3.53
2.87
1.67
0.17
-1.41
-2.79
-3.73
-4.00
-3.50
-2.34
-0.77
0.87
2.28
3.31
4.03
4.66
5.41
6.37
7.39
8.19
8.45
7.95
6.72
5.01
3.21
1.67
0.57
-0.16
-0.81
-1.69
-3.07
-5.08
-7.70
-10.84
-14.32
-17.84
-20.92
-22.98
-23.43
-21.96
-18.61
-13.89
-8.57
-3.50
0.67
3.57
5.14
5.55
5.02
3.81
2.17
0.30
-1.57
-3.21
-4.42
-5.02
-4.89
-4.05
-2.62
-0.82
1.08
2.87
4.39
5.59
6.44
6.95
7.05
6.71
5.87
4.57
2.91
1.09
-0.70
-2.25
-3.48
-4.39
-5.11
-5.82
-6.78
-8.19
-10.20
-12.76
-15.65
-18.38
-20.32
-20.86
-19.60
-16.55
-12.13
-7.08
-2.18
1.97
5.05
7.03
8.00
8.10
7.41
6.04
4.19
2.16
0.41
-0.69
-0.87
-0.13
1.28
2.95
4.46
5.55
6.13
6.34
6.39
6.44
6.51
6.44
6.03
5.09
3.65
1.88
0.10
-1.41
-2.47
-3.15
-3.66
-4.29
-5.31
-6.88
-8.97
-11.39
-13.79
-15.74
-16.75
-16.37
-14.38
-10.83
-6.12
-0.91
4.09
8.28
11.30
13.12
13.88
13.80
13.07
11.78
10.05
8.01
5.96
4.27
3.35
3.45
4.57
6.39
8.34
9.82
10.43
10.11
9.17
8.14
7.45
7.24
7.27
7.05
6.17
4.50
2.28
-0.06
-2.17
-3.91
-5.44
-6.99
-8.64
-10.35
-11.94
-13.31
-14.51
-15.67
-16.75
-17.44
-17.19
-15.38
-11.74
-6.52
-0.47
5.41
10.25
13.60
15.49
16.25
16.25
15.69
14.53
12.71
10.35
7.89
5.98
5.24
5.93
7.84
10.26
12.43
13.82
14.33
14.28
14.14
14.22
14.49
14.62
14.20
13.01
11.13
8.92
6.75
4.91
3.48
2.29
1.14
-0.11
-1.51
-3.07
-4.79
-6.77
-9.04
-11.50
-13.83
-15.56
-16.23
-15.58
-13.65
-10.78
-7.36
-3.79
-0.33
2.76
5.24
6.81
7.25
6.51
4.87
2.75
0.69
-0.94
-1.92
-2.26
-2.05
-1.44
-0.53
0.53
1.59
2.54
3.25
3.69
3.87
3.78
3.43
2.76
1.71
0.31
-1.36
-3.11
-4.73
-6.03
-6.95
-7.54
-8.01
-8.63
-9.66
-11.30
-13.52
-16.09
-18.51
-20.18
-20.52
-19.15
-16.06
-11.61
-6.42
-1.23
3.35
6.92
9.33
10.62
10.90
10.28
8.86
6.79
4.35
1.89
-0.17
-1.53
-2.03
-1.76
-0.95
0.13
1.25
2.34
3.36
4.34
5.22
5.83
5.99
5.57
4.56
3.08
1.38
-0.30
-1.77
-2.91
-3.76
-4.43
-5.10
-5.94
-7.07
-8.57
-10.38
-12.30
-14.03
-15.11
-15.12
-13.72
-10.85
-6.76
-1.99
2.75
6.85
9.94
12.01
13.31
14.10
14.51
14.46
13.81
12.47
10.67
8.84
7.53
7.12
7.64
8.73
9.87
10.54
10.56
10.04
9.30
8.58
7.95
7.25
6.28
4.94
3.37
1.86
0.68
-0.09
-0.55
-0.97
-1.58
-2.51
-3.79
-5.42
-7.47
-10.06
-13.30
-17.03
-20.79
-23.83
-25.31
-24.59
-21.57
-16.67
-10.74
-4.76
0.51
4.70
7.73
9.70
10.62
10.44
9.14
6.94
4.29
1.87
0.28
-0.20
0.36
1.56
2.96
4.33
5.64
7.07
8.70
10.43
11.90
12.72
12.64
11.77
10.48
9.24
8.38
7.97
7.83
7.72
7.39
6.77
5.85
4.69
3.33
1.77
0.03
-1.96
-4.26
-6.90
-9.78
-12.56
-14.74
-15.77
-15.33
-13.43
-10.47
-7.11
-3.92
-1.29
0.70
2.17
3.28
4.04
4.38
4.11
3.21
1.82
0.30
-0.87
-1.31
-0.84
0.41
2.11
3.80
5.13
5.92
6.21
6.17
6.01
5.85
5.66
5.35
4.78
3.93
2.90
1.86
1.00
0.39
-0.03
-0.46
-1.14
-2.28
-3.94
-6.07
-8.51
-11.05
-13.49
-15.63
-17.24
-18.07
-17.87
-16.46
-13.88
-10.43
-6.62
-3.06
-0.25
1.54
2.31
2.27
1.65
0.65
-0.58
-1.90
-3.10
-3.93
-4.14
-3.59
-2.34
-0.57
1.38
3.23
4.78
5.96
6.83
7.47
7.92
8.11
7.88
7.10
5.74
3.99
2.19
0.73
-0.16
-0.52
-0.63
-0.85
-1.48
-2.60
-4.09
-5.79
-7.51
-9.14
-10.54
-11.45
-11.51
-10.38
-7.94
-4.35
-0.12
4.10
7.70
10.33
11.88
12.50
12.46
12.00
11.28
10.40
9.44
8.49
7.72
7.27
7.25
7.64
8.29
9.03
9.68
10.10
10.23
10.08
9.67
9.05
8.25
7.28
6.13
4.74
3.14
1.43
-0.17
-1.45
-2.34
-2.97
-3.66
-4.81
-6.62
-9.07
-11.87
-14.59
-16.79
-18.12
-18.38
-17.44
-15.33
-12.18
-8.23
-3.85
0.48
4.29
7.18
8.91
9.51
9.19
8.37
7.44
6.72
6.35
6.29
6.45
6.78
7.30
8.13
9.32
10.80
12.33
13.55
14.15
14.02
13.25
12.13
10.98
9.95
9.00
7.92
6.54
4.85
3.11
1.66
0.79
0.46
0.34
-0.07
-1.25
-3.36
-6.23
-9.36
-12.14
-14.07
-14.84
-14.37
-12.75
-10.11
-6.66
-2.65
1.58
5.65
9.14
11.76
13.35
13.94
13.69
12.83
11.57
10.14
8.74
7.58
6.80
6.48
6.59
6.98
7.49
7.97
8.31
8.46
8.38
8.07
7.57
6.85
5.90
4.65
3.02
1.00
-1.29
-3.57
-5.56
-7.08
-8.21
-9.24
-10.51
-12.24
-14.44
-16.89
-19.30
-21.42
-23.05
-24.05
-24.25
-23.40
-21.32
-18.02
-13.73
-9.00
-4.48
-0.73
1.93
3.45
4.05
4.00
3.55
2.75
1.62
0.17
-1.36
-2.61
-3.10
-2.61
-1.21
0.59
2.16
3.04
3.12
2.71
2.33
2.30
2.62
2.92
2.73
1.76
0.14
-1.70
-3.14
-3.80
-3.65
-3.04
-2.50
-2.42
-2.96
-3.98
-5.29
-6.70
-8.16
-9.66
-11.08
-12.17
-12.55
-11.90
-10.09
-7.32
-3.98
-0.63
2.23
4.24
5.30
5.47
5.00
4.17
3.26
2.43
1.80
1.45
1.53
2.10
3.15
4.53
5.98
7.23
8.11
8.60
8.80
8.81
8.63
8.22
7.48
6.35
4.90
3.26
1.62
0.12
-1.17
-2.24
-3.20
-4.16
-5.28
-6.65
-8.34
-10.27
-12.29
-14.16
-15.55
-16.06
-15.38
-13.31
-9.89
-5.41
-0.41
4.47
8.69
11.83
13.69
14.29
13.71
12.10
9.70
6.77
3.71
0.95
-1.10
-2.14
-2.11
-1.21
0.23
1.83
3.29
4.50
5.53
6.46
7.33
8.02
8.36
8.22
7.66
6.88
6.16
5.64
5.24
4.74
3.93
2.70
1.18
-0.44
-1.98
-3.37
-4.67
-5.95
-7.19
-8.32
-9.24
-10.02
-10.87
-12.12
-14.00
-16.54
-19.39
-21.92
-23.44
-23.42
-21.70
-18.49
-14.33
-9.81
-5.44
-1.55
1.72
4.29
6.12
7.14
7.31
6.72
5.60
4.34
3.37
2.99
3.33
4.27
5.53
6.86
8.04
9.04
9.90
10.69
11.42
12.02
12.39
12.38
11.93
11.03
9.85
8.54
7.28
6.14
5.06
3.89
2.49
0.86
-0.86
-2.53
-4.05
-5.52
-7.14
-9.11
-11.47
-14.06
-16.52
-18.51
-19.67
-19.79
-18.75
-16.50
-13.13
-8.93
-4.36
-0.03
3.49
5.82
6.91
6.98
6.33
5.24
3.86
2.23
0.46
-1.19
-2.32
-2.56
-1.75
-0.08
2.00
3.89
5.11
5.49
5.17
4.47
3.72
3.08
2.52
1.88
0.97
-0.28
-1.83
-3.56
-5.32
-7.01
-8.54
-9.93
-11.23
-12.49
-13.82
-15.29
-16.90
-18.54
-19.91
-20.66
-20.43
-18.98
-16.33
-12.69
-8.49
-4.18
-0.11
3.44
6.34
8.50
9.84
10.28
9.84
8.67
7.12
5.66
4.71
4.55
5.18
6.36
7.75
9.01
9.96
10.60
11.04
11.39
11.69
11.85
11.70
11.09
9.93
8.28
6.31
4.21
2.16
0.23
-1.61
-3.42
-5.27
-7.23
-9.35
-11.65
-14.04
-16.25
-17.91
-18.50
-17.68
-15.31
-11.59
-7.02
-2.23
2.19
5.79
8.36
9.87
10.42
10.21
9.45
8.35
7.12
5.94
4.99
4.40
4.27
4.59
5.27
6.16
7.06
7.82
8.36
8.63
8.64
8.36
7.80
6.96
5.87
4.62
3.28
1.90
0.48
-1.06
-2.80
-4.81
-7.08
-9.44
-11.55
-12.93
-13.11
-11.80
-8.99
-5.08
-0.73
3.35
6.66
9.02
10.53
11.40
11.80
11.72
11.09
9.95
8.55
7.30
6.64
6.78
7.59
8.69
9.60
10.03
9.90
9.41
8.78
8.19
7.64
6.99
6.08
4.80
3.17
1.34
-0.49
-2.15
-3.56
-4.78
-5.97
-7.32
-9.00
-11.09
-13.57
-16.26
-18.86
-20.92
-22.01
-21.71
-19.88
-16.59
-12.24
-7.39
-2.61
1.58
4.87
7.12
8.37
8.81
8.74
8.50
8.33
8.31
8.35
8.22
7.75
6.90
5.78
4.63
3.65
2.95
2.59
2.55
2.83
3.41
4.22
5.09
5.77
6.01
5.64
4.69
3.31
1.74
0.14
-1.45
-3.12
-5.02
-7.25
-9.70
-12.12
-14.08
-15.13
-14.92
-13.32
-10.49
-6.81
-2.79
1.09
4.53
7.36
9.52
10.98
11.61
11.30
10.04
8.00
5.59
3.32
1.68
0.90
0.94
1.55
2.36
3.05
3.46
3.55
3.38
3.04
2.61
2.09
1.44
0.55
-0.65
-2.17
-3.91
-5.68
-7.20
-8.30
-8.87
-9.03
-9.03
-9.18
-9.77
-10.93
-12.59
-14.46
-16.00
-16.58
-15.67
-12.97
-8.61
-3.13
2.72
8.15
12.61
15.80
17.70
18.45
18.28
17.47
16.32
15.19
14.40
14.28
14.93
16.34
18.29
20.47
22.59
24.44
25.92
27.03
27.73
28.00
27.78
27.11
26.10
24.93
23.76
22.62
21.34
19.72
17.57
14.96
12.12
9.36
6.90
4.74
2.61
0.16
-2.88
-6.51
-10.41
-13.97
-16.55
-17.69
-17.29
-15.61
-13.10
-10.17
-7.14
-4.16
-1.41
0.89
2.40
2.85
2.14
0.53
-1.48
-3.32
-4.52
-4.88
-4.46
-3.47
-2.18
-0.82
0.48
1.65
2.66
3.52
4.18
4.62
4.77
4.64
4.23
3.64
2.98
2.31
1.66
0.96
0.13
-0.90
-2.14
-3.58
-5.16
-6.81
-8.47
-10.12
-11.80
-13.56
-15.38
-17.17
-18.71
-19.64
-19.61
-18.37
-15.94
-12.61
-8.85
-5.21
-2.07
0.34
2.01
2.96
3.27
2.94
2.00
0.52
-1.28
-3.07
-4.48
-5.19
-5.09
-4.27
-2.97
-1.57
-0.36
0.46
0.87
0.96
0.84
0.55
0.06
-0.78
-2.03
-3.63
-5.39
-6.95
-8.06
-8.58
-8.66
-8.63
-8.88
-9.69
-11.16
-13.23
-15.68
-18.24
-20.59
-22.39
-23.29
-22.99
-21.33
-18.38
-14.42
-9.92
-5.48
-1.58
1.45
3.54
4.79
5.46
5.73
5.72
5.42
4.79
3.89
2.96
2.32
2.29
2.95
4.14
5.49
6.62
7.30
7.56
7.60
7.60
7.58
7.39
6.78
5.62
3.95
2.00
0.05
-1.72
-3.31
-4.81
-6.35
-7.95
-9.53
-10.96
-12.22
-13.42
-14.75
-16.31
-18.02
-19.48
-20.13
-19.44
-17.13
-13.29
-8.35
-2.94
2.32
6.96
10.73
13.52
15.31
16.12
16.00
15.10
13.64
11.97
10.47
9.49
9.20
9.60
10.51
11.69
12.93
14.08
15.08
15.94
16.57
16.90
16.80
16.23
15.23
13.98
12.65
11.39
10.17
8.92
7.53
6.00
4.42
2.95
1.67
0.47
-0.95
-2.91
-5.62
-9.00
-12.62
-15.81
-17.92
-18.48
-17.43
-14.99
-11.64
-7.86
-4.04
-0.41
2.91
5.83
8.21
9.88
10.69
10.57
9.61
8.06
6.28
4.66
3.54
3.11
3.38
4.21
5.33
6.48
7.44
8.11
8.43
8.45
8.16
7.60
6.82
5.94
5.11
4.45
3.97
3.58
3.12
2.46
1.54
0.43
-0.79
-2.02
-3.31
-4.78
-6.60
-8.88
-11.58
-14.46
-17.07
-18.95
-19.66
-19.05
-17.20
-14.44
-11.25
-8.08
-5.28
-3.08
-1.54
-0.67
-0.46
-0.84
-1.72
-2.98
-4.39
-5.69
-6.61
-6.93
-6.54
-5.50
-4.03
-2.45
-1.04
0.02
0.71
1.09
1.24
1.17
0.89
0.35
-0.38
-1.19
-1.97
-2.65
-3.35
-4.22
-5.44
-7.04
-8.80
-10.27
-10.93
-10.34
-8.34
-5.15
-1.26
2.74
6.35
9.26
11.38
12.72
13.28
13.03
11.95
10.16
7.93
5.67
3.83
2.69
2.34
2.60
3.18
3.72
4.02
3.97
3.61
2.98
2.05
0.74
-0.99
-3.09
-5.28
-7.21
-8.59
-9.37
-9.79
-10.29
-11.24
-12.83
-14.95
-17.37
-19.89
-22.46
-25.10
-27.72
-29.94
-31.15
-30.70
-28.24
-23.88
-18.26
-12.25
-6.69
-2.13
1.22
3.41
4.60
4.95
4.63
3.78
2.59
1.33
0.25
-0.37
-0.32
0.50
2.01
3.94
5.92
7.56
8.61
9.02
8.89
8.39
7.64
6.71
5.60
4.30
2.82
1.21
-0.52
-2.37
-4.36
-6.50
-8.69
-10.74
-12.34
-13.14
-12.79
-11.07
-7.98
-3.75
1.13
6.06
10.47
13.94
16.31
17.63
18.07
17.81
17.02
15.85
14.49
13.17
12.17
11.77
12.06
12.98
14.24
15.48
16.36
16.73
16.65
16.30
15.84
15.29
14.50
13.31
11.65
9.66
7.58
5.66
3.99
2.47
0.88
-0.96
-3.08
-5.38
-7.72
-9.96
-12.04
-13.87
-15.31
-16.13
-16.03
-14.78
-12.39
-9.08
-5.35
-1.75
1.27
3.48
4.89
5.68
6.01
5.97
5.56
4.74
3.60
2.40
1.50
1.24
1.75
2.93
4.45
5.96
7.20
8.09
8.72
9.20
9.57
9.70
9.39
8.47
6.92
4.95
2.86
1.00
-0.45
-1.49
-2.32
-3.25
-4.54
-6.25
-8.22
-10.06
-11.27
-11.47
-10.44
-8.25
-5.21
-1.76
1.63
4.58
6.77
8.02
8.32
7.81
6.77
5.55
4.48
3.79
3.59
3.88
4.62
5.78
7.29
9.07
10.93
12.64
13.92
14.53
14.34
13.39
11.90
10.20
8.62
7.33
6.20
4.96
3.26
0.93
-1.94
-5.04
-7.96
-10.30
-11.82
-12.38
-11.87
-10.25
-7.54
-3.87
0.36
4.68
8.54
11.49
13.27
13.86
13.32
11.86
9.69
7.08
4.29
1.60
-0.77
-2.64
-3.95
-4.69
-4.91
-4.67
-4.07
-3.21
-2.23
-1.27
-0.47
0.03
0.14
-0.22
-1.07
-2.35
-3.97
-5.72
-7.46
-9.02
-10.40
-11.68
-13.02
-14.65
-16.75
-19.36
-22.33
-25.29
-27.71
-29.05
-28.88
-27.13
-24.02
-20.05
-15.81
-11.79
-8.34
-5.61
-3.68
-2.54
-2.18
-2.49
-3.24
-4.09
-4.69
-4.76
-4.20
-3.09
-1.67
-0.18
1.14
2.19
2.97
3.52
3.90
4.16
4.29
4.23
3.89
3.16
1.99
0.41
-1.45
-3.36
-5.12
-6.64
-7.97
-9.33
-10.94
-12.88
-14.98
-16.84
-17.92
-17.78
-16.24
-13.42
-9.72
-5.62
-1.57
2.10
5.20
7.59
9.17
9.89
9.77
8.93
7.62
6.21
5.04
4.39
4.40
5.03
6.08
7.29
8.42
9.32
9.97
10.40
10.67
10.79
10.71
10.31
9.55
8.47
7.20
5.93
4.85
4.01
3.38
2.84
2.21
1.39
0.31
-1.06
-2.69
-4.44
-6.07
-7.21
-7.55
-6.84
-5.07
-2.44
0.72
4.11
7.46
10.57
13.21
15.16
16.16
16.12
15.14
13.58
11.93
10.60
9.84
9.62
9.77
10.08
10.40
10.68
11.01
11.45
12.00
12.52
12.80
12.61
11.82
10.46
8.70
6.77
4.83
2.95
1.10
-0.76
-2.65
-4.58
-6.49
-8.39
-10.32
-12.29
-14.19
-15.83
-16.90
-17.10
-16.22
-14.24
-11.38
-8.00
-4.55
-1.39
1.21
3.13
4.31
4.77
4.51
3.57
2.09
0.28
-1.56
-3.12
-4.18
-4.65
-4.58
-4.13
-3.49
-2.87
-2.45
-2.34
-2.54
-2.94
-3.37
-3.68
-3.81
-3.91
-4.15
-4.74
-5.72
-6.98
-8.34
-9.66
-10.96
-12.32
-13.76
-15.11
-15.95
-15.78
-14.29
-11.46
-7.69
-3.58
0.27
3.44
5.78
7.31
8.07
8.08
7.36
6.00
4.26
2.49
1.09
0.36
0.37
1.04
2.13
3.40
4.63
5.69
6.45
6.83
6.77
6.31
5.54
4.60
3.62
2.65
1.69
0.73
-0.21
-1.09
-1.86
-2.60
-3.47
-4.72
-6.55
-8.99
-11.78
-14.48
-16.54
-17.52
-17.20
-15.61
-13.01
-9.77
-6.28
-2.89
0.15
2.65
4.48
5.56
5.92
5.70
5.11
4.40
3.79
3.38
3.22
3.29
3.62
4.30
5.33
6.65
8.07
9.31
10.09
10.24
9.73
8.69
7.32
5.81
4.28
2.68
0.94
-0.99
-3.08
-5.19
-7.11
-8.70
-9.90
-10.76
-11.27
-11.38
-10.91
-9.63
-7.46
-4.47
-1.00
2.53
5.69
8.22
10.00
11.06
11.45
11.23
10.42
9.12
7.53
5.96
4.75
4.20
4.42
5.28
6.50
7.73
8.66
9.15
9.18
8.85
8.25
7.48
6.53
5.35
3.90
2.20
0.31
-1.65
-3.57
-5.36
-7.01
-8.46
-9.63
-10.31
-10.23
-9.14
-6.97
-3.83
-0.12
3.69
7.08
9.73
11.50
12.44
12.72
12.51
11.90
11.00
9.87
8.64
7.51
6.73
6.51
6.94
7.90
9.15
10.36
11.25
11.67
11.60
11.08
10.18
8.89
7.19
5.11
2.74
0.32
-1.92
-3.73
-5.04
-5.93
-6.65
-7.50
-8.76
-10.59
-12.93
-15.53
-17.96
-19.82
-20.76
-20.62
-19.41
-17.24
-14.31
-10.85
-7.14
-3.57
-0.60
1.38
2.11
1.59
0.06
-2.08
-4.38
-6.47
-8.08
-9.08
-9.43
-9.17
-8.41
-7.29
-6.02
-4.82
-3.92
-3.48
-3.53
-3.98
-4.61
-5.21
-5.65
-5.95
-6.26
-6.76
-7.62
-8.86
-10.45
-12.27
-14.13
-15.72
-16.64
-16.48
-14.90
-11.89
-7.81
-3.32
0.85
4.16
6.37
7.56
7.96
7.81
7.21
6.23
4.87
3.24
1.53
0.04
-0.99
-1.40
-1.29
-0.87
-0.38
-0.01
0.22
0.42
0.67
0.95
1.06
0.71
-0.28
-1.93
-3.96
-6.01
-7.82
-9.26
-10.39
-11.24
-11.66
-11.33
-9.88
-7.10
-3.11
1.58
6.24
10.18
12.96
14.60
15.39
15.79
16.10
16.40
16.44
15.93
14.75
13.06
11.25
9.82
9.10
9.15
9.76
10.64
11.50
12.21
12.70
12.96
12.96
12.58
11.75
10.43
8.70
6.69
4.57
2.45
0.36
-1.75
-3.99
-6.43
-9.09
-11.89
-14.70
-17.30
-19.42
-20.76
-21.01
-19.96
-17.56
-14.03
-9.75
-5.22
-0.95
2.70
5.50
7.39
8.37
8.53
7.98
6.92
5.60
4.30
3.31
2.83
2.93
3.53
4.46
5.48
6.41
7.16
7.69
8.04
8.19
8.14
7.84
7.26
6.44
5.46
4.43
3.42
2.47
1.48
0.35
-1.01
-2.60
-4.24
-5.57
-6.12
-5.48
-3.46
-0.24
3.71
7.75
11.28
13.95
15.67
16.55
16.74
16.30
15.25
13.64
11.64
9.54
7.67
6.31
5.58
5.45
5.78
6.40
7.12
7.76
8.18
8.29
8.05
7.51
6.73
5.80
4.78
3.67
2.47
1.14
-0.34
-2.01
-3.91
-6.07
-8.47
-10.95
-13.28
-15.10
-16.07
-15.93
-14.64
-12.36
-9.43
-6.30
-3.41
-1.13
0.27
0.68
0.13
-1.15
-2.82
-4.49
-5.79
-6.48
-6.51
-6.00
-5.20
-4.38
-3.75
-3.45
-3.45
-3.66
-3.94
-4.19
-4.38
-4.57
-4.79
-5.13
-5.61
-6.24
-6.96
-7.72
-8.44
-9.06
-9.59
-10.20
-11.14
-12.64
-14.76
-17.20
-19.42
-20.74
-20.61
-18.88
-15.69
-11.50
-6.80
-2.06
2.37
6.22
9.27
11.29
12.16
11.92
10.77
9.14
7.52
6.33
5.84
5.99
6.57
7.21
7.68
7.88
7.93
7.97
8.08
8.11
7.77
6.82
5.22
3.26
1.36
-0.12
-1.10
-1.84
-2.82
-4.42
-6.75
-9.59
-12.45
-14.81
-16.23
-16.52
-15.62
-13.63
-10.70
-7.03
-2.86
1.54
5.89
9.89
13.21
15.62
16.95
17.19
16.50
15.12
13.38
11.62
10.11
9.09
8.68
8.93
9.73
10.87
12.11
13.18
13.93
14.27
14.20
13.75
12.94
11.85
10.58
9.29
8.15
7.22
6.41
5.54
4.33
2.64
0.50
-1.87
-4.09
-5.78
-6.65
-6.54
-5.45
-3.48
-0.79
2.44
6.00
9.62
12.97
15.65
17.31
17.75
17.04
15.50
13.58
11.72
10.18
9.01
8.13
7.47
7.05
6.93
7.14
7.55
7.85
7.73
6.97
5.58
3.82
1.99
0.28
-1.25
-2.71
-4.21
-5.77
-7.32
-8.72
-9.93
-11.08
-12.38
-13.96
-15.73
-17.34
-18.24
-17.94
-16.17
-13.03
-8.94
-4.46
-0.18
3.48
6.25
7.98
8.62
8.16
6.72
4.56
2.04
-0.39
-2.34
-3.56
-4.03
-3.87
-3.37
-2.82
-2.48
-2.53
-3.03
-3.90
-4.95
-5.98
-6.79
-7.34
-7.71
-8.07
-8.55
-9.16
-9.81
-10.37
-10.79
-11.15
-11.67
-12.54
-13.91
-15.74
-17.85
-19.99
-21.81
-23.01
-23.27
-22.38
-20.25
-16.98
-12.92
-8.54
-4.35
-0.76
1.97
3.78
4.75
5.04
4.82
4.24
3.42
2.46
1.47
0.63
0.14
0.19
0.91
2.22
3.88
5.52
6.80
7.53
7.72
7.54
7.15
6.67
6.06
5.20
3.98
2.32
0.23
-2.27
-5.13
-8.33
-11.80
-15.35
-18.72
-21.49
-23.16
-23.31
-21.70
-18.39
-13.75
-8.43
-3.12
1.55
5.22
7.78
9.30
9.91
9.72
8.82
7.32
5.46
3.58
2.11
1.37
1.49
2.37
3.72
5.18
6.47
7.46
8.16
8.66
9.00
9.15
9.00
8.43
7.39
5.92
4.17
2.30
0.47
-1.25
-2.86
-4.40
-5.90
-7.42
-8.99
-10.65
-12.47
-14.45
-16.49
-18.31
-19.51
-19.59
-18.21
-15.23
-10.89
-5.74
-0.45
4.32
8.17
10.94
12.65
13.40
13.27
12.37
10.93
9.28
7.87
7.07
7.07
7.82
9.05
10.48
11.92
13.33
14.75
16.19
17.53
18.58
19.11
18.95
18.05
16.45
14.35
12.01
9.67
7.56
5.77
4.26
2.96
1.72
0.44
-0.98
-2.70
-4.86
-7.51
-10.56
-13.59
-15.96
-17.05
-16.50
-14.41
-11.31
-7.87
-4.65
-1.86
0.58
2.80
4.78
6.20
6.66
5.87
3.91
1.23
-1.52
-3.72
-5.01
-5.35
-4.91
-3.89
-2.50
-0.82
1.00
2.77
4.22
5.09
5.24
4.71
3.69
2.40
1.01
-0.43
-1.96
-3.67
-5.66
-7.96
-10.59
-13.48
-16.42
-19.01
-20.72
-21.08
-19.88
-17.22
-13.58
-9.59
-5.73
-2.30
0.68
3.23
5.35
6.86
7.57
7.31
6.17
4.43
2.56
1.04
0.18
0.11
0.71
1.75
2.99
4.28
5.54
6.70
7.64
8.19
8.16
7.45
6.14
4.50
2.81
1.31
0.06
-1.05
-2.22
-3.59
-5.24
-7.15
-9.23
-11.43
-13.62
-15.63
-17.15
-17.80
-17.20
-15.19
-11.84
-7.52
-2.77
1.84
5.82
8.83
10.69
11.35
10.91
9.57
7.69
5.64
3.82
2.46
1.70
1.52
1.85
2.59
3.66
4.99
6.43
7.77
8.80
9.34
9.33
8.83
7.99
6.91
5.69
4.30
2.72
0.92
-1.08
-3.26
-5.55
-7.86
-10.04
-11.82
-12.83
-12.72
-11.23
-8.40
-4.53
-0.14
4.22
8.06
11.11
13.24
14.43
14.72
14.15
12.83
10.94
8.75
6.63
4.96
4.05
3.96
4.57
5.53
6.41
6.92
6.95
6.63
6.18
5.73
5.23
4.50
3.28
1.48
-0.80
-3.34
-5.89
-8.32
-10.59
-12.69
-14.48
-15.67
-15.85
-14.70
-12.17
-8.57
-4.47
-0.50
2.83
5.30
6.89
7.71
7.87
7.41
6.37
4.85
3.11
1.51
0.38
-0.06
0.18
0.83
1.53
1.99
2.09
1.90
1.58
1.29
1.05
0.66
-0.16
-1.61
-3.71
-6.21
-8.70
-10.79
-12.30
-13.35
-14.31
-15.64
-17.62
-20.15
-22.82
-24.98
-25.98
-25.41
-23.21
-19.60
-14.98
-9.85
-4.67
0.16
4.28
7.40
9.29
9.86
9.17
7.46
5.13
2.69
0.69
-0.42
-0.44
0.53
2.16
4.00
5.70
7.03
7.97
8.52
8.68
8.37
7.50
6.06
4.20
2.17
0.28
-1.33
-2.71
-4.09
-5.78
-8.02
-10.76
-13.71
-16.31
-17.92
-17.97
-16.19
-12.68
-7.87
-2.42
2.95
7.62
11.12
13.24
14.01
13.62
12.40
10.79
9.18
7.88
7.07
6.80
7.07
7.82
8.99
10.46
12.02
13.40
14.31
14.57
14.19
13.30
12.13
10.82
9.39
7.79
5.94
3.83
1.54
-0.81
-3.12
-5.30
-7.27
-8.81
-9.66
-9.50
-8.08
-5.46
-1.88
2.16
6.18
9.85
12.95
15.43
17.21
18.22
18.40
17.76
16.52
15.08
13.87
13.26
13.38
14.11
15.20
16.31
17.19
17.75
17.95
17.85
17.44
16.68
15.47
13.81
11.76
9.54
7.44
5.67
4.35
3.34
2.38
1.14
-0.63
-3.05
-6.04
-9.40
-12.83
-15.98
-18.44
-19.79
-19.70
-18.04
-14.95
-10.82
-6.22
-1.72
2.17
5.13
7.01
7.81
7.65
6.74
5.32
3.63
1.91
0.33
-0.94
-1.75
-2.00
-1.68
-0.93
-0.02
0.76
1.21
1.25
0.99
0.54
-0.00
-0.68
-1.57
-2.76
-4.20
-5.73
-7.09
-8.07
-8.59
-8.79
-9.02
-9.67
-11.04
-13.13
-15.58
-17.71
-18.78
-18.26
-16.05
-12.51
-8.31
-4.14
-0.55
2.24
4.13
5.18
5.37
4.74
3.39
1.57
-0.29
-1.73
-2.41
-2.28
-1.47
-0.31
0.96
2.13
3.17
4.04
4.68
4.95
4.64
3.67
2.10
0.21
-1.67
-3.23
-4.38
-5.25
-6.13
-7.35
-9.06
-11.20
-13.49
-15.49
-16.69
-16.67
-15.21
-12.34
-8.36
-3.75
0.93
5.20
8.69
11.20
12.71
13.28
13.08
12.28
11.10
9.75
8.43
7.33
6.61
6.37
6.60
7.21
7.98
8.68
9.11
9.18
8.93
8.41
7.69
6.79
5.70
4.40
2.98
1.51
0.13
-1.06
-2.00
-2.69
-3.32
-4.08
-5.25
-6.97
-9.16
-11.49
-13.53
-14.78
-14.98
-14.07
-12.18
-9.51
-6.22
-2.44
1.64
5.70
9.29
11.91
13.28
13.41
12.65
11.50
10.44
9.74
9.33
9.03
8.70
8.39
8.31
8.74
9.75
11.15
12.46
13.17
13.01
12.02
10.58
9.15
7.99
7.10
6.22
5.04
3.36
1.28
-0.98
-3.16
-5.16
-7.04
-8.96
-11.01
-12.99
-14.50
-15.00
-14.09
-11.68
-8.03
-3.69
0.67
4.49
7.41
9.28
10.15
10.13
9.43
8.22
6.65
4.87
3.03
1.30
-0.06
-0.84
-0.83
-0.03
1.34
2.89
4.17
4.86
4.87
4.32
3.46
2.54
1.65
0.76
-0.26
-1.48
-2.88
-4.31
-5.63
-6.74
-7.72
-8.81
-10.27
-12.27
-14.76
-17.45
-19.83
-21.38
-21.72
-20.72
-18.52
-15.45
-11.92
-8.28
-4.79
-1.60
1.19
3.43
4.99
5.75
5.65
4.75
3.29
1.65
0.25
-0.56
-0.55
0.21
1.48
2.88
4.11
5.01
5.63
6.08
6.51
6.92
7.15
7.01
6.33
5.07
3.37
1.45
-0.42
-2.07
-3.43
-4.59
-5.72
-6.99
-8.51
-10.30
-12.28
-14.25
-15.94
-17.01
-17.13
-16.05
-13.73
-10.34
-6.28
-2.04
1.90
5.22
7.81
9.68
10.89
11.45
11.37
10.66
9.45
8.00
6.73
6.01
6.09
6.92
8.22
9.57
10.57
11.09
11.24
11.24
11.29
11.37
11.24
10.60
9.27
7.33
5.13
3.06
1.46
0.36
-0.43
-1.17
-2.11
-3.33
-4.83
-6.54
-8.37
-10.16
-11.64
-12.46
-12.26
-10.84
-8.23
-4.74
-0.90
2.83
6.01
8.41
9.96
10.71
10.78
10.30
9.44
8.36
7.19
6.06
5.07
4.33
3.92
3.77
3.79
3.80
3.69
3.45
3.19
3.01
2.99
2.99
2.80
2.14
0.92
-0.75
-2.61
-4.35
-5.81
-7.07
-8.42
-10.09
-12.14
-14.32
-16.11
-17.00
-16.64
-15.10
-12.77
-10.23
-7.95
-6.15
-4.81
-3.77
-2.93
-2.41
-2.43
-3.20
-4.67
-6.57
-8.42
-9.74
-10.20
-9.76
-8.60
-7.10
-5.59
-4.32
-3.36
-2.64
-2.01
-1.43
-0.94
-0.73
-0.97
-1.74
-2.93
-4.26
-5.41
-6.18
-6.64
-7.02
-7.66
-8.82
-10.52
-12.58
-14.66
-16.33
-17.24
-17.12
-15.83
-13.40
-10.01
-6.01
-1.85
2.01
5.10
7.07
7.75
7.14
5.47
3.08
0.41
-2.14
-4.25
-5.69
-6.38
-6.33
-5.65
-4.54
-3.22
-1.91
-0.84
-0.12
0.17
0.00
-0.61
-1.62
-2.96
-4.52
-6.16
-7.77
-9.32
-10.85
-12.41
-14.05
-15.70
-17.15
-18.08
-18.14
-17.05
-14.75
-11.34
-7.15
-2.62
1.75
5.53
8.37
10.08
10.66
10.26
9.16
7.69
6.13
4.71
3.57
2.83
2.56
2.82
3.53
4.50
5.41
5.92
5.82
5.11
4.00
2.84
1.94
1.41
1.16
0.91
0.35
-0.81
-2.67
-5.18
-8.11
-11.08
-13.62
-15.19
-15.36
-13.87
-10.78
-6.40
-1.30
3.91
8.69
12.68
15.68
17.63
18.54
18.45
17.42
15.64
13.42
11.16
9.33
8.26
8.11
8.74
9.86
11.08
12.12
12.81
13.16
13.21
12.99
12.48
11.63
10.46
9.00
7.36
5.58
3.63
1.42
-1.16
-4.14
-7.39
-10.69
-13.81
-16.51
-18.66
-20.14
-20.84
-20.59
-19.27
-16.80
-13.26
-8.92
-4.18
0.48
4.59
7.85
10.05
11.14
11.15
10.19
8.48
6.32
4.09
2.18
0.91
0.39
0.53
1.04
1.60
1.94
1.93
1.59
1.03
0.34
-0.39
-1.14
-1.92
-2.76
-3.72
-4.84
-6.15
-7.67
-9.38
-11.20
-13.03
-14.66
-15.87
-16.39
-16.03
-14.68
-12.38
-9.31
-5.72
-1.90
1.85
5.28
8.15
10.27
11.50
11.75
11.04
9.50
7.37
5.03
2.92
1.45
0.93
1.45
2.87
4.83
6.86
8.57
9.68
10.10
9.92
9.23
8.07
6.40
4.14
1.25
-2.20
-5.97
-9.75
-13.12
-15.65
-16.90
-16.52
-14.31
-10.33
-4.94
1.21
7.35
12.74
16.88
19.50
20.66
20.53
19.42
17.67
15.62
13.60
11.93
10.85
10.47
10.68
11.23
11.80
12.12
12.15
12.04
12.05
12.31
12.72
12.93
12.54
11.30
9.31
6.97
4.75
2.95
1.52
0.10
-1.71
-4.13
-7.08
-10.26
-13.29
-15.93
-18.06
-19.55
-20.15
-19.44
-17.03
-12.82
-7.15
-0.82
5.19
10.04
13.29
14.99
15.49
15.25
14.58
13.60
12.25
10.50
8.47
6.49
4.98
4.26
4.41
5.22
6.24
7.02
7.24
6.80
5.79
4.38
2.72
0.90
-1.00
-2.93
-4.83
-6.68
-8.56
-10.64
-13.09
-15.99
-19.21
-22.39
-25.00
-26.50
-26.47
-24.74
-21.41
-16.83
-11.52
-6.05
-0.96
3.31
6.46
8.35
9.02
8.67
7.58
6.08
4.49
3.04
1.89
1.12
0.75
0.78
1.13
1.73
2.46
3.16
3.66
3.76
3.35
2.37
0.93
-0.74
-2.37
-3.75
-4.80
-5.63
-6.42
-7.39
-8.68
-10.35
-12.40
-14.78
-17.36
-19.84
-21.71
-22.37
-21.25
-18.14
-13.30
-7.43
-1.42
3.93
8.19
11.23
13.16
14.07
13.97
12.87
10.95
8.60
6.43
5.03
4.72
5.40
6.66
7.98
8.93
9.38
9.36
9.05
8.59
8.03
7.35
6.49
5.42
4.15
2.69
1.09
-0.59
-2.27
-3.85
-5.28
-6.60
-7.98
-9.62
-11.64
-13.92
-16.11
-17.62
-17.90
-16.56
-13.58
-9.23
-4.01
1.48
6.75
11.34
14.96
17.40
18.60
18.65
17.80
16.40
14.82
13.39
12.29
11.59
11.31
11.43
11.91
12.73
13.78
14.91
15.96
16.80
17.40
17.78
17.90
17.64
16.76
15.10
12.70
9.92
7.35
5.51
4.65
4.49
4.43
3.78
2.14
-0.44
-3.44
-6.18
-8.03
-8.73
-8.33
-7.07
-5.21
-2.86
-0.11
2.95
6.05
8.71
10.48
11.10
10.62
9.42
8.01
6.81
6.02
5.55
5.26
5.04
4.93
5.07
5.58
6.47
7.57
8.55
9.09
8.98
8.21
6.95
5.45
3.93
2.49
1.11
-0.30
-1.74
-3.14
-4.45
-5.69
-6.98
-8.56
-10.60
-13.13
-16.04
-19.09
-21.96
-24.34
-25.91
-26.33
-25.37
-23.00
-19.44
-15.19
-10.90
-7.18
-4.37
-2.48
-1.37
-0.76
-0.53
-0.63
-1.09
-1.86
-2.78
-3.49
-3.65
-3.08
-1.82
-0.15
1.54
2.95
3.99
4.70
5.23
5.65
5.92
5.89
5.43
4.53
3.29
1.88
0.48
-0.83
-2.03
-3.15
-4.16
-5.06
-5.81
-6.47
-7.15
-8.02
-9.16
-10.53
-11.90
-12.88
-13.05
-12.04
-9.66
-5.98
-1.39
3.53
8.12
11.83
14.37
15.82
16.43
16.55
16.39
16.00
15.32
14.32
13.13
12.03
11.34
11.35
12.14
13.55
15.26
16.87
18.00
18.50
18.43
18.08
17.91
18.29
19.48
21.39
23.65
25.55
26.21
24.83
20.92
14.57
6.43
-2.42
-10.80
-17.82
-23.05
-26.61
-28.96
-30.57
-31.72
-32.43
-32.45
-31.50
-29.43
-26.29
-22.34
-17.96
-13.53
-9.35
-5.59
-2.39
0.20
2.02
2.98
3.01
2.23
0.94
-0.39
-1.31
-1.41
-0.56
1.11
3.26
5.46
7.38
8.91
10.15
11.33
12.61
14.00
15.30
16.16
16.27
15.44
13.68
11.17
8.17
4.96
1.68
-1.58
-4.80
-7.96
-11.03
-13.96
-16.73
-19.35
-21.85
-24.24
-26.36
-27.91
-28.46
-27.67
-25.39
-21.79
-17.33
-12.56
-8.01
-4.04
-0.84
1.48
2.91
3.45
3.23
2.47
1.48
0.53
-0.19
-0.58
-0.62
-0.32
0.32
1.26
2.36
3.47
4.39
5.01
5.27
5.20
4.83
4.18
3.21
1.92
0.37
-1.31
-2.95
-4.39
-5.59
-6.58
-7.49
-8.43
-9.48
-10.64
-11.90
-13.27
-14.73
-16.17
-17.36
-17.96
-17.62
-16.12
-13.53
-10.19
-6.66
-3.46
-0.95
0.81
1.97
2.74
3.22
3.34
2.92
1.90
0.39
-1.18
-2.27
-2.42
-1.48
0.30
2.40
4.32
5.83
6.96
7.87
8.67
9.22
9.24
8.48
6.97
5.02
3.11
1.59
0.51
-0.36
-1.34
-2.63
-4.18
-5.85
-7.54
-9.30
-11.28
-13.49
-15.72
-17.46
-18.12
-17.23
-14.69
-10.80
-6.11
-1.28
3.16
6.80
9.48
11.16
11.94
11.91
11.20
9.89
8.09
6.02
4.05
2.57
1.94
2.20
3.13
4.30
5.32
6.00
6.48
6.98
7.67
8.42
8.91
8.78
7.87
6.37
4.73
3.40
2.64
2.31
2.04
1.42
0.21
-1.54
-3.59
-5.68
-7.68
-9.63
-11.62
-13.55
-15.11
-15.82
-15.26
-13.24
-9.93
-5.79
-1.33
2.95
6.73
9.74
11.80
12.74
12.49
11.15
8.98
6.38
3.79
1.59
0.03
-0.77
-0.81
-0.19
0.90
2.22
3.47
4.43
4.96
5.06
4.85
4.48
4.09
3.75
3.42
3.01
2.35
1.25
-0.43
-2.67
-5.30
-7.94
-10.17
-11.68
-12.44
-12.71
-12.94
-13.54
-14.75
-16.49
-18.49
-20.41
-21.94
-22.80
-22.71
-21.39
-18.63
-14.50
-9.42
-4.13
0.48
3.74
5.34
5.45
4.51
3.02
1.35
-0.27
-1.71
-2.80
-3.29
-2.98
-1.80
0.05
2.23
4.32
6.03
7.25
8.02
8.46
8.65
8.56
8.15
7.35
6.19
4.79
3.31
1.91
0.69
-0.41
-1.54
-2.92
-4.76
-7.06
-9.59
-11.87
-13.30
-13.40
-11.94
-9.04
-5.08
-0.58
4.03
8.42
12.34
15.56
17.85
18.98
18.84
17.55
15.42
12.94
10.59
8.74
7.56
7.05
7.09
7.50
8.13
8.87
9.62
10.27
10.68
10.70
10.19
9.12
7.53
5.60
3.53
1.50
-0.39
-2.10
-3.69
-5.28
-6.96
-8.88
-11.12
-13.71
-16.54
-19.38
-21.82
-23.39
-23.63
-22.29
-19.37
-15.18
-10.21
-5.03
-0.15
4.05
7.34
9.59
10.74
10.83
10.03
8.64
7.01
5.51
4.38
3.69
3.40
3.45
3.82
4.54
5.71
7.28
9.09
10.76
11.86
12.02
11.09
9.24
6.82
4.27
1.92
-0.11
-1.94
-3.79
-5.86
-8.22
-10.74
-13.16
-15.07
-16.12
-16.00
-14.57
-11.82
-7.97
-3.38
1.43
5.93
9.62
12.18
13.46
13.53
12.61
10.95
8.88
6.77
4.92
3.61
2.99
3.03
3.53
4.22
4.85
5.28
5.48
5.48
5.30
4.92
4.31
3.43
2.33
1.10
-0.20
-1.53
-2.99
-4.73
-6.88
-9.47
-12.35
-15.12
-17.27
-18.24
-17.65
-15.45
-11.89
-7.51
-2.87
1.54
5.39
8.51
10.77
12.07
12.34
11.64
10.20
8.39
6.73
5.68
5.57
6.46
8.12
10.14
12.05
13.53
14.43
14.82
14.81
14.49
13.83
12.75
11.24
9.45
7.68
6.21
5.19
4.54
3.98
3.21
2.01
0.38
-1.62
-3.87
-6.27
-8.69
-10.92
-12.58
-13.22
-12.41
-9.99
-6.13
-1.33
3.75
8.48
12.40
15.30
17.15
18.00
17.95
17.16
15.85
14.36
13.10
12.44
12.62
13.62
15.21
16.98
18.57
19.73
20.43
20.78
20.96
21.02
20.92
20.58
19.85
18.73
17.27
15.53
13.52
11.22
8.58
5.55
2.18
-1.40
-4.98
-8.27
-10.88
-12.44
-12.70
-11.59
-9.33
-6.33
-3.11
-0.11
2.40
4.30
5.54
6.02
5.67
4.46
2.49
0.08
-2.36
-4.43
-5.85
-6.51
-6.46
-5.84
-4.86
-3.74
-2.71
-1.99
-1.73
-1.98
-2.67
-3.63
-4.64
-5.54
-6.28
-6.90
-7.51
-8.23
-9.12
-10.19
-11.39
-12.65
-13.93
-15.20
-16.49
-17.86
-19.34
-20.94
-22.58
-24.05
-25.02
-25.13
-24.02
-21.51
-17.63
-12.70
-7.22
-1.82
2.92
6.54
8.74
9.50
8.98
7.55
5.66
3.75
2.16
1.08
0.56
0.57
1.09
2.03
3.26
4.55
5.60
6.16
6.14
5.61
4.77
3.87
3.06
2.34
1.66
0.91
0.05
-0.89
-1.87
-2.86
-3.85
-4.88
-5.98
-7.19
-8.56
-10.16
-12.02
-14.14
-16.38
-18.48
-20.02
-20.55
-19.71
-17.39
-13.77
-9.33
-4.65
-0.26
3.53
6.55
8.80
10.21
10.69
10.16
8.68
6.56
4.34
2.63
1.84
2.07
3.08
4.42
5.65
6.53
6.98
7.08
6.96
6.68
6.28
5.79
5.26
4.69
4.02
3.09
1.76
-0.05
-2.23
-4.48
-6.44
-7.85
-8.77
-9.47
-10.34
-11.69
-13.53
-15.60
-17.49
-18.80
-19.34
-19.07
-18.00
-16.09
-13.25
-9.40
-4.71
0.39
5.15
8.87
11.08
11.77
11.35
10.43
9.56
9.01
8.72
8.43
7.93
7.28
6.74
6.67
7.29
8.53
10.03
11.35
12.16
12.43
12.41
12.40
12.61
12.99
13.24
13.03
12.13
10.57
8.58
6.55
4.72
3.23
1.95
0.64
-0.92
-2.87
-5.22
-7.89
-10.69
-13.31
-15.38
-16.50
-16.34
-14.79
-12.02
-8.43
-4.48
-0.59
2.92
5.87
8.11
9.52
9.99
9.58
8.52
7.15
5.83
4.79
4.05
3.52
3.07
2.61
2.19
1.91
1.79
1.83
1.87
1.74
1.32
0.61
-0.31
-1.27
-2.22
-3.19
-4.27
-5.59
-7.16
-8.91
-10.64
-12.14
-13.26
-13.93
-14.21
-14.22
-14.20
-14.39
-14.97
-15.97
-17.22
-18.32
-18.82
-18.31
-16.59
-13.73
-10.01
-5.82
-1.56
2.43
5.87
8.55
10.34
11.18
11.12
10.33
9.11
7.82
6.83
6.43
6.72
7.57
8.68
9.73
10.51
10.97
11.19
11.30
11.30
11.10
10.59
9.69
8.41
6.82
5.02
3.07
0.98
-1.19
-3.39
-5.50
-7.46
-9.27
-11.01
-12.79
-14.70
-16.75
-18.81
-20.62
-21.83
-22.09
-21.14
-18.88
-15.41
-11.01
-6.05
-0.89
4.06
8.48
12.02
14.48
15.82
16.20
15.96
15.49
15.12
14.95
14.93
14.87
14.65
14.22
13.65
13.11
12.69
12.44
12.26
12.04
11.62
10.96
10.06
9.03
7.93
6.78
5.53
4.10
2.49
0.74
-1.04
-2.76
-4.49
-6.37
-8.55
-11.08
-13.71
-15.95
-17.23
-17.10
-15.50
-12.73
-9.33
-5.81
-2.53
0.43
3.07
5.36
7.06
7.86
7.58
6.28
4.39
2.51
1.16
0.63
0.80
1.31
1.77
1.92
1.72
1.31
0.85
0.43
-0.03
-0.68
-1.63
-2.86
-4.21
-5.46
-6.47
-7.20
-7.88
-8.86
-10.47
-12.83
-15.79
-18.87
-21.45
-22.89
-22.83
-21.24
-18.38
-14.75
-10.81
-6.97
-3.46
-0.42
2.05
3.90
5.07
5.54
5.34
4.59
3.46
2.17
0.94
-0.02
-0.57
-0.67
-0.34
0.30
1.14
2.06
2.99
3.86
4.61
5.12
5.27
4.87
3.83
2.20
0.18
-1.93
-3.84
-5.39
-6.62
-7.76
-9.06
-10.70
-12.66
-14.74
-16.64
-18.06
-18.79
-18.76
-17.93
-16.31
-13.93
-10.86
-7.31
-3.64
-0.32
2.21
3.66
4.01
3.46
2.36
1.03
-0.33
-1.59
-2.68
-3.44
-3.69
-3.27
-2.18
-0.60
1.12
2.65
3.81
4.59
5.12
5.53
5.81
5.86
5.54
4.77
3.65
2.34
1.03
-0.22
-1.48
-2.94
-4.73
-6.80
-8.88
-10.53
-11.21
-10.51
-8.29
-4.74
-0.39
4.10
8.09
11.17
13.17
14.17
14.35
13.83
12.71
11.02
8.85
6.41
4.04
2.13
0.99
0.74
1.29
2.36
3.64
4.85
5.85
6.60
7.08
7.21
6.85
5.84
4.08
1.64
-1.26
-4.31
-7.15
-9.48
-11.13
-12.02
-12.14
-11.52
-10.18
-8.14
-5.50
-2.46
0.71
3.65
6.05
7.68
8.48
8.47
7.74
6.41
4.62
2.57
0.59
-0.92
-1.57
-1.15
0.30
2.48
4.91
7.10
8.71
9.62
9.95
9.89
9.64
9.24
8.70
7.98
7.14
6.33
5.71
5.33
5.03
4.52
3.49
1.76
-0.60
-3.31
-5.95
-8.11
-9.44
-9.73
-8.90
-7.00
-4.23
-0.92
2.56
5.81
8.59
10.71
12.09
12.70
12.54
11.60
10.01
7.95
5.71
3.65
2.06
1.17
1.09
1.78
3.09
4.75
6.41
7.72
8.41
8.32
7.47
6.04
4.26
2.33
0.41
-1.39
-3.08
-4.67
-6.27
-8.01
-10.05
-12.41
-14.92
-17.21
-18.80
-19.25
-18.35
-16.20
-13.18
-9.81
-6.60
-3.88
-1.81
-0.44
0.21
0.17
-0.50
-1.61
-2.92
-4.15
-5.08
-5.61
-5.70
-5.33
-4.50
-3.23
-1.66
-0.05
1.28
2.07
2.26
2.02
1.53
0.89
0.01
-1.28
-3.09
-5.35
-7.82
-10.16
-12.14
-13.64
-14.54
-14.63
-13.68
-11.41
-7.81
-3.22
1.69
6.07
9.25
10.93
11.28
10.77
9.96
9.20
8.54
7.81
6.89
5.83
4.92
4.56
4.99
6.15
7.59
8.77
9.28
9.10
8.50
7.91
7.59
7.53
7.37
6.69
5.21
3.03
0.47
-2.02
-4.10
-5.71
-7.08
-8.51
-10.24
-12.24
-14.25
-15.83
-16.56
-16.16
-14.53
-11.84
-8.38
-4.50
-0.58
3.09
6.30
8.90
10.79
11.89
12.13
11.53
10.19
8.34
6.32
4.48
3.13
2.48
2.60
3.44
4.89
6.72
8.69
10.55
12.07
13.09
13.54
13.42
12.77
11.65
10.09
8.19
6.10
3.94
1.83
-0.26
-2.41
-4.72
-7.14
-9.39
-11.06
-11.70
-11.10
-9.32
-6.72
-3.75
-0.79
1.99
4.53
6.79
8.61
9.73
9.91
9.09
7.48
5.50
3.61
2.20
1.43
1.25
1.51
2.06
2.80
3.67
4.62
5.48
6.02
5.98
5.20
3.74
1.84
-0.17
-2.00
-3.54
-4.89
-6.19
-7.64
-9.35
-11.33
-13.51
-15.68
-17.57
-18.76
-18.87
-17.64
-15.07
-11.46
-7.26
-2.95
1.11
4.74
7.75
9.95
11.09
10.95
9.58
7.35
4.92
3.00
2.08
2.28
3.32
4.73
6.10
7.17
7.92
8.38
8.53
8.23
7.31
5.70
3.52
1.09
-1.23
-3.18
-4.72
-5.98
-7.20
-8.53
-9.94
-11.33
-12.58
-13.71
-14.79
-15.88
-16.85
-17.29
-16.74
-14.83
-11.62
-7.53
-3.22
0.73
4.02
6.68
8.85
10.60
11.79
12.15
11.53
10.03
8.06
6.18
4.93
4.53
4.96
5.93
7.10
8.17
8.99
9.49
9.69
9.58
9.11
8.22
6.90
5.26
3.54
1.97
0.76
-0.17
-1.06
-2.25
-4.01
-6.36
-9.09
-11.87
-14.34
-16.34
-17.72
-18.43
-18.30
-17.14
-14.80
-11.39
-7.23
-2.82
1.29
4.73
7.32
9.04
9.95
10.10
9.54
8.39
6.89
5.35
4.13
3.51
3.60
4.35
5.58
7.04
8.50
9.77
10.69
11.20
11.24
10.83
10.08
9.10
8.07
7.10
6.25
5.49
4.74
3.87
2.79
1.46
-0.14
-1.99
-4.11
-6.50
-9.07
-11.59
-13.67
-14.89
-14.90
-13.61
-11.25
-8.26
-5.08
-2.11
0.50
2.68
4.41
5.67
6.40
6.56
6.23
5.56
4.76
4.01
3.44
3.08
2.92
2.91
3.01
3.23
3.58
4.08
4.67
5.18
5.42
5.18
4.38
3.07
1.41
-0.37
-2.12
-3.75
-5.27
-6.74
-8.23
-9.75
-11.30
-12.85
-14.37
-15.82
-17.12
-18.14
-18.73
-18.63
-17.59
-15.46
-12.30
-8.39
-4.24
-0.37
2.79
5.02
6.34
6.94
6.99
6.62
5.86
4.74
3.39
2.04
1.04
0.67
1.01
1.93
3.08
4.07
4.66
4.80
4.64
4.43
4.29
4.21
3.94
3.23
1.92
0.07
-2.09
-4.28
-6.31
-8.18
-9.96
-11.60
-12.90
-13.42
-12.72
-10.57
-7.09
-2.77
1.72
5.79
9.06
11.46
13.05
13.95
14.18
13.70
12.49
10.65
8.46
6.32
4.64
3.70
3.56
4.07
4.95
5.91
6.73
7.28
7.53
7.45
6.98
6.03
4.55
2.63
0.53
-1.40
-2.84
-3.67
-4.05
-4.33
-4.92
-6.09
-7.88
-10.08
-12.37
-14.35
-15.67
-16.10
-15.51
-13.89
-11.35
-8.11
-4.44
-0.68
2.81
5.67
7.61
8.49
8.34
7.42
6.07
4.65
3.42
2.50
1.89
1.58
1.57
1.89
2.54
3.46
4.56
5.66
6.61
7.29
7.60
7.48
6.89
5.81
4.31
2.49
0.49
-1.52
-3.43
-5.19
-6.81
-8.30
-9.63
-10.61
-11.00
-10.54
-9.05
-6.54
-3.20
0.62
4.49
8.00
10.86
12.87
13.96
14.16
13.53
12.20
10.40
8.43
6.66
5.39
4.83
4.93
5.50
6.17
6.66
6.78
6.52
5.99
5.30
4.54
3.70
2.72
1.53
0.12
-1.53
-3.40
-5.47
-7.66
-9.82
-11.68
-12.96
-13.41
-12.94
-11.55
-9.37
-6.57
-3.35
0.01
3.15
5.67
7.26
7.75
7.26
6.09
4.55
2.91
1.29
-0.20
-1.46
-2.26
-2.42
-1.89
-0.86
0.30
1.25
1.85
2.19
2.44
2.73
2.95
2.80
1.99
0.48
-1.52
-3.55
-5.17
-6.20
-6.75
-7.28
-8.31
-10.23
-13.07
-16.46
-19.68
-21.89
-22.43
-21.06
-18.00
-13.86
-9.31
-4.91
-0.99
2.33
5.01
6.94
8.01
8.08
7.20
5.56
3.51
1.45
-0.24
-1.30
-1.58
-1.14
-0.11
1.26
2.69
3.93
4.82
5.28
5.29
4.85
4.01
2.79
1.28
-0.44
-2.20
-3.90
-5.52
-7.15
-8.97
-11.14
-13.64
-16.15
-18.10
-18.81
-17.78
-14.93
-10.66
-5.77
-1.09
2.75
5.51
7.31
8.38
8.89
8.83
8.08
6.63
4.68
2.64
1.01
0.14
0.11
0.76
1.77
2.84
3.74
4.38
4.67
4.57
4.07
3.22
2.07
0.70
-0.84
-2.52
-4.37
-6.39
-8.59
-10.91
-13.16
-15.04
-16.11
-15.92
-14.17
-10.88
-6.42
-1.39
3.58
8.00
11.62
14.37
16.21
17.10
16.94
15.72
13.68
11.27
9.10
7.73
7.45
8.23
9.69
11.37
12.78
13.66
13.93
13.73
13.26
12.69
12.09
11.40
10.47
9.16
7.41
5.32
3.08
0.92
-1.01
-2.73
-4.39
-6.17
-8.17
-10.33
-12.42
-14.17
-15.27
-15.51
-14.76
-13.01
-10.33
-6.86
-2.85
1.43
5.62
9.38
12.39
14.39
15.26
15.07
14.08
12.66
11.19
10.02
9.32
9.15
9.45
10.13
11.00
11.83
12.36
12.37
11.81
10.79
9.54
8.28
7.08
5.86
4.47
2.82
1.03
-0.70
-2.13
-3.20
-4.09
-5.12
-6.60
-8.57
-10.76
-12.68
-13.78
-13.69
-12.38
-10.12
-7.29
-4.24
-1.18
1.84
4.74
7.41
9.47
10.54
10.30
8.77
6.34
3.66
1.40
0.06
-0.27
0.20
1.13
2.22
3.35
4.49
5.62
6.66
7.43
7.78
7.62
6.97
5.93
4.60
3.10
1.50
-0.16
-1.81
-3.42
-5.00
-6.51
-7.97
-9.36
-10.64
-11.88
-13.24
-14.87
-16.86
-19.05
-21.00
-22.14
-21.89
-19.97
-16.50
-11.94
-7.00
-2.32
1.67
4.78
7.01
8.44
9.11
9.00
8.15
6.67
4.86
3.12
1.85
1.36
1.73
2.80
4.27
5.79
7.11
8.07
8.66
8.90
8.83
8.44
7.70
6.61
5.21
3.62
1.99
0.42
-1.02
-2.36
-3.63
-4.83
-5.96
-6.96
-7.84
-8.67
-9.63
-10.90
-12.59
-14.64
-16.74
-18.44
-19.21
-18.66
-16.62
-13.22
-8.87
-4.12
0.44
4.31
7.21
9.07
9.96
10.08
9.59
8.67
7.44
6.07
4.79
3.82
3.34
3.38
3.85
4.56
5.32
6.00
6.56
6.99
7.30
7.47
7.48
7.30
6.88
6.24
5.36
4.29
3.08
1.79
0.43
-1.04
-2.62
-4.26
-5.85
-7.22
-8.28
-9.04
-9.72
-10.56
-11.73
-13.18
-14.56
-15.39
-15.23
-13.81
-11.16
-7.58
-3.48
0.66
4.46
7.61
9.92
11.26
11.63
11.14
10.01
8.54
7.01
5.67
4.62
3.97
3.72
3.90
4.47
5.39
6.57
7.86
9.13
10.21
10.96
11.25
11.01
10.26
9.15
7.85
6.53
5.27
4.06
2.78
1.37
-0.19
-1.84
-3.49
-5.07
-6.56
-7.99
-9.45
-11.03
-12.80
-14.68
-16.51
-17.96
-18.68
-18.35
-16.85
-14.25
-10.83
-7.00
-3.21
0.14
2.73
4.39
5.09
4.94
4.13
2.88
1.41
-0.13
-1.59
-2.79
-3.55
-3.69
-3.14
-2.03
-0.59
0.83
1.97
2.70
3.07
3.23
3.29
3.28
3.09
2.58
1.66
0.38
-1.12
-2.63
-4.02
-5.19
-6.15
-6.97
-7.72
-8.53
-9.54
-10.85
-12.50
-14.35
-16.12
-17.42
-17.84
-17.09
-15.09
-11.97
-8.04
-3.71
0.58
4.36
7.32
9.23
9.99
9.68
8.48
6.65
4.53
2.50
0.88
-0.08
-0.23
0.38
1.58
3.07
4.55
5.82
6.82
7.64
8.37
9.02
9.46
9.43
8.70
7.18
5.02
2.54
0.13
-1.95
-3.64
-5.08
-6.52
-8.12
-9.97
-12.01
-14.15
-16.28
-18.25
-19.91
-21.02
-21.27
-20.37
-18.18
-14.74
-10.37
-5.53
-0.84
3.17
6.11
7.79
8.33
7.98
7.11
6.09
5.13
4.33
3.69
3.26
3.12
3.45
4.36
5.81
7.54
9.13
10.18
10.48
10.09
9.25
8.29
7.41
6.60
5.72
4.60
3.18
1.52
-0.23
-2.04
-3.91
-5.96
-8.20
-10.43
-12.25
-13.16
-12.74
-10.88
-7.75
-3.83
0.34
4.31
7.74
10.47
12.37
13.32
13.21
11.98
9.75
6.82
3.71
0.95
-1.02
-1.97
-1.93
-1.14
0.09
1.46
2.74
3.74
4.38
4.59
4.34
3.62
2.47
0.99
-0.70
-2.42
-4.03
-5.48
-6.78
-8.03
-9.38
-10.91
-12.68
-14.66
-16.80
-19.02
-21.10
-22.70
-23.36
-22.67
-20.36
-16.52
-11.56
-6.11
-0.81
3.90
7.77
10.78
12.95
14.26
14.68
14.24
13.12
11.67
10.36
9.66
9.83
10.86
12.41
13.95
14.99
15.27
14.90
14.31
14.06
14.58
15.99
18.06
20.36
22.50
24.35
26.03
27.86
30.13
32.92
36.09
39.32
42.41
45.43
48.80
53.22
59.45
68.05
79.29
93.00
108.38
123.70
136.07
141.75
137.14
120.12
91.31
54.32
14.77
-21.48
-50.23
-69.89
-81.31
-86.68
-88.35
-88.16
-87.37
-87.04
-88.25
-91.95
-98.65
-108.04
-119.02
-130.11
-139.91
-147.54
-152.94
-156.79
-160.12
-163.96
-168.73
-174.17
-179.37
-183.16
-184.56
-183.05
-178.75
-172.26
-164.51
-156.59
-149.63
-144.58
-142.07
-142.01
-143.20
-143.22
-138.78
-126.58
-104.63
-72.90
-33.45
10.35
55.08
98.30
138.81
176.28
210.59
241.69
269.82
295.89
321.51
348.32
376.88
406.04
433.09
454.79
468.79
474.43
473.00
466.96
458.93
450.76
443.06
435.40
426.81
416.46
404.04
389.90
374.62
358.75
342.10
324.08
303.91
281.13
255.82
228.33
198.83
166.98
131.81
92.18
47.13
-3.82
-60.44
-121.49
-184.44
-245.37
-299.47
-342.20
-370.71
-384.89
-387.32
-382.25
-373.83
-364.76
-355.93
-347.12
-338.22
-329.99
-323.87
-321.11
-321.61
-323.65
-324.54
-321.75
-314.05
-301.83
-286.72
-270.53
-254.35
-238.21
-221.55
-203.98
-185.90
-168.65
-153.82
-142.36
-133.86
-126.48
-117.74
-105.71
-89.97
-71.84
-53.82
-38.56
-27.94
-22.68
-22.59
-27.19
-36.02
-48.70
-64.53
-82.21
-99.76
-114.94
-125.91
-131.86
-133.22
-131.34
-127.96
-124.47
-121.41
-118.34
-114.20
-107.84
-98.57
-86.51
-72.58
-58.14
-44.58
-32.82
-23.22
-15.62
-9.54
-4.53
-0.17
3.88
8.10
13.13
19.55
27.61
36.87
46.34
54.87
61.82
67.52
73.34
81.20
92.82
109.07
129.57
152.91
177.18
200.61
221.96
240.61
256.23
268.48
276.83
280.76
280.14
275.63
268.78
261.48
255.34
251.03
248.03
244.96
239.98
231.36
217.71
198.15
172.35
140.69
104.36
65.32
25.97
-11.54
-45.79
-76.33
-103.52
-128.10
-150.69
-171.33
-189.42
-204.00
-214.16
-219.63
-220.71
-218.50
-214.85
-211.99
-211.72
-214.82
-220.79
-228.20
-235.66
-241.81
-245.88
-247.91
-248.42
-247.74
-245.64
-241.53
-235.07
-227.02
-218.11
-208.82
-199.39
-189.70
-179.15
-166.74
-151.47
-132.62
-110.33
-83.73
-51.24
-11.36
36.30
90.70
149.56
209.86
270.77
325.36
365.70
387.50
392.13
383.90
366.70
342.98
314.49
283.45
251.92
223.28
200.58
184.71
173.91
164.80
154.08
139.80
121.93
100.24
76.31
52.44
30.17
9.77
-9.44
-28.42
-48.13
-69.44
-93.86
-120.81
-147.35
-168.56
-178.92
-174.30
-153.99
-121.74
-79.90
-37.18
-2.12
20.08
28.72
26.48
17.36
4.68
-9.53
-23.95
-38.00
-49.88
-57.68
-60.69
-60.19
-58.98
-60.18
-65.57
-74.90
-86.83
-99.01
-109.30
-116.50
-120.13
-119.79
-114.67
-103.65
-85.71
-61.06
-30.66
3.76
39.70
74.18
103.93
125.76
137.08
136.38
123.24
98.73
65.07
25.38
-16.64
-57.05
-92.10
-118.97
-136.31
-144.51
-145.15
-140.20
-131.33
-119.58
-105.67
-90.41
-74.95
-60.57
-48.22
-38.12
-29.75
-22.16
-14.44
-6.18
2.56
11.22
19.14
25.89
31.47
36.40
41.53
47.70
55.39
64.60
74.90
85.65
96.42
107.15
118.21
130.28
144.16
160.72
180.80
204.85
232.53
262.08
290.27
312.91
326.09
327.48
317.11
297.20
271.17
242.32
213.03
184.55
157.38
131.78
107.91
85.76
64.97
44.84
24.66
4.13
-16.44
-36.22
-54.19
-69.56
-82.09
-92.19
-100.79
-109.07
-117.98
-127.80
-137.85
-146.51
-151.80
-152.04
-146.53
-135.93
-121.99
-106.99
-92.78
-80.29
-69.31
-58.88
-47.89
-35.66
-22.17
-7.93
6.45
20.57
34.34
47.73
60.52
72.14
81.89
89.28
94.32
97.50
99.56
101.10
102.36
103.35
104.03
104.59
105.33
106.48
107.87
108.89
108.63
106.19
101.11
93.49
84.03
73.80
63.90
55.13
47.69
41.24
35.02
28.21
20.28
11.13
1.06
-9.47
-20.09
-30.61
-41.04
-51.58
-62.46
-74.00
-86.56
-100.40
-115.59
-131.90
-148.88
-166.08
-183.16
-199.99
-216.48
-232.32
-246.79
-258.71
-266.69
-269.37
-265.80
-255.55
-238.81
-216.32
-189.26
-159.07
-127.23
-95.12
-63.75
-33.72
-5.17
22.02
48.07
73.14
97.31
120.48
142.54
163.31
182.50
199.72
214.38
225.74
233.19
236.38
235.45
230.82
222.96
212.10
198.32
181.81
163.23
143.74
124.62
106.61
89.56
72.50
54.47
35.20
15.57
-2.78
-18.18
-29.73
-37.39
-41.74
-43.35
-42.61
-39.80
-35.49
-30.70
-26.74
-24.72
-25.21
-28.08
-32.85
-38.95
-46.07
-54.16
-63.32
-73.60
-84.87
-96.85
-109.00
-120.53
-130.39
-137.34
-140.25
-138.21
-130.79
-118.06
-100.69
-79.93
-57.61
-35.84
-16.71
-1.60
9.07
15.86
19.79
21.76
22.22
21.46
19.91
18.36
17.31
16.24
13.07
4.79
-10.90
-33.83
-60.60
-85.32
-101.90
-106.44
-98.75
-82.14
-61.83
-42.83
-28.41
-19.45
-14.86
-12.46
-9.99
