1553701171.00
64.000000
-0.00
-0.00
-0.00
-0.00
-0.00
-0.00
-0.00
-0.00
-0.00
-0.00
0.00
0.01
0.01
-0.00
-0.03
-0.05
-0.05
0.00
0.13
0.36
0.66
1.01
1.37
1.72
2.06
2.40
2.79
3.24
3.80
4.42
5.06
5.66
6.20
6.68
7.15
7.68
8.31
9.14
10.09
11.04
11.88
12.56
13.14
13.76
14.65
15.96
17.91
20.32
22.90
25.38
27.58
29.57
31.68
34.32
37.81
42.54
48.15
54.10
59.83
64.97
69.58
74.14
79.34
85.71
93.76
103.00
112.62
121.73
129.77
136.75
143.30
150.75
157.77
166.64
177.95
191.79
206.97
220.57
228.25
225.36
208.53
176.87
132.76
80.05
23.07
-34.94
-92.44
-149.16
-205.23
-260.37
-313.74
-363.87
-409.83
-450.91
-486.50
-515.74
-537.23
-549.22
-549.96
-538.37
-514.21
-478.67
-433.88
-382.45
-327.02
-269.84
-212.63
-156.66
-102.95
-52.37
-5.90
35.58
71.43
101.35
125.50
144.38
158.69
169.15
176.37
180.75
182.57
182.07
179.51
175.23
169.65
163.18
156.15
148.81
141.30
133.69
126.02
118.33
110.69
103.16
95.80
88.68
81.83
75.25
68.95
62.95
57.25
51.86
46.78
42.03
37.59
33.45
29.61
26.07
22.81
19.83
17.11
14.67
12.48
10.54
8.83
7.35
6.07
4.97
4.05
3.27
2.62
2.09
1.65
1.30
1.01
0.79
0.61
0.47
0.37
0.29
0.23
0.18
0.16
0.14
0.13
0.14
0.15
0.17
0.20
0.23
0.26
0.30
0.34
0.39
0.43
0.48
0.53
0.58
0.63
0.68
0.74
0.80
0.87
0.94
1.03
1.12
1.22
1.33
1.46
1.60
1.76
1.94
2.14
2.36
2.60
2.87
3.17
3.50
3.86
4.25
4.68
5.14
5.64
6.17
6.74
7.37
8.04
8.77
9.53
10.31
11.10
11.88
12.68
13.53
14.47
15.51
16.67
17.88
19.13
20.34
21.44
22.36
23.04
23.42
23.39
22.84
21.63
19.66
16.86
13.27
8.99
4.27
-0.60
-5.35
-9.78
-13.80
-17.41
-20.63
-23.45
-25.76
-27.38
-28.15
-28.04
-27.17
-25.91
-24.72
-23.99
-23.89
-24.28
-24.75
-24.88
-24.35
-23.23
-21.92
-21.05
-21.16
-22.44
-24.61
-26.99
-28.92
-29.88
-29.85
-29.25
-28.71
-28.92
-30.46
-33.70
-38.62
-44.56
-49.91
-52.38
-49.66
-40.45
-25.33
-6.83
11.36
25.81
34.55
37.66
36.87
34.37
31.82
29.83
28.17
26.30
23.93
21.06
17.96
14.90
12.04
9.42
7.03
5.00
3.65
3.81
5.89
9.79
14.86
20.06
24.25
26.55
26.64
24.83
21.95
18.92
16.52
15.16
14.80
15.08
15.54
15.75
15.52
14.84
13.81
12.61
11.46
10.49
9.69
8.97
8.22
7.40
6.53
5.72
5.05
4.50
3.89
2.95
1.38
-1.03
-4.33
-8.43
-13.20
-18.40
-23.64
-28.38
-31.91
-33.56
-32.89
-29.84
-24.79
-18.47
-11.73
-5.34
0.10
4.21
6.78
7.72
7.08
5.09
2.20
-0.97
-3.72
-5.51
-6.08
-5.50
-4.12
-2.30
-0.32
1.70
3.79
5.97
8.16
10.12
11.61
12.38
12.37
11.56
10.11
8.22
6.20
4.32
2.80
1.73
0.99
0.41
-0.15
-0.65
-0.92
-0.72
0.14
1.62
3.52
5.48
7.23
8.51
9.20
9.21
8.56
7.30
5.55
3.40
0.89
-1.94
-4.98
-7.99
-10.57
-12.20
-12.39
-10.87
-7.64
-2.98
2.67
8.78
14.91
20.66
25.77
30.04
33.40
35.87
37.58
38.66
39.16
39.05
38.18
36.29
33.19
28.76
23.10
16.49
9.39
2.24
-4.48
-10.41
-15.28
-18.91
-21.18
-22.07
-21.75
-20.57
-19.02
-17.63
-16.82
-16.78
-17.47
-18.73
-20.35
-22.22
-24.22
-26.22
-27.95
-29.01
-29.02
-27.79
-25.43
-22.34
-19.04
-15.97
-13.28
-10.86
-8.44
-5.85
-3.06
-0.38
1.79
3.04
3.23
2.51
1.25
-0.12
-1.36
-2.50
-3.86
-5.79
-8.52
-11.84
-15.18
-17.71
-18.67
-17.73
-15.04
-11.28
-7.28
-3.76
-1.03
0.95
2.50
3.91
5.22
6.26
6.73
6.45
5.47
4.12
2.88
2.25
2.59
4.00
6.46
9.68
13.32
16.91
19.96
21.95
22.56
21.72
19.68
16.97
14.19
11.86
10.23
9.27
8.76
8.40
7.87
6.86
5.19
2.73
-0.41
-3.89
-7.20
-9.68
-10.85
-10.41
-8.38
-5.03
-0.83
3.61
7.60
10.49
11.86
11.64
10.23
8.23
6.28
4.85
4.11
4.01
4.47
5.42
6.79
8.34
9.65
10.20
9.56
7.63
4.74
1.45
-1.61
-4.14
-6.15
-7.87
-9.59
-11.40
-13.20
-14.76
-15.81
-16.37
-16.65
-17.03
-17.86
-19.25
-20.92
-22.33
-22.85
-22.18
-20.42
-18.01
-15.46
-13.00
-10.49
-7.62
-4.18
-0.51
2.65
4.49
4.58
3.25
1.42
0.16
0.16
1.32
2.95
4.23
4.68
4.46
4.14
4.31
5.22
6.51
7.52
7.61
6.48
4.36
1.81
-0.61
-2.49
-3.82
-4.83
-5.85
-7.18
-9.02
-11.38
-14.14
-16.93
-19.35
-20.94
-21.36
-20.44
-18.25
-15.02
-11.03
-6.55
-1.85
2.71
6.69
9.57
10.95
10.67
8.97
6.52
4.08
2.28
1.39
1.26
1.46
1.66
1.74
1.83
2.18
2.88
3.76
4.42
4.45
3.64
2.10
0.16
-1.78
-3.51
-5.02
-6.46
-8.01
-9.77
-11.74
-13.88
-16.18
-18.59
-20.96
-22.99
-24.21
-24.16
-22.60
-19.56
-15.43
-10.78
-6.20
-2.15
1.09
3.38
4.70
5.10
4.74
3.86
2.84
2.01
1.67
1.89
2.64
3.79
5.20
6.80
8.50
10.21
11.73
12.83
13.28
13.02
12.13
10.79
9.27
7.69
6.18
4.72
3.31
1.94
0.58
-0.90
-2.67
-4.91
-7.70
-10.82
-13.84
-16.10
-17.04
-16.34
-14.07
-10.71
-6.88
-3.19
-0.06
2.37
4.14
5.35
6.08
6.29
5.97
5.22
4.23
3.39
3.06
3.47
4.63
6.30
8.07
9.53
10.47
10.90
11.02
11.09
11.22
11.37
11.28
10.72
9.59
8.01
6.28
4.76
3.67
3.01
2.54
1.88
0.64
-1.39
-4.18
-7.40
-10.49
-12.86
-13.99
-13.57
-11.64
-8.44
-4.43
-0.07
4.12
7.75
10.44
11.92
12.10
11.03
9.03
6.48
3.82
1.37
-0.63
-2.09
-3.01
-3.40
-3.31
-2.78
-1.96
-1.07
-0.39
-0.24
-0.89
-2.40
-4.69
-7.54
-10.65
-13.79
-16.78
-19.49
-21.87
-23.93
-25.82
-27.85
-30.44
-33.96
-38.51
-43.78
-49.14
-53.80
-57.11
-58.76
-58.84
-57.68
-55.62
-52.83
-49.24
-44.63
-38.77
-31.61
-23.33
-14.27
-4.84
4.69
14.19
23.68
33.09
42.18
50.55
57.64
63.00
66.44
68.08
68.36
67.71
66.49
64.78
62.50
59.46
55.65
51.27
46.76
42.58
39.01
36.02
33.22
30.12
26.35
21.87
16.91
11.91
7.36
3.59
0.80
-0.89
-1.42
-0.80
0.90
3.48
6.61
9.89
12.94
15.45
17.19
18.09
18.15
17.51
16.35
14.90
13.34
11.80
10.35
9.05
7.95
7.13
6.63
6.46
6.53
6.70
6.86
6.90
6.72
6.33
5.72
5.02
4.38
4.00
3.99
4.26
4.52
4.30
3.16
0.90
-2.34
-6.03
-9.49
-12.12
-13.56
-13.77
-12.90
-11.15
-8.67
-5.62
-2.28
0.94
3.57
5.28
6.03
6.09
5.87
5.68
5.62
5.57
5.34
4.85
4.22
3.61
3.18
2.95
2.84
2.79
2.81
2.97
3.30
3.70
3.92
3.66
2.76
1.31
-0.37
-1.88
-2.95
-3.67
-4.38
-5.58
-7.63
-10.50
-13.78
-16.85
-19.13
-20.23
-20.07
-18.72
-16.35
-13.14
-9.27
-5.07
-0.98
2.51
4.97
6.20
6.31
5.63
4.62
3.66
2.97
2.58
2.31
1.98
1.47
0.80
0.15
-0.28
-0.40
-0.34
-0.28
-0.45
-0.92
-1.58
-2.18
-2.55
-2.78
-3.17
-4.13
-5.98
-8.69
-11.96
-15.31
-18.35
-20.84
-22.74
-23.97
-24.43
-23.86
-22.02
-18.79
-14.37
-9.23
-3.99
0.76
4.59
7.31
8.96
9.69
9.75
9.32
8.52
7.48
6.34
5.29
4.58
4.49
5.18
6.61
8.51
10.41
11.82
12.37
11.98
10.84
9.29
7.66
6.10
4.63
3.09
1.36
-0.65
-2.92
-5.40
-7.97
-10.50
-12.81
-14.59
-15.55
-15.47
-14.36
-12.47
-10.16
-7.81
-5.54
-3.29
-0.95
1.56
4.04
6.12
7.37
7.52
6.55
4.80
2.79
1.10
0.11
0.01
0.67
1.83
3.16
4.38
5.37
6.14
6.64
6.85
6.68
6.03
4.95
3.62
2.33
1.32
0.49
-0.49
-2.07
-4.57
-7.95
-11.68
-15.05
-17.41
-18.58
-18.75
-18.35
-17.72
-16.78
-15.19
-12.59
-8.96
-4.88
-1.22
1.25
2.24
2.09
1.52
1.15
1.20
1.31
0.95
-0.16
-1.76
-3.05
-3.22
-1.82
0.94
4.20
6.93
8.46
8.74
8.32
7.92
8.07
8.81
9.68
10.13
9.78
8.67
7.18
5.74
4.56
3.57
2.44
0.85
-1.25
-3.66
-5.91
-7.46
-7.93
-7.11
-5.08
-2.11
1.39
4.99
8.29
10.94
12.73
13.52
13.28
12.06
10.08
7.68
5.30
3.33
2.04
1.60
1.96
3.02
4.60
6.47
8.33
9.89
10.93
11.38
11.36
11.03
10.49
9.62
8.25
6.23
3.65
0.83
-1.81
-4.00
-5.79
-7.52
-9.66
-12.47
-15.82
-19.18
-21.89
-23.39
-23.46
-22.26
-20.18
-17.61
-14.81
-11.86
-8.82
-5.78
-3.03
-0.95
0.07
-0.08
-1.24
-2.91
-4.49
-5.46
-5.55
-4.84
-3.58
-2.15
-0.84
0.22
0.99
1.49
1.74
1.76
1.62
1.42
1.28
1.29
1.40
1.51
1.42
0.94
-0.07
-1.74
-4.09
-7.11
-10.60
-14.21
-17.44
-19.71
-20.61
-19.96
-17.87
-14.66
-10.77
-6.63
-2.61
1.00
3.94
5.99
7.04
7.12
6.40
5.19
3.85
2.68
1.91
1.66
1.94
2.72
3.87
5.23
6.58
7.71
8.47
8.85
8.92
8.84
8.74
8.61
8.36
7.79
6.79
5.35
3.59
1.76
0.01
-1.65
-3.34
-5.31
-7.70
-10.42
-13.14
-15.28
-16.27
-15.70
-13.49
-9.94
-5.58
-1.04
3.18
6.81
9.81
12.21
13.98
15.00
15.07
14.12
12.37
10.37
8.80
8.22
8.85
10.50
12.67
14.79
16.51
17.74
18.59
19.23
19.75
20.05
19.88
19.01
17.35
15.03
12.40
9.90
7.84
6.27
4.93
3.33
1.06
-2.04
-5.83
-9.86
-13.62
-16.68
-18.80
-19.87
-19.86
-18.74
-16.50
-13.24
-9.26
-5.06
-1.22
1.75
3.55
4.13
3.70
2.60
1.18
-0.29
-1.61
-2.65
-3.28
-3.38
-2.91
-1.86
-0.39
1.32
3.02
4.51
5.71
6.59
7.19
7.51
7.52
7.14
6.41
5.36
4.09
2.73
1.33
-0.12
-1.73
-3.71
-6.21
-9.29
-12.75
-16.22
-19.13
-20.99
-21.45
-20.49
-18.31
-15.31
-11.85
-8.23
-4.62
-1.18
1.95
4.60
6.62
7.92
8.50
8.42
7.84
6.97
6.10
5.51
5.46
6.11
7.38
9.04
10.78
12.32
13.52
14.38
14.98
15.41
15.69
15.69
15.27
14.28
12.71
10.66
8.37
6.05
3.83
1.68
-0.55
-3.01
-5.81
-8.87
-12.01
-15.06
-17.87
-20.37
-22.48
-24.02
-24.65
-24.01
-21.90
-18.38
-13.85
-8.94
-4.30
-0.40
2.55
4.54
5.66
6.01
5.71
4.97
4.06
3.29
2.89
2.90
3.24
3.74
4.34
5.15
6.27
7.76
9.44
10.95
11.92
12.09
11.57
10.64
9.60
8.59
7.47
5.96
3.80
0.97
-2.36
-5.88
-9.40
-12.94
-16.67
-20.76
-25.15
-29.52
-33.25
-35.71
-36.47
-35.40
-32.72
-28.82
-24.12
-18.98
-13.65
-8.34
-3.32
1.13
4.73
7.32
8.84
9.43
9.37
9.03
8.81
9.04
9.86
11.20
12.80
14.36
15.62
16.53
17.20
17.71
18.02
17.91
17.12
15.51
13.18
10.45
7.68
5.08
2.60
0.10
-2.57
-5.33
-7.95
-10.20
-12.06
-13.74
-15.67
-18.18
-21.31
-24.63
-27.41
-28.80
-28.20
-25.45
-20.90
-15.26
-9.33
-3.76
1.10
5.14
8.39
10.93
12.76
13.83
14.15
13.77
12.87
11.65
10.40
9.29
8.43
7.81
7.27
6.66
5.90
5.02
4.11
3.30
2.47
1.46
-0.00
-1.96
-4.19
-6.22
-7.60
-8.13
-8.03
-7.79
-7.89
-8.61
-9.78
-11.17
-12.47
-13.64
-14.86
-16.33
-18.10
-19.91
-21.28
-21.77
-21.11
-19.25
-16.34
-12.54
-7.91
-2.54
3.36
9.21
14.29
17.88
19.65
19.84
19.14
18.35
17.98
17.97
17.88
17.22
15.87
14.26
13.15
13.18
14.50
16.42
17.89
18.01
16.56
14.10
11.67
10.10
9.61
9.54
8.90
6.90
3.53
-0.43
-3.83
-5.72
-5.82
-4.68
-3.38
-2.93
-3.89
-6.20
-9.33
-12.59
-15.40
-17.47
-18.66
-18.88
-17.99
-15.79
-12.21
-7.48
-2.04
3.41
8.25
12.03
14.59
15.98
16.35
15.85
14.63
12.85
10.65
8.27
5.91
3.82
2.13
0.91
0.14
-0.31
-0.57
-0.81
-1.14
-1.60
-2.21
-2.92
-3.67
-4.41
-5.08
-5.63
-6.04
-6.28
-6.40
-6.46
-6.57
-6.83
-7.35
-8.25
-9.56
-11.32
-13.44
-15.79
-18.13
-20.18
-21.55
-21.86
-20.73
-17.98
-13.71
-8.40
-2.83
2.18
6.00
8.40
9.60
10.04
10.17
10.28
10.42
10.51
10.53
10.50
10.55
10.74
11.03
11.25
11.30
11.17
11.00
10.99
11.18
11.42
11.37
10.65
9.05
6.66
3.79
0.77
-2.13
-4.83
-7.32
-9.60
-11.54
-13.08
-14.20
-15.13
-16.20
-17.74
-19.82
-22.20
-24.28
-25.33
-24.69
-21.99
-17.32
-11.09
-3.94
3.53
10.83
17.60
23.55
28.34
31.59
32.99
32.46
30.22
26.88
23.17
19.80
17.24
15.67
14.95
14.81
14.86
14.81
14.44
13.73
12.77
11.66
10.47
9.18
7.66
5.74
3.29
0.30
-3.12
-6.73
-10.24
-13.37
-15.98
-18.10
-19.96
-21.85
-24.08
-26.80
-29.93
-33.21
-36.26
-38.66
-39.98
-39.91
-38.26
-35.09
-30.69
-25.60
-20.45
-15.78
-11.95
-9.11
-7.24
-6.28
-6.14
-6.74
-7.95
-9.56
-11.35
-13.20
-15.06
-17.03
-19.18
-21.51
-23.89
-26.16
-28.22
-30.14
-32.06
-34.20
-36.65
-39.30
-41.80
-43.65
-44.34
-43.44
-40.69
-36.02
-29.59
-21.70
-12.83
-3.59
5.32
13.28
19.77
24.62
28.01
30.48
32.73
35.39
38.80
42.98
47.63
52.29
56.50
59.91
62.29
63.55
63.61
62.51
60.31
57.24
53.60
49.77
46.07
42.76
39.94
37.62
35.75
34.30
33.26
32.58
32.15
31.69
30.82
29.18
26.55
22.92
18.42
13.29
7.80
2.28
-2.94
-7.53
-11.28
-14.21
-16.54
-18.76
-21.29
-24.44
-28.15
-32.11
-35.79
-38.63
-40.07
-39.70
-37.29
-32.87
-26.74
-19.43
-11.65
-4.06
2.73
8.18
11.98
13.90
14.02
12.65
10.42
8.00
6.05
4.95
4.76
5.27
6.14
7.08
7.88
8.47
8.87
9.06
8.99
8.46
7.29
5.31
2.60
-0.60
-3.90
-7.00
-9.76
-12.31
-14.98
-18.05
-21.64
-25.53
-29.30
-32.43
-34.47
-35.15
-34.32
-31.91
-27.93
-22.52
-15.98
-8.87
-1.84
4.44
9.56
13.33
15.82
17.17
17.57
17.19
16.27
15.16
14.26
13.89
14.17
14.99
16.07
17.10
17.90
18.37
18.55
18.37
17.71
16.40
14.27
11.33
7.71
3.72
-0.29
-4.01
-7.25
-10.04
-12.58
-15.18
-18.10
-21.42
-24.96
-28.32
-30.97
-32.42
-32.30
-30.40
-26.65
-21.17
-14.26
-6.51
1.26
8.18
13.47
16.78
18.21
18.21
17.40
16.20
14.75
12.95
10.66
7.97
5.24
3.09
2.08
2.52
4.29
6.91
9.62
11.72
12.63
12.06
9.99
6.59
2.17
-2.92
-8.30
-13.66
-18.91
-24.29
-30.38
-37.91
-47.37
-58.41
-69.67
-78.85
-83.45
-81.61
-72.85
-58.28
-40.15
-21.09
-3.32
11.78
23.72
32.64
39.05
43.54
46.69
48.99
50.82
52.46
54.07
55.82
57.83
60.15
62.74
65.43
68.03
70.37
72.43
74.11
75.15
75.00
73.02
68.71
62.07
53.70
44.62
35.83
27.92
20.96
14.68
8.84
3.45
-1.19
-4.72
-7.08
-8.62
-9.97
-11.68
-13.90
-16.23
-17.87
-18.04
-16.38
-13.11
-8.88
-4.46
-0.32
3.49
7.14
10.66
13.58
15.03
14.18
10.79
5.52
-0.24
-4.95
-7.58
-8.10
-7.26
-6.11
-5.43
-5.35
-5.54
-5.54
-5.16
-4.70
-4.73
-5.72
-7.79
-10.60
-13.54
-16.07
-17.95
-19.41
-20.87
-22.71
-24.96
-27.36
-29.45
-30.99
-32.07
-33.19
-34.83
-37.11
-39.50
-40.98
-40.47
-37.36
-31.79
-24.66
-17.18
-10.34
-4.67
-0.16
3.41
6.24
8.32
9.47
9.60
8.82
7.61
6.59
6.33
7.10
8.82
10.97
12.98
14.37
14.92
14.73
14.10
13.30
12.48
11.56
10.33
8.63
6.40
3.82
1.19
-1.23
-3.22
-4.79
-6.06
-7.30
-8.73
-10.55
-12.87
-15.57
-18.33
-20.68
-22.07
-22.08
-20.58
-17.69
-13.80
-9.34
-4.75
-0.40
3.39
6.30
8.06
8.54
7.85
6.33
4.47
2.78
1.57
0.88
0.58
0.54
0.65
0.99
1.67
2.72
4.04
5.35
6.34
6.81
6.76
6.39
5.90
5.43
4.97
4.39
3.57
2.48
1.17
-0.24
-1.70
-3.24
-5.03
-7.28
-10.13
-13.51
-17.05
-20.17
-22.20
-22.59
-21.13
-18.03
-13.82
-9.18
-4.74
-0.97
1.85
3.63
4.40
4.28
3.49
2.36
1.24
0.43
0.07
0.14
0.49
0.90
1.19
1.24
1.05
0.70
0.36
0.17
0.22
0.46
0.73
0.82
0.60
0.07
-0.66
-1.49
-2.32
-3.24
-4.36
-5.84
-7.77
-10.13
-12.80
-15.53
-18.00
-19.78
-20.48
-19.71
-17.23
-13.07
-7.49
-1.04
5.60
11.84
17.29
21.83
25.50
28.34
30.31
31.25
30.98
29.51
27.12
24.30
21.63
19.59
18.39
17.97
18.09
18.35
18.39
17.86
16.52
14.31
11.38
8.06
4.78
1.95
-0.14
-1.39
-1.86
-1.77
-1.36
-0.92
-0.69
-0.86
-1.57
-2.82
-4.44
-6.06
-7.21
-7.45
-6.54
-4.52
-1.80
1.07
3.49
5.06
5.70
5.60
5.11
4.54
4.01
3.47
2.75
1.69
0.25
-1.48
-3.28
-4.90
-6.06
-6.50
-6.05
-4.63
-2.37
0.43
3.35
5.95
7.94
9.24
9.87
9.90
9.27
7.79
5.22
1.43
-3.46
-9.01
-14.68
-19.93
-24.48
-28.28
-31.44
-34.01
-35.82
-36.45
-35.42
-32.33
-27.17
-20.36
-12.73
-5.29
1.06
5.78
8.77
10.35
11.03
11.24
11.16
10.77
9.92
8.63
7.12
5.74
4.81
4.37
4.24
4.07
3.63
2.90
1.98
1.00
-0.13
-1.67
-3.92
-6.96
-10.53
-14.05
-16.91
-18.71
-19.50
-19.65
-19.73
-20.20
-21.28
-22.81
-24.35
-25.29
-24.99
-22.87
-18.58
-12.06
-3.62
6.15
16.40
26.20
34.63
40.95
44.76
46.01
44.97
42.12
37.95
32.90
27.26
21.31
15.49
10.42
6.83
5.26
5.79
7.97
10.86
13.47
15.00
15.13
13.95
11.75
8.82
5.34
1.32
-3.23
-8.34
-13.98
-20.13
-26.76
-33.75
-40.80
-47.44
-53.11
-57.26
-59.48
-59.63
-57.74
-53.96
-48.56
-41.84
-34.23
-26.25
-18.48
-11.43
-5.50
-0.85
2.57
5.01
6.81
8.33
9.83
11.42
13.14
14.96
16.88
18.99
21.40
24.11
26.91
29.34
30.81
30.78
29.05
25.82
21.63
17.12
12.76
8.71
4.77
0.64
-3.89
-8.84
-14.01
-19.08
-23.76
-27.75
-30.75
-32.43
-32.52
-30.80
-27.41
-22.73
-17.40
-12.16
-7.61
-4.09
-1.63
-0.01
1.13
2.09
3.07
4.13
5.21
6.30
7.39
8.58
9.90
11.29
12.56
13.48
13.88
13.73
13.16
12.35
11.42
10.34
8.99
7.25
5.08
2.62
0.12
-2.16
-4.11
-5.82
-7.59
-9.75
-12.46
-15.57
-18.57
-20.81
-21.67
-20.84
-18.39
-14.68
-10.14
-5.14
0.04
5.19
9.98
13.97
16.69
17.76
17.15
15.20
12.52
9.77
7.45
5.72
4.44
3.35
2.27
1.24
0.49
0.32
0.89
2.16
3.85
5.57
6.96
7.75
7.80
7.08
5.70
3.88
2.04
0.60
-0.08
0.05
0.70
1.23
1.07
-0.04
-1.88
-3.78
-4.92
-4.69
-2.85
0.31
4.19
8.13
11.65
14.54
16.80
18.40
19.20
18.82
16.93
13.52
9.10
4.74
1.66
0.71
1.94
4.52
7.23
9.04
9.64
9.54
9.63
10.60
12.52
14.63
15.87
15.32
12.70
8.41
3.33
-1.67
-5.98
-9.48
-12.38
-15.04
-17.72
-20.53
-23.42
-26.20
-28.54
-30.12
-30.49
-29.22
-25.98
-20.70
-13.69
-5.69
2.35
9.38
14.60
17.63
18.58
17.90
16.27
14.39
12.91
12.35
13.17
15.59
19.61
24.83
30.56
35.90
40.06
42.49
43.03
41.85
39.33
35.96
32.15
28.24
24.47
21.03
18.01
15.42
13.12
10.89
8.53
5.89
3.02
0.07
-2.85
-5.69
-8.50
-11.21
-13.55
-14.97
-14.95
-13.16
-9.77
-5.38
-0.80
3.38
6.93
9.90
12.42
14.49
15.84
16.18
15.36
13.55
11.19
8.85
6.89
5.41
4.12
2.61
0.53
-2.14
-5.04
-7.62
-9.36
-10.12
-10.18
-10.14
-10.64
-12.03
-14.32
-17.18
-20.19
-22.96
-25.35
-27.32
-28.99
-30.48
-31.96
-33.53
-35.13
-36.59
-37.55
-37.63
-36.54
-34.30
-31.14
-27.55
-23.94
-20.62
-17.68
-15.05
-12.66
-10.55
-8.87
-7.77
-7.34
-7.43
-7.79
-8.11
-8.21
-8.11
-7.99
-8.00
-8.12
-8.06
-7.36
-5.63
-2.84
0.58
3.80
5.94
6.48
5.42
3.24
0.60
-1.95
-4.16
-5.93
-7.10
-7.30
-6.14
-3.42
0.52
4.88
8.71
11.37
12.87
13.78
14.84
16.42
18.36
20.03
20.79
20.33
18.80
16.75
14.70
12.91
11.34
9.73
7.92
5.98
4.26
3.23
3.28
4.51
6.67
9.25
11.75
13.81
15.39
16.69
17.87
18.98
19.75
19.87
19.05
17.34
15.11
12.84
10.87
9.22
7.60
5.61
3.16
0.53
-1.62
-2.53
-1.77
0.59
3.99
7.62
10.84
13.35
15.18
16.49
17.29
17.32
16.16
13.51
9.45
4.44
-0.71
-5.26
-8.72
-10.96
-12.10
-12.29
-11.64
-10.17
-7.96
-5.26
-2.49
-0.14
1.36
1.81
1.26
-0.04
-1.75
-3.56
-5.24
-6.70
-7.97
-9.14
-10.27
-11.30
-12.04
-12.20
-11.53
-9.95
-7.56
-4.66
-1.57
1.47
4.40
7.14
9.58
11.53
12.68
12.82
11.89
10.04
7.59
4.91
2.32
0.06
-1.73
-3.01
-3.80
-4.18
-4.30
-4.34
-4.56
-5.22
-6.57
-8.74
-11.67
-15.05
-18.37
-21.16
-23.03
-23.92
-23.98
-23.48
-22.70
-21.83
-21.04
-20.57
-20.68
-21.56
-23.14
-24.98
-26.39
-26.61
-25.24
-22.41
-18.68
-14.71
-10.91
-7.22
-3.28
1.20
6.06
10.52
13.53
14.26
12.56
9.05
4.84
0.97
-1.93
-3.86
-5.14
-6.09
-6.77
-6.92
-6.23
-4.54
-2.04
0.73
3.06
4.32
4.23
2.90
0.74
-1.69
-3.95
-5.79
-7.23
-8.34
-9.25
-9.97
-10.51
-10.85
-10.96
-10.79
-10.16
-8.89
-6.84
-4.03
-0.66
2.95
6.57
10.05
13.36
16.33
18.58
19.59
18.82
16.05
11.60
6.26
1.03
-3.24
-6.21
-8.07
-9.32
-10.48
-11.74
-12.91
-13.56
-13.37
-12.30
-10.76
-9.27
-8.27
-7.77
-7.37
-6.44
-4.53
-1.64
1.76
4.89
6.98
7.61
6.75
4.74
2.07
-0.77
-3.43
-5.61
-7.09
-7.66
-7.21
-5.73
-3.42
-0.62
2.24
4.78
6.79
8.18
9.01
9.30
9.02
8.10
6.53
4.47
2.27
0.36
-0.94
-1.55
-1.58
-1.26
-0.79
-0.22
0.48
1.33
2.32
3.30
4.08
4.47
4.35
3.77
2.87
2.00
1.47
1.52
2.16
3.13
3.94
4.13
3.43
1.82
-0.45
-3.06
-5.68
-8.07
-10.01
-11.23
-11.47
-10.51
-8.36
-5.32
-1.93
1.22
3.64
5.15
5.87
6.03
5.85
5.38
4.61
3.52
2.26
1.15
0.56
0.83
2.02
3.95
6.25
8.49
10.27
11.34
11.63
11.24
10.35
9.16
7.82
6.30
4.56
2.56
0.42
-1.56
-3.20
-4.48
-5.66
-7.11
-9.09
-11.44
-13.69
-15.13
-15.34
-14.29
-12.33
-9.96
-7.60
-5.44
-3.53
-1.99
-1.09
-1.09
-2.06
-3.61
-5.01
-5.50
-4.64
-2.60
-0.16
1.73
2.41
1.77
0.35
-1.05
-1.71
-1.34
-0.10
1.56
3.34
5.22
7.41
10.18
13.41
16.51
18.46
18.26
15.40
10.12
3.44
-3.31
-8.97
-12.88
-15.05
-15.87
-15.82
-15.24
-14.33
-13.31
-12.46
-12.16
-12.73
-14.24
-16.46
-18.85
-20.79
-21.82
-21.75
-20.70
-19.09
-17.41
-16.13
-15.57
-15.72
-16.29
-16.85
-17.00
-16.66
-16.04
-15.61
-15.70
-16.41
-17.52
-18.70
-19.73
-20.65
-21.75
-23.31
-25.32
-27.44
-29.08
-29.71
-29.06
-27.23
-24.50
-21.18
-17.47
-13.56
-9.62
-6.03
-3.27
-2.00
-2.84
-6.22
-12.13
-19.86
-28.06
-34.94
-38.88
-38.89
-35.05
-28.32
-20.16
-11.92
-4.50
1.80
7.22
12.33
17.96
24.85
33.44
43.42
53.67
62.54
68.55
71.08
70.70
68.87
67.11
66.25
66.03
65.39
63.14
58.45
51.19
41.78
30.81
18.85
6.31
-6.32
-18.40
-29.05
-37.34
-42.51
-44.23
-42.63
-38.17
-31.38
-22.56
-11.81
0.95
15.60
31.69
48.23
63.91
77.42
87.77
94.57
98.07
98.95
98.06
96.17
93.77
91.03
87.86
83.95
78.90
72.32
64.03
54.16
43.20
32.05
21.80
13.39
7.30
3.46
1.26
-0.09
-1.22
-2.42
-3.66
-4.79
-5.83
-7.02
-8.67
-10.88
-13.35
-15.43
-16.42
-15.97
-14.27
-12.00
-10.01
-8.88
-8.74
-9.07
-8.86
-6.95
-2.50
4.45
12.78
20.48
25.21
25.16
19.88
10.46
-0.84
-11.32
-18.63
-20.94
-16.86
-5.25
14.70
42.81
77.41
115.10
151.70
183.52
208.28
225.37
235.28
238.76
236.09
227.06
211.41
189.83
164.26
137.52
112.30
90.22
71.47
55.06
39.53
23.47
6.46
-10.99
-28.04
-44.55
-61.41
-80.19
-102.15
-127.52
-156.15
-186.52
-216.14
-242.39
-263.48
-278.63
-287.84
-291.53
-290.69
-288.45
-286.94
-286.09
-283.95
-278.20
-267.41
-251.63
-232.25
-211.99
-196.66
-189.70
-190.58
-195.94
-202.33
-207.94
-212.92
-218.47
-226.40
-241.52
-264.94
-292.72
-317.85
-334.46
-340.11
-336.06
-325.65
-287.90
-217.64
-127.45
-39.00
32.81
84.80
120.50
142.87
158.03
169.18
174.45
173.94
171.38
173.00
181.96
199.54
225.51
259.38
299.76
341.46
379.60
410.68
432.70
444.43
445.95
438.87
426.23
410.54
391.18
367.05
337.95
305.35
271.94
241.03
215.37
196.22
182.40
170.16
155.91
137.85
116.40
93.25
69.91
46.67
22.56
-3.85
-33.31
-64.52
-94.22
-118.69
-135.64
-145.24
-149.86
-152.58
-155.52
-158.79
-160.75
-159.16
-152.63
-141.25
-126.33
-109.34
-91.15
-71.82
-51.37
-30.65
-11.71
2.68
10.46
11.39
7.52
2.14
-1.80
-3.28
-3.57
-5.50
-12.04
-24.94
-44.41
-69.61
-99.51
-133.14
-169.21
-205.37
-237.79
-261.75
-272.78
-268.45
-249.21
-218.42
-181.05
-141.86
-104.53
-71.58
-45.07
-27.01
-19.36
-23.35
-38.82
-63.58
-92.97
-120.86
-141.00
-148.87
-142.58
-123.11
-93.74
-58.94
-23.06
11.43
43.83
74.68
104.07
131.43
155.83
176.86
195.07
208.63
215.17
213.65
205.77
193.76
179.14
163.05
146.98
132.65
121.20
114.45
111.39
110.75
110.80
109.90
107.13
102.18
95.01
85.55
73.99
59.77
43.47
25.76
7.33
-10.93
-28.13
-43.62
-56.94
-67.56
-75.09
-78.96
-79.14
-76.02
-70.23
-62.61
-54.19
-46.02
-38.75
-32.56
-26.73
-20.26
-12.14
-2.11
9.31
20.51
29.51
34.82
36.04
34.06
30.52
27.49
27.06
30.94
39.74
52.35
65.80
76.05
79.60
75.04
63.79
49.30
35.35
24.29
16.30
10.02
3.98
-2.18
-7.62
-11.12
-12.22
-11.67
-11.02
-11.59
-13.59
-16.35
-18.42
-18.58
-16.38
-12.18
-6.94
-1.66
3.16
7.60
12.12
17.01
21.83
25.46
26.59
24.47
19.47
12.90
6.61
2.25
0.65
1.43
3.00
2.88
-1.51
-11.93
-28.39
-48.94
-70.16
-88.33
-100.69
-106.23
-105.75
-101.49
-96.10
-91.84
-90.11
-91.04
-93.48
-95.44
-94.89
-90.56
-82.52
-71.98
-60.71
-50.57
-43.19
-40.17
-42.85
-51.94
-66.59
-84.04
-99.95
-109.53
-108.85
-95.87
-70.76
-35.81
4.98
46.33
82.63
109.19
123.57
126.41
121.10
112.42
104.69
100.38
99.63
100.77
101.48
99.78
94.78
86.77
76.96
66.88
57.79
50.25
44.19
39.22
35.02
31.67
29.49
28.53
28.10
26.70
22.48
13.91
0.47
-16.99
-36.27
-54.25
-67.49
-73.11
-69.60
-57.32
-38.61
-17.15
3.12
19.25
29.97
35.75
38.15
38.85
38.98
38.97
39.07
39.60
41.14
44.23
48.85
54.01
57.74
57.50
50.95
36.81
15.50
-10.52
-37.10
-59.26
-72.70
-75.30
-67.90
-53.93
-37.84
-23.26
-11.68
-2.29
7.12
19.06
35.17
56.02
80.95
108.10
134.74
157.60
173.23
178.01
169.48
147.29
113.92
74.31
34.48
0.06
-25.10
-39.72
-45.52
-45.80
-44.21
-43.37
-44.75
-49.42
-57.75
-69.15
-81.32
-91.52
-96.36
-92.96
-80.30
-60.54
-40.18
-26.31
-23.41
-30.86
-46.64
-67.11
-89.03
-110.71
-133.12
-161.87
-200.56
-246.78
-290.18
-322.41
-337.18
-332.09
-308.64
-272.44
-236.28
-210.44
-197.57
-190.08
-184.71
-180.29
-177.30
-175.59
-174.37
-178.34
-189.29
-203.87
-212.19
-215.50
-219.00
-227.34
-239.75
-211.87
-122.36
10.48
115.03
181.68
214.41
226.63
225.55
219.52
216.10
213.37
207.60
197.30
187.99
177.55
163.90
147.77
134.40
129.74
132.10
137.29
141.93
148.28
153.82
157.41
160.25
165.85
176.45
188.02
195.23
195.42
191.97
186.65
181.43
177.60
175.56
173.74
167.37
152.64
129.62
104.00
82.27
71.00
74.72
94.56
127.34
165.85
202.20
230.55
248.55
255.53
251.99
239.08
218.65
193.31
165.57
137.92
112.13
88.44
65.10
39.16
7.87
-29.93
-73.31
-121.19
-170.85
-217.60
-255.89
-281.71
-293.87
-293.93
-285.48
-272.75
-262.88
-260.42
-264.17
-267.78
-264.11
-247.93
-216.95
-171.81
-115.76
-59.50
-13.31
18.38
37.35
47.12
50.61
50.19
47.66
43.74
30.09
-1.63
-53.50
-120.80
-197.74
-280.21
-365.23
-449.91
-485.48
-440.66
-328.36
-193.73
-74.00
15.95
76.57
115.60
143.38
169.17
190.37
200.38
195.47
177.41
150.59
120.63
93.93
76.07
69.59
67.44
61.12
47.61
30.38
14.98
5.28
2.63
5.94
13.14
18.68
19.01
15.41
12.49
14.09
20.77
30.01
38.15
42.14
38.78
27.13
9.42
-9.91
-26.22
-36.36
-38.76
-33.54
-22.23
-7.99
5.59
16.57
24.16
28.51
30.30
30.55
30.19
29.91
29.85
29.73
29.26
27.90
25.73
23.03
20.11
16.87
13.03
8.32
2.79
-3.36
-10.32
-18.32
-27.71
-38.25
-48.72
-57.03
-61.16
-60.64
-57.39
-55.41
-58.51
-68.78
-85.31
-104.49
-121.84
-134.01
-140.12
-141.53
-140.82
-139.80
-139.36
-139.44
-139.29
-138.45
-136.84
-134.41
-130.21
-125.54
-119.26
-109.70
-95.54
-76.34
-52.80
-26.37
1.30
29.01
56.22
83.57
112.09
142.88
176.71
213.41
251.60
288.58
320.75
344.40
357.13
358.08
348.20
329.92
306.33
280.45
254.65
230.33
207.96
187.46
168.22
149.56
130.95
112.35
94.05
76.56
60.27
45.37
32.10
20.71
11.43
4.30
-1.17
-5.79
-10.23
-14.27
-16.58
-15.26
-9.24
0.53
10.72
16.90
15.58
6.04
-9.32
-26.39
-41.53
-53.25
-62.32
-70.51
-79.09
-87.98
-96.04
-101.78
-104.03
-101.96
-94.86
-82.03
-63.31
-39.89
-14.69
8.05
24.02
30.42
26.79
15.02
-1.59
-19.67
-36.72
-51.47
-63.58
-73.03
-79.57
-82.49
-80.78
-73.79
-61.66
-45.67
-28.03
-11.54
0.89
6.82
4.73
-5.33
-21.05
-37.42
-47.62
-44.86
-24.98
11.47
58.83
107.82
148.90
175.63
186.69
185.28
176.83
165.86
154.31
141.28
124.65
102.57
74.27
40.14
1.32
-40.38
-82.23
-120.58
-151.12
-170.16
-175.90
-169.24
-153.63
-133.81
-114.23
-98.12
-87.10
-81.07
-78.75
-78.08
-76.85
-73.60
-68.33
-62.66
-59.21
-60.23
-66.39
-76.56
-88.21
-98.73
-106.16
-109.95
-110.35
-107.94
-103.21
-96.55
-88.50
-79.87
-71.41
-63.65
-56.48
-49.41
-42.05
-34.59
-28.07
-24.05
-24.00
-28.73
-37.90
-50.10
-63.39
-76.01
-86.85
-95.59
-102.33
-107.38
-110.89
-112.67
-112.12
-108.12
-99.19
-83.96
-61.86
-33.87
-2.61
28.15
54.63
74.25
86.11
90.85
90.01
85.46
79.03
72.46
67.31
64.96
66.29
71.61
80.67
92.84
107.29
123.16
139.59
155.64
170.23
182.31
191.11
196.34
198.38
198.23
197.16
196.37
196.40
197.03
197.38
196.36
193.32
188.29
182.00
175.68
170.74
168.57
170.23
176.06
185.36
196.39
206.64
213.46
214.70
209.13
196.61
177.95
154.69
128.74
102.09
76.44
52.68
30.79
9.82
-11.87
-36.05
-64.30
-97.79
-137.05
-181.78
-230.51
-280.52
-328.29
-370.49
-405.18
-432.39
-453.80
-471.43
-486.18
-497.15
-502.15
-499.12
-487.52
-468.83
-445.82
-421.25
-396.75
-372.52
-347.96
-322.49
-296.18
-269.60
-243.33
-217.47
-191.39
-163.99
-134.31
-101.99
-67.57
-32.32
2.25
34.89
65.12
93.36
120.73
148.67
178.46
210.97
246.39
284.08
322.50
359.32
391.69
416.96
433.35
440.54
439.72
433.20
423.47
412.47
401.30
390.34
379.84
370.44
363.16
358.94
357.72
357.74
355.54
346.83
327.87
296.82
254.26
202.76
145.91
87.28
29.83
-24.08
-72.54
-113.95
-147.18
-171.86
-188.53
-198.40
-202.98
-203.68
-201.63
-197.70
-192.63
-186.93
-180.93
-174.76
-168.48
-162.38
-157.03
-153.21
-151.42
-151.57
-152.62
-152.78
-150.05
-142.85
-130.70
-114.35
-95.50
-76.19
-58.09
-42.12
-28.50
-17.11
-7.88
-1.05
3.08
4.36
3.21
0.63
-2.03
-3.61
-3.46
-1.63
1.23
4.31
6.93
8.82
10.06
10.85
11.29
11.23
10.32
8.22
4.89
0.49
-4.64
-10.33
-16.64
-23.68
-31.23
-38.36
-43.46
-44.72
-40.81
-31.52
-17.90
-1.87
14.49
29.46
42.06
51.78
58.44
61.98
62.52
60.54
56.90
52.75
49.14
46.66
45.38
44.92
44.74
44.44
43.97
43.41
42.92
42.33
41.35
39.53
36.65
32.81
28.43
23.96
19.61
15.00
9.41
2.24
-6.53
-15.98
-24.38
-29.86
-31.06
-27.73
-20.62
-11.06
-0.25
11.01
22.44
33.75
44.36
53.16
58.93
60.87
59.13
54.75
49.35
44.35
40.62
38.18
36.62
35.48
34.59
33.98
33.76
33.82
33.85
33.31
31.80
29.20
25.64
21.46
16.94
12.29
7.54
2.64
-2.57
-8.27
-14.69
-21.98
-29.99
-38.16
-45.40
-50.36
-51.72
-48.72
-41.49
-31.03
-18.91
-6.74
4.24
13.44
20.72
26.10
29.59
31.07
30.58
28.50
25.63
22.95
21.32
21.03
21.79
22.92
23.74
23.92
23.54
22.95
22.42
21.90
20.99
19.11
15.87
11.23
5.62
-0.23
-5.60
-10.11
-13.82
-17.28
-21.21
-26.20
-32.48
-39.71
-47.14
-53.79
-58.66
-61.00
-60.35
-56.61
-50.01
-41.10
-30.75
-20.09
-10.37
-2.66
2.31
4.32
3.71
1.22
-2.29
-5.98
-9.27
-11.78
-13.33
-13.88
-13.52
-12.43
-10.91
-9.33
-8.01
-7.20
-7.00
-7.38
-8.33
-9.83
-11.98
-14.84
-18.41
-22.47
-26.65
-30.45
-33.43
-35.41
-36.56
-37.39
-38.55
-40.62
-43.76
-47.64
-51.37
-53.80
-53.85
-50.89
-44.95
-36.69
-27.15
-17.44
-8.45
-0.77
5.24
9.38
11.53
11.75
10.41
8.17
5.95
4.56
4.47
5.69
7.79
10.12
12.12
13.47
14.21
14.52
14.60
14.49
14.00
12.80
10.67
7.59
3.86
-0.19
-4.19
-7.97
-11.54
-14.89
-17.99
-20.76
-23.19
-25.62
-28.58
-32.45
-37.11
-41.66
-44.56
-44.29
-39.99
-32.02
-21.70
-10.77
-0.57
8.40
16.44
24.09
31.57
38.27
43.14
45.27
44.59
42.03
39.22
37.60
37.86
39.41
40.93
41.10
39.37
36.19
32.73
30.10
28.82
28.42
27.86
26.18
22.96
18.55
13.73
9.27
5.62
2.65
-0.05
-2.87
-5.97
-9.28
-12.64
-16.00
-19.44
-23.31
-27.88
-33.12
-38.56
-43.24
-45.96
-45.64
-41.74
-34.51
-24.99
-14.73
-5.28
2.22
7.29
10.08
11.12
10.93
9.89
8.14
5.81
3.18
0.76
-0.86
-1.16
-0.05
2.09
4.55
6.59
7.72
7.88
7.34
6.50
5.59
4.53
3.05
0.81
-2.31
-6.10
-10.11
-13.80
-16.83
-19.16
-21.16
-23.42
-26.50
-30.70
-35.91
-41.54
-46.65
-50.25
-51.48
-49.94
-45.71
-39.36
-31.72
-23.64
-15.89
-8.99
-3.32
0.90
3.51
4.46
3.90
2.22
0.04
-1.99
-3.31
-3.66
-3.14
-2.07
-0.86
0.26
1.21
2.06
2.86
3.47
3.65
3.07
1.54
-0.81
-3.69
-6.71
-9.60
-12.34
-15.05
-17.88
-20.85
-23.78
-26.48
-28.84
-31.02
-33.50
-36.80
-41.16
-46.25
-51.10
-54.38
-54.84
-51.82
-45.50
-36.79
-26.96
-17.21
-8.33
-0.70
5.55
10.34
13.50
14.86
14.48
12.73
10.39
8.39
7.48
8.06
9.95
12.59
15.25
17.33
18.60
19.17
19.34
19.39
19.33
18.94
17.88
15.89
13.01
9.49
5.76
2.15
-1.24
-4.53
-7.95
-11.66
-15.71
-20.00
-24.48
-29.14
-34.07
-39.21
-44.12
-47.97
-49.64
-48.16
-43.07
-34.71
-24.10
-12.66
-1.72
7.77
15.40
21.20
25.35
28.00
29.24
29.16
28.04
26.39
24.96
24.46
25.26
27.26
29.85
32.22
33.67
33.94
33.26
32.19
31.23
30.50
29.71
28.29
25.76
22.06
17.59
13.03
8.95
5.57
2.66
-0.30
-3.79
-7.99
-12.79
-17.93
-23.20
-28.52
-33.82
-38.75
-42.64
-44.46
-43.20
-38.40
-30.38
-20.27
-9.65
-0.02
7.65
13.09
16.57
18.56
19.46
19.42
18.50
16.85
14.83
13.03
12.05
12.31
13.80
16.10
18.51
20.39
21.37
21.48
20.96
20.07
18.89
17.23
14.82
11.53
7.46
3.06
-1.15
-4.75
-7.64
-10.05
-12.47
-15.36
-19.00
-23.36
-28.20
-33.09
-37.63
-41.41
-44.02
-44.92
-43.55
-39.46
-32.75
-24.04
-14.42
-5.06
3.23
10.21
16.03
20.87
24.56
26.62
26.62
24.62
21.43
18.41
16.86
17.42
19.74
22.78
25.40
26.92
27.39
27.39
27.50
27.88
28.06
27.28
24.95
21.01
16.01
10.87
6.38
2.93
0.31
-1.97
-4.47
-7.48
-11.09
-15.19
-19.75
-24.78
-30.26
-35.89
-40.95
-44.40
-45.17
-42.55
-36.54
-27.78
-17.43
-6.77
3.09
11.40
17.74
21.95
24.11
24.48
23.52
21.79
19.90
18.41
17.69
17.95
19.19
21.27
23.88
26.61
29.03
30.79
31.66
31.64
30.82
29.42
27.60
25.45
22.93
19.94
16.42
12.40
8.09
3.86
0.07
-3.07
-5.59
-7.88
-10.46
-13.86
-18.30
-23.60
-29.12
-33.90
-36.90
-37.30
-34.72
-29.35
-21.89
-13.34
-4.65
3.41
10.38
16.00
20.09
22.55
23.34
22.67
20.94
18.79
16.86
15.60
15.19
15.53
16.41
17.63
19.07
20.61
22.14
23.39
24.08
23.93
22.86
21.03
18.78
16.49
14.38
12.42
10.35
7.88
4.82
1.29
-2.38
-5.82
-8.72
-11.06
-13.06
-15.07
-17.53
-20.65
-24.44
-28.60
-32.52
-35.47
-36.65
-35.47
-31.66
-25.39
-17.28
-8.27
0.59
8.35
14.35
18.33
20.42
21.04
20.65
19.67
18.36
16.88
15.40
14.19
13.56
13.80
15.00
16.95
19.20
21.17
22.34
22.46
21.61
20.19
18.56
17.01
15.48
13.70
11.40
8.47
5.15
1.86
-1.11
-3.71
-6.15
-8.69
-11.41
-14.08
-16.35
-18.08
-19.62
-21.66
-24.82
-29.19
-34.02
-37.94
-39.53
-37.94
-33.35
-26.74
-19.47
-12.65
-6.78
-1.80
2.57
6.45
9.48
11.10
10.88
8.98
6.19
3.69
2.52
3.17
5.26
7.90
10.12
11.34
11.61
11.44
11.42
11.86
12.51
12.80
12.17
10.42
7.83
4.97
2.43
0.52
-0.86
-2.08
-3.50
-5.31
-7.44
-9.70
-11.95
-14.21
-16.68
-19.63
-23.15
-26.99
-30.55
-32.90
-33.17
-30.79
-25.82
-18.91
-11.18
-3.80
2.41
7.09
10.37
12.59
14.02
14.72
14.59
13.53
11.68
9.44
7.42
6.20
6.13
7.15
8.87
10.77
12.36
13.36
13.75
13.66
13.24
12.55
11.55
10.07
8.02
5.35
2.22
-1.09
-4.22
-6.88
-8.99
-10.66
-12.23
-14.03
-16.33
-19.16
-22.39
-25.75
-28.87
-31.40
-32.88
-32.84
-30.92
-26.88
-20.86
-13.41
-5.36
2.31
8.73
13.34
15.96
16.77
16.16
14.62
12.60
10.44
8.46
6.95
6.15
6.28
7.38
9.27
11.53
13.62
15.06
15.56
15.17
14.19
13.02
11.93
11.00
10.01
8.63
6.59
3.81
0.49
-2.94
-6.03
-8.50
-10.37
-11.94
-13.63
-15.82
-18.63
-21.94
-25.41
-28.60
-31.06
-32.32
-31.98
-29.75
-25.53
-19.57
-12.49
-5.16
1.49
6.75
10.26
12.07
12.44
11.75
10.32
8.45
6.42
4.57
3.22
2.63
2.92
3.99
5.54
7.21
8.62
9.58
10.02
10.03
9.75
9.22
8.41
7.17
5.33
2.87
-0.10
-3.29
-6.33
-8.92
-10.94
-12.48
-13.82
-15.37
-17.44
-20.21
-23.54
-26.99
-29.85
-31.35
-30.86
-28.11
-23.23
-16.71
-9.26
-1.61
5.58
11.81
16.70
20.01
21.67
21.75
20.50
18.34
15.78
13.38
11.58
10.68
10.70
11.46
12.59
13.72
14.50
14.77
14.49
13.71
12.49
10.90
8.99
6.78
4.30
1.54
-1.47
-4.67
-7.92
-10.98
-13.63
-15.77
-17.49
-19.09
-20.94
-23.35
-26.33
-29.55
-32.39
-34.05
-33.84
-31.35
-26.59
-19.99
-12.27
-4.27
3.26
9.76
14.87
18.41
20.36
20.75
19.74
17.67
15.03
12.40
10.37
9.33
9.42
10.48
12.14
13.91
15.42
16.47
17.02
17.12
16.80
16.00
14.61
12.60
10.04
7.17
4.30
1.65
-0.69
-2.79
-4.75
-6.68
-8.69
-10.89
-13.40
-16.32
-19.59
-22.94
-25.93
-27.97
-28.59
-27.48
-24.59
-20.11
-14.38
-7.87
-1.14
5.23
10.69
14.84
17.50
18.73
18.83
18.22
17.26
16.26
15.31
14.45
13.75
13.39
13.64
14.74
16.62
18.95
21.05
22.26
22.18
20.88
18.83
16.63
14.70
13.11
11.58
9.66
7.13
4.10
0.93
-1.90
-4.10
-5.70
-7.05
-8.57
-10.61
-13.27
-16.42
-19.70
-22.62
-24.64
-25.23
-24.02
-20.89
-16.03
-9.98
-3.45
2.82
8.28
12.61
15.72
17.64
18.42
18.17
17.06
15.42
13.72
12.54
12.26
13.04
14.68
16.65
18.40
19.49
19.75
19.33
18.55
17.69
16.86
15.91
14.56
12.53
9.78
6.52
3.21
0.31
-1.90
-3.47
-4.73
-6.12
-7.95
-10.29
-13.05
-16.08
-19.27
-22.64
-26.12
-29.43
-32.00
-33.11
-32.14
-28.85
-23.51
-16.86
-9.86
-3.35
2.15
6.44
9.57
11.71
12.93
13.22
12.56
11.04
8.97
6.89
5.41
4.96
5.66
7.25
9.21
11.03
12.39
13.26
13.77
14.03
14.01
13.55
12.48
10.81
8.77
6.71
4.90
3.44
2.19
0.92
-0.55
-2.26
-4.12
-5.99
-7.79
-9.59
-11.52
-13.78
-16.37
-19.05
-21.30
-22.42
-21.78
-19.05
-14.37
-8.36
-1.91
4.15
9.28
13.29
16.24
18.20
19.13
18.94
17.61
15.39
12.85
10.66
9.40
9.26
10.04
11.33
12.69
13.95
15.08
16.00
16.51
16.27
15.01
12.74
9.89
7.11
4.96
3.54
2.47
1.13
-0.94
-3.73
-6.78
-9.45
-11.29
-12.38
-13.16
-14.20
-15.81
-17.98
-20.38
-22.69
-24.74
-26.66
-28.58
-30.42
-31.75
-31.83
-30.06
-26.28
-20.87
-14.89
-9.45
-5.42
-2.99
-1.79
-1.12
-0.38
0.62
1.63
2.19
2.08
1.52
1.16
1.74
3.70
6.98
10.94
14.71
17.61
19.38
20.24
20.65
21.02
21.58
22.20
22.60
22.54
21.88
20.71
19.21
17.58
15.99
14.45
12.89
11.17
9.20
6.94
4.42
1.70
-1.18
-4.27
-7.65
-11.31
-15.08
-18.51
-21.01
-21.94
-20.96
-18.11
-13.88
-8.99
-4.23
-0.15
2.99
5.19
6.60
7.36
7.57
7.28
6.54
5.50
4.34
3.31
2.63
2.42
2.69
3.29
4.02
4.63
4.98
5.03
4.88
4.59
4.21
3.69
2.95
1.97
0.79
-0.48
-1.73
-2.95
-4.18
-5.54
-7.05
-8.66
-10.23
-11.63
-12.75
-13.64
-14.47
-15.51
-17.03
-19.21
-22.03
-25.09
-27.73
-29.10
-28.48
-25.54
-20.50
-14.04
-7.11
-0.57
4.96
9.23
12.22
14.06
14.87
14.76
13.84
12.27
10.34
8.44
6.92
6.04
5.87
6.27
6.96
7.73
8.47
9.21
10.03
10.93
11.71
12.08
11.73
10.56
8.72
6.56
4.46
2.72
1.38
0.32
-0.70
-1.89
-3.34
-5.03
-6.83
-8.63
-10.38
-12.10
-13.93
-16.02
-18.47
-21.27
-24.29
-27.23
-29.72
-31.31
-31.58
-30.16
-26.83
-21.72
-15.26
-8.16
-1.23
4.80
9.52
12.77
14.70
15.53
15.48
14.73
13.46
11.91
10.38
9.29
8.99
9.68
11.36
13.78
16.51
19.09
21.16
22.52
23.13
23.05
22.33
20.97
19.01
16.58
13.99
11.67
10.05
9.37
9.52
10.09
10.47
10.12
8.73
6.38
3.45
0.36
-2.61
-5.52
-8.64
-12.31
-16.65
-21.44
-26.10
-29.91
-32.21
-32.61
-31.03
-27.79
-23.39
-18.44
-13.53
-9.15
-5.66
-3.36
-2.45
-2.96
-4.76
-7.43
-10.35
-12.88
-14.53
-15.06
-14.52
-13.09
-10.93
-8.14
-4.78
-0.97
3.05
6.94
10.38
13.20
15.37
16.99
18.14
18.86
19.08
18.69
17.57
15.67
13.05
9.90
6.48
3.10
0.01
-2.70
-5.07
-7.26
-9.47
-11.79
-14.26
-16.78
-19.18
-21.18
-22.43
-22.51
-21.06
-17.89
-13.15
-7.32
-1.11
4.68
9.46
12.85
14.71
15.06
13.92
11.47
8.05
4.26
0.84
-1.49
-2.34
-1.74
-0.13
1.88
3.81
5.46
6.94
8.40
9.92
11.37
12.43
12.80
12.36
11.23
9.66
7.96
6.28
4.62
2.80
0.64
-1.85
-4.50
-6.95
-8.88
-10.22
-11.22
-12.46
-14.49
-17.52
-21.23
-24.75
-27.04
-27.29
-25.17
-21.01
-15.47
-9.30
-3.05
2.95
8.49
13.31
17.05
19.31
19.89
18.90
16.74
13.98
11.21
8.83
7.02
5.73
4.82
4.05
3.22
2.22
1.06
-0.09
-0.99
-1.40
-1.18
-0.41
0.65
1.66
2.31
2.44
2.09
1.45
0.75
0.17
-0.29
-0.69
-1.23
-2.05
-3.29
-5.01
-7.29
-10.19
-13.64
-17.40
-20.92
-23.45
-24.23
-22.77
-19.07
-13.65
-7.40
-1.27
4.01
8.12
11.06
13.03
14.21
14.70
14.49
13.61
12.22
10.69
9.47
8.94
9.23
10.18
11.42
12.52
13.20
13.41
13.23
12.79
12.14
11.23
9.95
8.27
6.26
4.10
2.02
0.22
-1.23
-2.40
-3.47
-4.69
-6.26
-8.32
-10.83
-13.62
-16.41
-18.88
-20.72
-21.60
-21.24
-19.39
-15.96
-11.07
-5.14
1.14
6.99
11.72
14.90
16.43
16.54
15.57
13.91
11.87
9.70
7.61
5.83
4.64
4.29
4.91
6.37
8.28
10.07
11.20
11.35
10.54
9.13
7.52
6.07
4.83
3.60
2.11
0.23
-1.97
-4.22
-6.30
-8.20
-10.06
-12.05
-14.15
-16.12
-17.64
-18.52
-18.91
-19.14
-19.44
-19.73
-19.49
-17.98
-14.68
-9.56
-3.19
3.48
9.47
14.06
16.96
18.24
18.18
17.17
15.32
12.75
9.60
6.22
3.28
1.57
1.70
3.76
7.00
10.19
12.15
12.32
11.01
9.23
8.01
7.83
8.20
8.11
6.60
3.52
-0.38
-3.76
-5.49
-5.28
-4.04
-3.26
-4.21
-7.30
-11.80
-16.41
-19.98
-22.09
-23.28
-24.40
-25.89
-27.43
-27.90
-26.07
-21.28
-13.82
-4.94
3.77
10.98
16.09
19.13
20.57
20.88
20.40
19.20
17.34
15.02
12.64
10.72
9.73
9.89
11.15
13.13
15.29
17.14
18.30
18.70
18.45
17.79
16.95
16.05
15.02
13.71
11.98
9.80
7.34
4.89
2.77
1.17
0.08
-0.75
-1.67
-3.04
-5.08
-7.81
-10.94
-14.00
-16.37
-17.49
-16.98
-14.74
-11.03
-6.30
-1.09
4.08
8.80
12.75
15.64
17.29
17.58
16.64
14.80
12.58
10.46
8.82
7.75
7.22
7.11
7.30
7.78
8.51
9.35
10.14
10.64
10.70
10.32
9.60
8.64
7.49
6.06
4.21
1.85
-0.97
-4.02
-7.00
-9.63
-11.76
-13.45
-14.93
-16.52
-18.45
-20.76
-23.25
-25.40
-26.62
-26.34
-24.25
-20.38
-15.14
-9.16
-3.06
2.72
7.93
12.49
16.28
19.11
20.70
20.85
19.61
17.36
14.75
12.49
11.04
10.56
10.87
11.66
12.62
13.61
14.57
15.47
16.21
16.58
16.39
15.50
13.95
11.91
9.60
7.20
4.84
2.55
0.34
-1.79
-3.89
-6.05
-8.37
-10.92
-13.71
-16.62
-19.44
-21.83
-23.41
-23.77
-22.61
-19.80
-15.53
-10.26
-4.69
0.47
4.68
7.66
9.41
10.04
9.67
8.38
6.30
3.64
0.79
-1.75
-3.54
-4.37
-4.30
-3.65
-2.78
-1.99
-1.38
-0.89
-0.46
-0.08
0.15
0.05
-0.46
-1.35
-2.45
-3.56
-4.56
-5.49
-6.52
-7.91
-9.83
-12.30
-15.19
-18.18
-20.84
-22.70
-23.37
-22.52
-20.04
-16.08
-10.99
-5.29
0.41
5.59
9.88
13.08
15.09
15.92
15.61
14.31
12.27
9.86
7.50
5.58
4.34
3.86
4.06
4.74
5.64
6.53
7.23
7.58
7.47
6.86
5.76
4.30
2.62
0.94
-0.56
-1.79
-2.77
-3.57
-4.33
-5.20
-6.31
-7.75
-9.61
-11.89
-14.39
-16.70
-18.22
-18.35
-16.72
-13.35
-8.66
-3.34
1.95
6.69
10.55
13.38
15.05
15.53
14.86
13.30
11.25
9.23
7.70
6.94
6.93
7.42
8.05
8.48
8.58
8.40
8.12
7.90
7.75
7.56
7.11
6.19
4.77
2.94
0.91
-1.21
-3.37
-5.58
-7.82
-9.99
-11.98
-13.74
-15.39
-17.19
-19.33
-21.75
-24.02
-25.40
-25.14
-22.82
-18.53
-12.92
-6.94
-1.46
2.98
6.30
8.69
10.47
11.81
12.70
12.99
12.65
11.81
10.80
10.03
9.81
10.25
11.21
12.42
13.60
14.56
15.22
15.60
15.76
15.72
15.47
14.95
14.14
13.06
11.78
10.41
9.04
7.67
6.22
4.50
2.30
-0.49
-3.85
-7.54
-11.17
-14.15
-15.91
-16.06
-14.48
-11.44
-7.46
-3.21
0.76
4.14
6.82
8.80
10.10
10.65
10.39
9.34
7.69
5.79
4.08
2.98
2.74
3.39
4.69
6.29
7.81
9.02
9.83
10.28
10.38
10.07
9.18
7.59
5.34
2.65
-0.12
-2.64
-4.77
-6.60
-8.36
-10.28
-12.50
-15.01
-17.66
-20.24
-22.52
-24.23
-25.15
-25.05
-23.81
-21.43
-18.10
-14.15
-9.99
-6.04
-2.63
0.02
1.82
2.81
3.08
2.82
2.22
1.57
1.09
0.93
1.13
1.61
2.22
2.81
3.30
3.65
3.82
3.75
3.33
2.50
1.27
-0.32
-2.09
-3.93
-5.70
-7.36
-8.89
-10.31
-11.69
-13.15
-14.85
-16.97
-19.58
-22.52
-25.32
-27.31
-27.78
-26.28
-22.79
-17.74
-11.84
-5.86
-0.35
4.40
8.30
11.27
13.20
13.97
13.58
12.26
10.45
8.75
7.62
7.30
7.68
8.46
9.28
9.88
10.17
10.28
10.27
10.19
9.93
9.34
8.29
6.84
5.17
3.55
2.09
0.77
-0.55
-2.02
-3.62
-5.20
-6.58
-7.73
-8.95
-10.59
-12.93
-15.75
-18.40
-19.86
-19.33
-16.54
-12.06
-6.90
-2.16
1.54
4.22
6.33
8.39
10.57
12.50
13.61
13.45
12.11
10.21
8.65
8.17
8.98
10.68
12.52
13.80
14.24
14.01
13.61
13.45
13.74
14.27
14.64
14.49
13.65
12.23
10.49
8.70
7.06
5.54
4.02
2.33
0.37
-1.88
-4.31
-6.75
-9.07
-11.22
-13.23
-15.12
-16.79
-17.91
-18.03
-16.70
-13.69
-9.17
-3.65
2.10
7.39
11.72
14.93
17.11
18.45
19.13
19.30
19.03
18.43
17.63
16.85
16.29
16.13
16.49
17.30
18.40
19.53
20.39
20.77
20.57
19.85
18.76
17.47
16.10
14.65
13.11
11.45
9.65
7.81
6.03
4.38
2.93
1.65
0.46
-0.80
-2.30
-4.17
-6.46
-9.08
-11.76
-14.12
-15.74
-16.28
-15.57
-13.64
-10.75
-7.29
-3.76
-0.66
1.65
2.95
3.27
2.79
1.84
0.70
-0.42
-1.41
-2.17
-2.63
-2.68
-2.24
-1.36
-0.20
0.94
1.76
2.12
2.00
1.56
1.01
0.44
-0.18
-0.98
-2.15
-3.75
-5.71
-7.82
-9.81
-11.50
-12.82
-13.92
-15.00
-16.34
-18.12
-20.33
-22.75
-24.97
-26.53
-27.07
-26.45
-24.76
-22.28
-19.30
-16.00
-12.51
-8.91
-5.43
-2.36
-0.04
1.36
1.86
1.79
1.52
1.41
1.65
2.25
3.09
4.02
4.95
5.81
6.59
7.24
7.67
7.81
7.59
7.04
6.29
5.54
4.95
4.57
4.31
3.95
3.32
2.33
1.10
-0.20
-1.39
-2.45
-3.50
-4.77
-6.42
-8.42
-10.55
-12.43
-13.60
-13.76
-12.81
-10.87
-8.20
-5.17
-2.08
0.82
3.36
5.46
7.05
8.10
8.59
8.52
7.94
7.04
6.04
5.21
4.75
4.74
5.12
5.70
6.36
7.01
7.69
8.43
9.19
9.80
10.05
9.78
9.01
7.94
6.87
6.01
5.41
4.93
4.37
3.60
2.66
1.75
1.11
0.83
0.85
0.86
0.57
-0.23
-1.49
-2.87
-3.93
-4.26
-3.65
-2.18
-0.11
2.19
4.46
6.50
8.32
9.90
11.21
12.13
12.51
12.31
11.60
10.59
9.55
8.72
8.17
7.84
7.58
7.30
7.00
6.74
6.64
6.68
6.75
6.68
6.28
5.47
4.33
2.95
1.46
-0.10
-1.75
-3.52
-5.36
-7.16
-8.76
-10.12
-11.36
-12.72
-14.43
-16.59
-19.00
-21.26
-22.88
-23.52
-23.08
-21.66
-19.51
-16.88
-13.93
-10.85
-7.85
-5.30
-3.58
-2.95
-3.41
-4.63
-6.07
-7.24
-7.84
-7.93
-7.72
-7.46
-7.22
-6.86
-6.18
-5.08
-3.70
-2.42
-1.62
-1.48
-1.88
-2.45
-2.79
-2.76
-2.53
-2.55
-3.19
-4.57
-6.40
-8.19
-9.49
-10.18
-10.49
-10.92
-11.94
-13.69
-15.88
-17.97
-19.30
-19.41
-18.12
-15.62
-12.33
-8.80
-5.53
-2.86
-0.89
0.48
1.46
2.25
2.92
3.43
3.63
3.47
3.03
2.51
2.13
2.03
2.21
2.50
2.72
2.77
2.68
2.57
2.52
2.53
2.45
2.07
1.26
0.03
-1.43
-2.85
-3.99
-4.71
-5.09
-5.34
-5.75
-6.61
-8.09
-10.16
-12.55
-14.79
-16.36
-16.88
-16.23
-14.54
-12.13
-9.37
-6.56
-3.83
-1.26
1.09
3.07
4.50
5.23
5.21
4.57
3.63
2.73
2.22
2.25
2.75
3.53
4.36
5.06
5.64
6.23
6.93
7.77
8.59
9.15
9.23
8.69
7.62
6.19
4.63
3.12
1.77
0.54
-0.64
-1.89
-3.30
-4.90
-6.71
-8.66
-10.67
-12.55
-14.05
-14.84
-14.60
-13.14
-10.52
-7.07
-3.35
0.04
2.68
4.45
5.47
6.01
6.28
6.36
6.21
5.83
5.36
5.14
5.52
6.72
8.65
10.93
13.03
14.58
15.47
15.92
16.29
16.81
17.50
18.11
18.32
17.98
17.12
16.03
14.89
13.75
12.47
10.86
8.88
6.71
4.68
3.03
1.78
0.71
-0.41
-1.61
-2.57
-2.70
-1.55
0.97
4.35
7.77
10.41
11.86
12.27
12.13
11.96
11.94
11.76
10.91
9.07
6.40
3.55
1.37
0.41
0.70
1.59
2.22
1.91
0.49
-1.61
-3.67
-5.06
-5.55
-5.44
-5.37
-5.87
-7.13
-8.91
-10.72
-12.13
-12.98
-13.61
-14.52
-16.17
-18.64
-21.52
-24.11
-25.69
-25.76
-24.30
-21.64
-18.29
-14.78
-11.50
-8.66
-6.32
-4.44
-2.97
-1.87
-1.20
-1.00
-1.30
-1.96
-2.73
-3.22
-3.12
-2.34
-1.03
0.47
1.81
2.82
3.50
4.02
4.51
4.94
5.11
4.75
3.69
2.00
-0.03
-1.94
-3.41
-4.36
-5.04
-5.89
-7.34
-9.58
-12.41
-15.27
-17.42
-18.21
-17.32
-14.88
-11.37
-7.39
-3.52
-0.07
2.88
5.41
7.59
9.33
10.48
10.86
10.48
9.58
8.55
7.81
7.58
7.88
8.51
9.21
9.80
10.23
10.54
10.78
10.91
10.79
10.27
9.26
7.79
6.02
4.15
2.28
0.44
-1.47
-3.53
-5.83
-8.37
-11.10
-13.93
-16.67
-19.10
-20.90
-21.73
-21.28
-19.43
-16.28
-12.14
-7.52
-2.99
0.96
3.97
5.89
6.79
6.90
6.58
6.16
5.96
6.17
6.93
8.21
9.92
11.84
13.71
15.23
16.17
16.43
16.10
15.39
14.51
13.67
12.91
12.11
11.10
9.71
7.87
5.67
3.32
1.07
-0.91
-2.58
-4.05
-5.50
-7.12
-9.00
-11.17
-13.49
-15.77
-17.71
-19.06
-19.54
-18.94
-17.12
-14.09
-10.03
-5.32
-0.49
3.85
7.21
9.36
10.34
10.45
10.11
9.65
9.27
9.02
8.85
8.73
8.68
8.80
9.21
9.96
11.02
12.21
13.27
13.93
13.95
13.27
12.04
10.51
8.97
7.60
6.44
5.40
4.33
3.11
1.74
0.31
-1.09
-2.36
-3.50
-4.56
-5.66
-6.88
-8.28
-9.84
-11.55
-13.34
-15.10
-16.62
-17.61
-17.70
-16.58
-14.13
-10.50
-6.17
-1.72
2.28
5.45
7.74
9.28
10.32
11.03
11.47
11.61
11.44
11.11
10.85
10.94
11.53
12.58
13.82
14.93
15.63
15.86
15.73
15.49
15.29
15.14
14.95
14.53
13.80
12.84
11.83
11.03
10.56
10.37
10.23
9.81
8.89
7.41
5.52
3.48
1.51
-0.31
-2.08
-3.94
-5.91
-7.80
-9.24
-9.85
-9.42
-7.97
-5.75
-3.07
-0.19
2.65
5.25
7.33
8.63
8.95
8.32
7.03
5.54
4.29
3.52
3.20
3.12
3.07
2.98
2.92
3.12
3.72
4.72
5.81
6.60
6.72
6.08
4.90
3.60
2.54
1.86
1.29
0.36
-1.26
-3.55
-6.13
-8.44
-10.06
-10.96
-11.53
-12.35
-13.86
-16.14
-18.87
-21.49
-23.46
-24.38
-24.14
-22.83
-20.67
-17.93
-14.85
-11.68
-8.63
-5.81
-3.35
-1.29
0.30
1.36
1.88
1.91
1.62
1.34
1.40
2.00
3.18
4.71
6.24
7.40
8.03
8.17
8.01
7.73
7.39
6.86
5.95
4.59
2.83
0.91
-0.83
-2.18
-3.07
-3.65
-4.15
-4.76
-5.57
-6.51
-7.43
-8.23
-8.97
-9.86
-11.20
-13.22
-15.87
-18.73
-21.15
-22.45
-22.17
-20.31
-17.25
-13.58
-9.90
-6.57
-3.73
-1.30
0.81
2.64
4.09
5.05
5.43
5.29
4.84
4.40
4.24
4.54
5.26
6.23
7.19
8.00
8.67
9.30
10.05
10.93
11.78
12.36
12.43
11.95
11.04
9.95
8.92
8.04
7.26
6.42
5.40
4.17
2.79
1.34
-0.13
-1.68
-3.41
-5.48
-7.96
-10.81
-13.77
-16.45
-18.38
-19.15
-18.52
-16.54
-13.51
-9.90
-6.15
-2.61
0.49
3.00
4.87
6.07
6.63
6.67
6.38
5.96
5.57
5.35
5.36
5.61
6.08
6.74
7.51
8.25
8.86
9.18
9.09
8.52
7.45
5.98
4.23
2.33
0.38
-1.62
-3.66
-5.70
-7.62
-9.27
-10.60
-11.71
-12.87
-14.37
-16.29
-18.47
-20.58
-22.27
-23.51
-24.43
-25.22
-25.81
-25.81
-24.63
-21.84
-17.46
-12.17
-6.95
-2.70
0.13
1.76
2.80
3.85
5.16
6.40
7.02
6.66
5.41
3.89
2.92
3.06
4.32
6.07
7.45
7.84
7.20
6.03
5.03
4.68
5.00
5.48
5.51
4.65
2.94
0.78
-1.26
-2.81
-3.77
-4.43
-5.22
-6.44
-8.22
-10.40
-12.69
-14.81
-16.57
-17.99
-19.15
-20.14
-20.84
-21.01
-20.34
-18.56
-15.63
-11.79
-7.44
-3.01
1.07
4.49
7.04
8.61
9.22
8.99
8.17
7.08
5.99
5.11
4.55
4.39
4.69
5.52
6.81
8.36
9.89
11.08
11.73
11.86
11.63
11.23
10.76
10.11
9.09
7.54
5.50
3.21
1.07
-0.60
-1.70
-2.42
-3.11
-4.10
-5.55
-7.43
-9.54
-11.68
-13.70
-15.44
-16.70
-17.18
-16.55
-14.57
-11.26
-6.92
-2.08
2.70
6.95
10.38
12.87
14.44
15.17
15.17
14.62
13.77
12.88
12.21
11.96
12.21
12.94
13.99
15.16
16.22
17.04
17.55
17.78
17.79
17.65
17.38
16.96
16.30
15.30
13.87
11.99
9.75
7.36
5.08
3.13
1.54
0.23
-1.08
-2.62
-4.55
-6.83
-9.28
-11.68
-13.77
-15.34
-16.22
-16.21
-15.18
-13.05
-9.95
-6.20
-2.32
1.15
3.80
5.49
6.31
6.53
6.34
5.87
5.10
4.01
2.68
1.36
0.41
0.12
0.62
1.78
3.23
4.54
5.36
5.56
5.21
4.50
3.62
2.63
1.48
0.09
-1.57
-3.39
-5.14
-6.60
-7.70
-8.53
-9.35
-10.44
-12.02
-14.16
-16.81
-19.74
-22.61
-25.03
-26.56
-26.89
-25.84
-23.49
-20.08
-15.95
-11.45
-6.89
-2.57
1.25
4.28
6.30
7.20
7.07
6.21
5.03
3.99
3.39
3.37
3.88
4.76
5.86
7.04
8.25
9.39
10.35
10.95
11.02
10.48
9.39
7.87
6.09
4.11
1.98
-0.24
-2.46
-4.48
-6.14
-7.41
-8.41
-9.43
-10.82
-12.78
-15.28
-18.01
-20.44
-22.05
-22.37
-21.24
-18.71
-15.07
-10.70
-5.99
-1.26
3.21
7.18
10.48
12.92
14.38
14.89
14.57
13.73
12.70
11.76
11.09
10.70
10.55
10.61
10.89
11.39
12.08
12.77
13.22
13.18
12.56
11.41
9.91
8.23
6.47
4.65
2.76
0.88
-0.88
-2.37
-3.56
-4.59
-5.68
-7.14
-9.11
-11.54
-14.16
-16.54
-18.26
-18.98
-18.55
-16.92
-14.21
-10.57
-6.25
-1.56
3.15
7.43
10.94
13.44
14.88
15.40
15.33
15.00
14.74
14.71
14.93
15.40
16.07
17.01
18.30
19.95
21.82
23.56
24.79
25.23
24.92
24.14
23.29
22.62
22.09
21.42
20.23
18.39
16.01
13.46
11.17
9.39
8.11
7.04
5.69
3.65
0.70
-3.14
-7.50
-11.87
-15.61
-18.19
-19.25
-18.72
-16.77
-13.76
-10.16
-6.39
-2.80
0.32
2.76
4.32
4.84
4.26
2.69
0.48
-1.83
-3.64
-4.54
-4.38
-3.31
-1.74
-0.07
1.37
2.40
3.00
3.22
3.10
2.66
1.94
0.94
-0.29
-1.67
-3.06
-4.32
-5.30
-5.88
-6.07
-6.02
-5.94
-6.08
-6.58
-7.48
-8.77
-10.41
-12.40
-14.65
-16.93
-18.81
-19.73
-19.24
-17.12
-13.57
-9.14
-4.49
-0.22
3.33
6.10
8.15
9.56
10.31
10.34
9.57
8.10
6.25
4.46
3.21
2.78
3.17
4.08
5.10
5.89
6.31
6.44
6.43
6.38
6.27
6.01
5.49
4.75
3.89
3.08
2.37
1.70
0.91
-0.14
-1.50
-3.09
-4.74
-6.25
-7.56
-8.78
-10.13
-11.89
-14.16
-16.80
-19.32
-21.07
-21.43
-20.07
-17.09
-12.94
-8.28
-3.72
0.36
3.83
6.69
8.91
10.42
11.07
10.86
9.96
8.75
7.66
7.03
6.97
7.36
7.97
8.62
9.27
9.94
10.64
11.21
11.45
11.13
10.23
8.91
7.48
6.24
5.29
4.52
3.71
2.63
1.22
-0.44
-2.17
-3.71
-4.98
-5.98
-6.81
-7.69
-8.84
-10.42
-12.49
-14.88
-17.45
-19.89
-21.86
-22.91
-22.62
-20.63
-16.93
-11.90
-6.38
-1.37
2.38
4.65
5.80
6.52
7.39
8.53
9.58
10.00
9.50
8.33
7.19
6.89
7.89
10.08
12.72
14.93
16.10
16.18
15.63
15.07
14.90
15.10
15.25
14.80
13.47
11.37
8.96
6.77
5.08
3.90
2.93
1.80
0.33
-1.42
-3.23
-4.84
-6.15
-7.24
-8.35
-9.77
-11.70
-14.19
-16.99
-19.68
-21.65
-22.36
-21.45
-18.97
-15.29
-11.03
-6.85
-3.19
-0.25
2.04
3.78
5.03
5.73
5.78
5.20
4.18
3.10
2.36
2.24
2.77
3.71
4.68
5.38
5.65
5.66
5.67
5.93
6.48
7.13
7.58
7.57
7.03
6.09
5.04
4.04
3.12
2.13
0.85
-0.82
-2.82
-4.93
-6.86
-8.37
-9.39
-9.98
-10.40
-10.95
-11.94
-13.57
-15.80
-18.34
-20.66
-22.16
-22.35
-21.00
-18.20
-14.30
-9.77
-5.05
-0.52
3.56
6.96
9.53
11.13
11.77
11.59
10.89
9.98
9.20
8.73
8.61
8.78
9.12
9.51
9.94
10.40
10.92
11.45
11.89
12.07
11.85
11.17
10.06
8.71
7.30
6.00
4.92
4.04
3.26
2.48
1.63
0.67
-0.40
-1.58
-2.92
-4.44
-6.11
-7.79
-9.36
-10.72
-11.91
-13.15
-14.73
-16.81
-19.29
-21.77
-23.62
-24.28
-23.39
-20.98
-17.35
-12.96
-8.26
-3.59
0.76
4.59
7.65
9.71
10.64
10.52
9.65
8.54
7.67
7.42
7.88
8.93
10.29
11.69
12.95
14.05
15.08
16.10
17.14
18.05
18.63
18.67
18.08
16.99
15.61
14.18
12.80
11.38
9.77
7.83
5.66
3.48
1.60
0.13
-1.02
-2.11
-3.40
-5.02
-6.90
-8.83
-10.69
-12.48
-14.32
-16.40
-18.70
-21.00
-22.79
-23.50
-22.65
-20.10
-16.10
-11.24
-6.26
-1.75
1.90
4.64
6.59
7.88
8.57
8.62
8.04
6.97
5.77
4.87
4.64
5.14
6.18
7.33
8.22
8.65
8.67
8.50
8.33
8.27
8.26
8.15
7.82
7.20
6.30
5.11
3.66
1.96
0.07
-1.93
-3.93
-5.81
-7.47
-8.91
-10.16
-11.35
-12.64
-14.20
-16.17
-18.56
-21.21
-23.84
-26.01
-27.32
-27.40
-26.06
-23.28
-19.28
-14.47
-9.43
-4.78
-1.02
1.58
3.04
3.60
3.60
3.35
3.00
2.60
2.15
1.70
1.37
1.42
2.03
3.27
4.96
6.76
8.28
9.25
9.64
9.63
9.45
9.30
9.06
8.54
7.50
5.90
3.95
2.02
0.42
-0.72
-1.67
-2.82
-4.51
-6.82
-9.47
-11.98
-13.97
-15.37
-16.56
-18.06
-20.29
-23.19
-26.21
-28.45
-29.10
-27.66
-24.22
-19.30
-13.68
-8.07
-3.01
1.23
4.57
7.05
8.69
9.52
9.55
8.84
7.58
6.08
4.74
3.98
4.03
4.93
6.45
8.24
9.96
11.34
12.29
12.85
13.14
13.26
13.26
13.09
12.67
11.88
10.68
9.12
7.39
5.70
4.17
2.74
1.24
-0.55
-2.70
-5.11
-7.55
-9.85
-12.00
-14.17
-16.55
-19.05
-21.32
-22.72
-22.65
-20.77
-17.20
-12.48
-7.34
-2.45
1.73
5.03
7.50
9.26
10.36
10.80
10.49
9.48
8.00
6.53
5.62
5.72
6.98
9.15
11.72
14.13
16.02
17.33
18.27
19.08
19.85
20.47
20.66
20.15
18.85
16.91
14.68
12.51
10.61
8.95
7.31
5.39
2.95
-0.10
-3.68
-7.68
-11.94
-16.31
-20.55
-24.24
-26.86
-27.83
-26.84
-24.00
-19.88
-15.40
-11.45
-8.65
-7.16
-6.75
-7.02
-7.65
-8.55
-9.77
-11.34
-13.08
-14.55
-15.13
-14.34
-12.04
-8.54
-4.50
-0.66
2.43
4.55
5.79
6.38
6.53
6.31
5.71
4.69
3.30
1.74
0.30
-0.74
-1.23
-1.27
-1.12
-1.19
-1.86
-3.32
-5.55
-8.41
-11.66
-15.12
-18.57
-21.70
-23.98
-24.80
-23.59
-20.28
-15.25
-9.32
-3.40
1.83
6.14
9.57
12.29
14.22
15.12
14.78
13.21
10.89
8.59
7.10
6.90
7.89
9.60
11.36
12.76
13.70
14.45
15.30
16.40
17.43
17.86
17.19
15.25
12.37
9.26
6.62
4.87
3.78
2.81
1.35
-0.85
-3.57
-6.28
-8.54
-10.24
-11.77
-13.71
-16.35
-19.49
-22.33
-23.84
-23.22
-20.18
-15.13
-8.89
-2.39
3.64
8.75
12.80
15.80
17.82
18.93
19.16
18.61
17.42
15.85
14.26
13.06
12.63
13.12
14.44
16.22
17.99
19.29
19.93
19.86
19.26
18.30
17.10
15.71
14.15
12.46
10.62
8.67
6.59
4.38
2.03
-0.38
-2.80
-5.14
-7.33
-9.38
-11.31
-13.22
-15.27
-17.58
-20.18
-22.93
-25.46
-27.16
-27.38
-25.64
-21.76
-16.07
-9.23
-2.12
4.49
10.02
14.25
17.15
18.81
19.35
18.84
17.52
15.70
13.90
12.67
12.48
13.49
15.54
18.20
20.90
23.17
24.70
25.46
25.57
25.21
24.48
23.42
22.05
20.41
18.63
16.86
15.23
13.71
12.18
10.41
8.27
5.78
3.13
0.62
-1.56
-3.37
-4.98
-6.71
-8.87
-11.68
-15.15
-19.00
-22.69
-25.52
-26.77
-25.93
-22.91
-18.02
-11.94
-5.45
0.74
6.14
10.42
13.41
15.01
15.25
14.28
12.48
10.36
8.46
7.22
6.77
7.08
7.93
9.05
10.23
11.35
12.29
12.94
13.15
12.76
11.71
10.09
8.15
6.24
4.64
3.41
2.43
1.40
0.07
-1.67
-3.72
-5.85
-7.85
-9.62
-11.28
-13.07
-15.25
-17.96
-21.13
-24.43
-27.32
-29.19
-29.50
-27.95
-24.50
-19.44
-13.25
-6.56
-0.03
5.73
10.24
13.20
14.58
14.61
13.77
12.61
11.59
10.98
10.81
10.95
11.29
11.84
12.71
14.00
15.72
17.57
19.08
19.79
19.41
18.04
16.09
14.07
12.31
10.85
9.34
7.41
4.82
1.69
-1.57
-4.50
-6.81
-8.57
-10.12
-11.88
-14.12
-16.92
-20.11
-23.46
-26.70
-29.57
-31.77
-32.93
-32.62
-30.52
-26.53
-20.91
-14.30
-7.59
-1.63
2.97
6.04
7.76
8.58
8.93
9.11
9.28
9.43
9.60
9.81
10.09
10.40
10.66
10.80
10.81
10.77
10.81
10.96
11.18
11.34
11.27
10.85
10.05
8.89
7.41
5.67
3.79
1.90
0.12
-1.50
-3.01
-4.59
-6.34
-8.25
-10.21
-12.08
-13.85
-15.63
-17.63
-19.91
-22.29
-24.26
-25.17
-24.52
-22.11
-18.14
-13.05
-7.39
-1.64
3.79
8.58
12.36
14.84
15.94
15.78
14.79
13.51
12.39
11.73
11.46
11.42
11.43
11.49
11.72
12.37
13.51
15.03
16.51
17.44
17.45
16.44
14.67
12.59
10.63
9.06
7.83
6.73
5.50
3.99
2.22
0.35
-1.47
-3.09
-4.50
-5.74
-6.94
-8.25
-9.80
-11.70
-13.99
-16.63
-19.48
-22.36
-24.98
-26.99
-28.02
-27.75
-25.97
-22.71
-18.25
-13.07
-7.75
-2.86
1.17
4.15
6.05
6.98
7.18
6.90
6.33
5.62
4.83
4.04
3.35
2.95
3.03
3.69
4.88
6.33
7.66
8.50
8.65
8.14
7.16
5.95
4.66
3.34
1.94
0.44
-1.17
-2.82
-4.39
-5.82
-7.04
-8.05
-8.85
-9.49
-10.02
-10.56
-11.21
-12.13
-13.39
-15.09
-17.24
-19.74
-22.40
-24.80
-26.43
-26.75
-25.41
-22.38
-17.95
-12.69
-7.20
-1.95
2.75
6.81
10.15
12.62
14.01
14.16
13.07
11.02
8.52
6.18
4.49
3.66
3.60
4.02
4.58
5.09
5.51
5.95
6.50
7.18
7.84
8.21
8.08
7.32
6.03
4.46
2.92
1.66
0.73
0.09
-0.42
-0.91
-1.38
-1.79
-2.07
-2.30
-2.65
-3.40
-4.75
-6.73
-9.20
-11.90
-14.53
-16.91
-18.87
-20.23
-20.70
-19.90
-17.57
-13.69
-8.61
-3.03
2.28
6.67
9.86
11.86
12.81
12.86
12.13
10.82
9.33
8.26
8.26
9.65
12.21
15.24
17.88
19.52
20.13
20.12
20.02
20.14
20.33
20.12
19.11
17.23
14.84
12.54
10.85
9.94
9.51
9.08
8.19
6.72
4.92
3.25
2.06
1.46
1.08
0.33
-1.30
-3.98
-7.45
-11.13
-14.42
-16.95
-18.70
-19.82
-20.41
-20.31
-19.18
-16.72
-12.93
-8.27
-3.59
0.19
2.49
3.20
2.73
1.69
0.64
-0.14
-0.69
-1.21
-1.83
-2.51
-3.01
-3.08
-2.55
-1.45
-0.04
1.34
2.41
3.01
3.16
3.00
2.66
2.23
1.69
0.92
-0.22
-1.82
-3.83
-6.09
-8.35
-10.34
-11.90
-13.03
-13.88
-14.70
-15.79
-17.36
-19.53
-22.20
-25.12
-27.85
-29.88
-30.78
-30.23
-28.17
-24.76
-20.37
-15.46
-10.49
-5.90
-1.98
1.07
3.21
4.52
5.19
5.42
5.43
5.38
5.37
5.45
5.70
6.26
7.28
8.87
10.92
13.16
15.14
16.45
16.89
16.56
15.75
14.77
13.81
12.85
11.71
10.24
8.33
6.08
3.70
1.40
-0.63
-2.33
-3.75
-5.04
-6.39
-7.99
-9.97
-12.36
-15.08
-17.89
-20.48
-22.42
-23.32
-22.86
-20.88
-17.48
-12.95
-7.78
-2.55
2.15
5.84
8.25
9.38
9.49
8.95
8.14
7.25
6.35
5.41
4.49
3.75
3.49
3.93
5.11
6.79
8.58
10.08
11.07
11.56
11.66
11.50
11.05
10.16
8.70
6.70
4.38
2.15
0.40
-0.71
-1.32
-1.84
-2.68
-4.15
-6.29
-8.88
-11.64
-14.32
-16.90
-19.48
-22.16
-24.90
-27.36
-29.01
-29.32
-27.98
-25.05
-20.93
-16.21
-11.41
-6.91
-2.88
0.64
3.60
5.90
7.43
8.12
8.02
7.36
6.52
5.96
6.03
6.98
8.75
11.09
13.61
15.94
17.83
19.21
20.11
20.58
20.64
20.25
19.40
18.15
16.73
15.37
14.22
13.28
12.35
11.17
9.59
7.64
5.51
3.46
1.60
-0.09
-1.86
-3.92
-6.38
-9.08
-11.63
-13.52
-14.32
-13.79
-11.95
-9.07
-5.53
-1.72
2.08
5.64
8.82
11.43
13.21
13.91
13.41
11.81
9.52
7.12
5.20
4.14
4.02
4.63
5.62
6.66
7.55
8.18
8.56
8.65
8.41
7.80
6.85
5.68
4.49
3.41
2.46
1.52
0.35
-1.26
-3.40
-5.90
-8.47
-10.75
-12.59
-14.06
-15.41
-16.95
-18.89
-21.15
-23.50
-25.55
-26.89
-27.15
-26.03
-23.38
-19.25
-13.96
-8.17
-2.70
1.76
4.80
6.46
7.15
7.34
7.35
7.20
6.74
5.88
4.76
3.81
3.58
4.37
6.16
8.43
10.52
11.89
12.40
12.29
12.03
11.96
12.15
12.30
11.96
10.79
8.83
6.43
4.15
2.39
1.27
0.48
-0.41
-1.80
-3.77
-6.15
-8.66
-11.11
-13.50
-15.98
-18.60
-21.18
-23.20
-23.99
-22.98
-19.98
-15.22
-9.36
-3.19
2.55
7.42
11.18
13.86
15.50
16.23
16.11
15.32
14.10
12.83
11.89
11.59
12.04
13.18
14.76
16.49
18.11
19.43
20.35
20.78
20.72
20.18
19.26
18.14
16.97
15.86
14.76
13.49
11.88
9.85
7.52
5.13
2.90
0.92
-0.87
-2.64
-4.59
-6.84
-9.48
-12.51
-15.82
-19.18
-22.13
-24.13
-24.58
-23.16
-19.87
-15.09
-9.50
-3.85
1.19
5.20
8.00
9.64
10.28
10.17
9.53
8.51
7.31
6.14
5.24
4.89
5.27
6.38
8.06
9.95
11.65
12.84
13.40
13.39
12.97
12.31
11.43
10.25
8.58
6.34
3.59
0.64
-2.14
-4.42
-6.13
-7.44
-8.66
-10.06
-11.76
-13.69
-15.70
-17.72
-19.77
-21.90
-24.06
-25.93
-27.01
-26.71
-24.66
-20.87
-15.80
-10.20
-4.89
-0.47
2.82
5.07
6.55
7.50
8.03
8.05
7.49
6.40
5.07
4.03
3.81
4.70
6.63
9.16
11.70
13.73
15.02
15.57
15.51
14.95
13.86
12.24
10.18
7.96
5.98
4.51
3.49
2.55
1.22
-0.80
-3.43
-6.19
-8.57
-10.20
-11.19
-12.00
-13.24
-15.36
-18.38
-21.87
-25.06
-27.11
-27.44
-25.84
-22.51
-17.93
-12.71
-7.37
-2.34
2.07
5.49
7.67
8.47
8.04
6.84
5.54
4.70
4.64
5.16
5.81
6.15
6.02
5.72
5.78
6.67
8.43
10.57
12.28
12.91
12.31
10.89
9.40
8.41
8.09
8.00
7.49
6.10
3.83
1.16
-1.26
-2.97
-3.87
-4.31
-4.78
-5.67
-7.15
-9.16
-11.52
-14.00
-16.36
-18.32
-19.57
-19.71
-18.47
-15.77
-11.82
-7.07
-2.04
2.76
6.99
10.43
12.97
14.54
15.11
14.79
13.80
12.51
11.28
10.36
9.83
9.65
9.73
10.06
10.72
11.75
13.07
14.42
15.42
15.75
15.25
14.04
12.45
10.87
9.52
8.46
7.53
6.53
5.31
3.86
2.33
0.87
-0.39
-1.49
-2.61
-3.97
-5.78
-8.10
-10.86
-13.80
-16.61
-18.95
-20.51
-21.12
-20.70
-19.29
-16.91
-13.66
-9.74
-5.45
-1.30
2.17
4.54
5.64
5.56
4.60
3.07
1.25
-0.66
-2.47
-3.93
-4.78
-4.80
-3.93
-2.35
-0.40
1.50
3.03
4.00
4.39
4.32
3.94
3.42
2.87
2.29
1.57
0.64
-0.55
-1.92
-3.35
-4.73
-5.97
-7.12
-8.28
-9.56
-11.01
-12.62
-14.34
-16.13
-17.93
-19.61
-20.93
-21.50
-20.92
-18.88
-15.35
-10.66
-5.42
-0.31
4.09
7.47
9.83
11.34
12.22
12.60
12.54
12.01
11.04
9.78
8.43
7.32
6.66
6.57
6.98
7.71
8.49
9.12
9.46
9.49
9.30
8.95
8.48
7.89
7.15
6.25
5.20
4.01
2.71
1.28
-0.30
-2.05
-3.93
-5.87
-7.75
-9.46
-10.95
-12.23
-13.39
-14.50
-15.65
-16.76
-17.64
-18.00
-17.51
-15.98
-13.42
-10.08
-6.33
-2.59
0.86
3.87
6.35
8.24
9.41
9.77
9.33
8.23
6.75
5.22
3.94
3.07
2.66
2.74
3.19
3.94
4.88
5.90
6.93
7.87
8.64
9.13
9.25
8.96
8.35
7.56
6.74
5.93
4.97
3.66
1.77
-0.68
-3.46
-6.20
-8.57
-10.44
-11.93
-13.34
-14.96
-16.94
-19.18
-21.31
-22.86
-23.35
-22.54
-20.44
-17.32
-13.54
-9.48
-5.40
-1.53
1.90
4.61
6.34
6.96
6.56
5.41
3.89
2.35
1.07
0.23
-0.04
0.37
1.45
3.07
4.91
6.55
7.61
7.88
7.41
6.43
5.27
4.20
3.37
2.81
2.42
2.02
1.46
0.61
-0.58
-2.02
-3.57
-5.09
-6.45
-7.65
-8.77
-9.95
-11.40
-13.33
-15.92
-19.15
-22.71
-25.99
-28.13
-28.32
-26.10
-21.61
-15.59
-9.11
-3.18
1.60
5.12
7.68
9.63
11.15
12.11
12.28
11.55
10.15
8.59
7.54
7.47
8.48
10.23
12.13
13.68
14.62
15.03
15.15
15.23
15.35
15.41
15.24
14.74
13.86
12.65
11.20
9.51
7.60
5.48
3.21
0.89
-1.34
-3.39
-5.18
-6.72
-8.08
-9.41
-10.90
-12.74
-15.00
-17.54
-19.94
-21.60
-21.91
-20.43
-17.11
-12.30
-6.71
-1.09
3.86
7.77
10.52
12.27
13.24
13.65
13.65
13.31
12.72
12.07
11.67
11.81
12.71
14.34
16.39
18.42
20.04
21.07
21.64
22.01
22.36
22.65
22.65
22.06
20.75
18.82
16.56
14.28
12.17
10.24
8.41
6.62
4.82
3.06
1.30
-0.53
-2.59
-5.05
-8.05
-11.63
-15.64
-19.78
-23.50
-26.14
-27.13
-26.15
-23.31
-19.12
-14.31
-9.62
-5.51
-2.18
0.40
2.30
3.51
3.93
3.42
2.03
-0.01
-2.19
-3.96
-4.88
-4.75
-3.67
-1.93
0.14
2.28
4.35
6.25
7.91
9.22
10.03
10.24
9.78
8.71
7.18
5.40
3.56
1.74
-0.05
-1.88
-3.78
-5.73
-7.68
-9.57
-11.42
-13.36
-15.54
-18.05
-20.81
-23.47
-25.58
-26.63
-26.26
-24.35
-21.04
-16.65
-11.58
-6.19
-0.84
4.17
8.46
11.68
13.53
13.91
13.00
11.31
9.43
7.91
7.11
7.10
7.77
8.93
10.40
12.02
13.55
14.69
15.19
14.91
14.00
12.81
11.71
10.91
10.20
9.12
7.21
4.35
0.89
-2.52
-5.24
-7.00
-8.07
-9.07
-10.60
-12.93
-15.87
-18.94
-21.62
-23.59
-24.86
-25.55
-25.63
-24.83
-22.69
-18.80
-13.19
-6.38
0.61
6.68
11.08
13.58
14.49
14.39
13.77
12.95
11.97
10.84
9.64
8.64
8.15
8.41
9.43
11.04
12.84
14.42
15.42
15.61
14.96
13.59
11.79
9.90
8.20
6.78
5.53
4.20
2.56
0.56
-1.64
-3.69
-5.28
-6.33
-7.06
-7.91
-9.36
-11.69
-14.83
-18.35
-21.61
-23.96
-24.85
-23.98
-21.29
-16.99
-11.48
-5.31
0.94
6.66
11.39
14.78
16.73
17.29
16.65
15.14
13.15
11.11
9.41
8.32
8.00
8.40
9.36
10.64
12.00
13.23
14.18
14.72
14.76
14.27
13.27
11.83
10.10
8.22
6.33
4.53
2.89
1.42
0.07
-1.23
-2.57
-4.01
-5.63
-7.53
-9.77
-12.44
-15.50
-18.70
-21.66
-23.88
-24.92
-24.61
-22.99
-20.31
-16.91
-13.06
-8.97
-4.86
-1.00
2.25
4.50
5.53
5.28
3.98
2.01
-0.17
-2.11
-3.47
-4.02
-3.71
-2.66
-1.10
0.67
2.37
3.82
4.94
5.73
6.16
6.20
5.77
4.86
3.55
2.00
0.42
-1.05
-2.36
-3.53
-4.61
-5.67
-6.81
-8.11
-9.74
-11.79
-14.27
-17.04
-19.81
-22.21
-23.85
-24.36
-23.48
-21.12
-17.35
-12.51
-7.11
-1.75
3.00
6.77
9.42
10.99
11.58
11.38
10.63
9.64
8.76
8.31
8.49
9.27
10.49
11.88
13.24
14.48
15.56
16.44
17.05
17.28
17.08
16.49
15.60
14.53
13.28
11.75
9.80
7.41
4.68
1.90
-0.57
-2.52
-3.95
-5.11
-6.42
-8.25
-10.80
-13.95
-17.30
-20.31
-22.47
-23.40
-22.96
-21.18
-18.19
-14.19
-9.38
-4.07
1.34
6.34
10.51
13.51
15.22
15.76
15.39
14.43
13.20
11.98
10.97
10.36
10.26
10.78
11.92
13.57
15.53
17.45
18.96
19.80
19.86
19.23
18.14
16.81
15.38
13.85
12.16
10.28
8.26
6.23
4.26
2.37
0.44
-1.62
-3.89
-6.31
-8.76
-11.11
-13.28
-15.24
-16.89
-18.08
-18.54
-17.95
-16.13
-13.06
-8.95
-4.23
0.60
5.01
8.57
10.99
12.17
12.23
11.37
9.89
8.06
6.08
4.11
2.36
1.07
0.46
0.62
1.40
2.50
3.53
4.30
4.87
5.47
6.29
7.25
7.95
7.86
6.64
4.33
1.43
-1.44
-3.80
-5.59
-7.03
-8.48
-10.09
-11.77
-13.33
-14.62
-15.74
-16.97
-18.52
-20.27
-21.68
-21.95
-20.36
-16.65
-11.15
-4.80
1.34
6.36
9.82
11.75
12.53
12.55
12.07
11.17
9.83
8.13
6.27
4.60
3.48
3.12
3.54
4.55
5.83
7.04
7.94
8.40
8.49
8.32
8.03
7.70
7.28
6.66
5.69
4.26
2.43
0.36
-1.70
-3.53
-5.04
-6.28
-7.48
-8.94
-10.86
-13.37
-16.36
-19.55
-22.57
-24.97
-26.36
-26.42
-24.97
-22.02
-17.76
-12.59
-7.06
-1.80
2.67
5.96
7.93
8.67
8.47
7.68
6.63
5.61
4.79
4.27
4.12
4.38
5.07
6.20
7.67
9.36
11.05
12.51
13.55
14.05
14.03
13.57
12.83
11.91
10.86
9.67
8.30
6.73
5.01
3.21
1.46
-0.22
-1.82
-3.46
-5.23
-7.26
-9.57
-12.17
-14.94
-17.75
-20.31
-22.27
-23.21
-22.74
-20.61
-16.82
-11.72
-5.93
-0.21
4.77
8.60
11.18
12.71
13.46
13.64
13.35
12.63
11.60
10.53
9.77
9.61
10.17
11.29
12.65
13.95
14.99
15.71
16.12
16.23
16.03
15.49
14.63
13.52
12.21
10.70
8.92
6.80
4.36
1.74
-0.86
-3.31
-5.60
-7.81
-10.08
-12.48
-15.06
-17.81
-20.72
-23.72
-26.62
-28.97
-30.18
-29.70
-27.34
-23.39
-18.54
-13.63
-9.26
-5.56
-2.35
0.62
3.30
5.31
6.18
5.74
4.31
2.68
1.71
1.95
3.29
5.17
6.94
8.21
9.07
9.93
11.17
12.89
14.64
15.78
15.70
14.26
11.82
9.11
6.84
5.38
4.52
3.75
2.51
0.63
-1.64
-3.76
-5.31
-6.26
-7.10
-8.53
-11.09
-14.75
-18.86
-22.43
-24.45
-24.30
-22.00
-18.05
-13.20
-8.16
-3.40
0.83
4.48
7.57
10.03
11.75
12.62
12.67
12.05
11.02
9.89
8.97
8.40
8.29
8.64
9.42
10.52
11.74
12.84
13.56
13.73
13.32
12.42
11.12
9.47
7.52
5.35
3.13
1.12
-0.50
-1.68
-2.64
-3.66
-4.95
-6.51
-8.15
-9.63
-10.86
-11.97
-13.26
-14.97
-17.09
-19.29
-20.96
-21.44
-20.30
-17.45
-13.20
-8.14
-2.91
2.01
6.37
10.11
13.27
15.81
17.57
18.35
18.05
16.82
15.06
13.31
12.01
11.40
11.45
11.99
12.80
13.70
14.59
15.37
15.94
16.14
15.85
14.98
13.54
11.62
9.41
7.12
4.92
2.89
0.99
-0.85
-2.68
-4.46
-6.10
-7.49
-8.64
-9.64
-10.77
-12.22
-14.10
-16.31
-18.57
-20.48
-21.63
-21.70
-20.55
-18.19
-14.83
-10.81
-6.48
-2.19
1.75
5.08
7.52
8.90
9.12
8.30
6.72
4.81
3.01
1.66
0.93
0.81
1.19
1.92
2.91
4.10
5.39
6.67
7.74
8.40
8.50
7.95
6.83
5.27
3.45
1.49
-0.54
-2.62
-4.71
-6.75
-8.65
-10.34
-11.88
-13.45
-15.27
-17.52
-20.19
-22.99
-25.42
-26.90
-26.90
-25.21
-21.90
-17.38
-12.21
-6.93
-2.00
2.30
5.82
8.50
10.28
11.15
11.15
10.39
9.13
7.72
6.54
5.89
5.94
6.65
7.78
9.02
10.12
10.93
11.41
11.61
11.49
10.99
10.02
8.58
6.81
4.97
3.30
1.87
0.60
-0.71
-2.24
-4.05
-6.06
-8.14
-10.19
-12.24
-14.41
-16.80
-19.43
-22.04
-24.20
-25.34
-25.00
-22.96
-19.40
-14.81
-9.81
-4.96
-0.63
3.06
6.09
8.44
10.04
10.82
10.76
10.00
8.76
7.39
6.20
5.44
5.26
5.70
6.73
8.17
9.83
11.41
12.69
13.49
13.77
13.61
13.16
12.57
11.90
11.16
10.27
9.16
7.83
6.39
5.00
3.87
3.05
2.49
1.95
1.12
-0.22
-2.10
-4.34
-6.56
-8.38
-9.44
-9.49
-8.39
-6.07
-2.57
1.91
6.95
11.90
16.07
18.86
20.04
19.75
18.47
16.72
14.89
13.11
11.37
9.61
7.94
6.64
6.04
6.32
7.37
8.74
9.81
10.13
9.54
8.22
6.57
4.94
3.48
2.00
0.27
-1.91
-4.43
-6.94
-8.96
-10.20
-10.65
-10.75
-11.11
-12.31
-14.61
-17.87
-21.60
-25.11
-27.74
-29.02
-28.70
-26.82
-23.60
-19.47
-14.91
-10.39
-6.21
-2.59
0.36
2.54
3.83
4.15
3.54
2.30
0.90
-0.18
-0.61
-0.35
0.41
1.35
2.22
2.90
3.44
3.93
4.46
4.99
5.41
5.49
5.01
3.85
2.06
-0.09
-2.24
-4.05
-5.31
-6.09
-6.68
-7.44
-8.62
-10.30
-12.38
-14.68
-17.04
-19.29
-21.23
-22.55
-22.86
-21.82
-19.30
-15.48
-10.84
-5.99
-1.47
2.39
5.45
7.72
9.19
9.81
9.55
8.48
6.92
5.29
4.09
3.65
4.07
5.20
6.73
8.31
9.65
10.58
11.04
11.09
10.84
10.41
9.87
9.18
8.23
6.90
5.16
3.14
1.10
-0.70
-2.10
-3.18
-4.17
-5.39
-7.05
-9.25
-11.86
-14.68
-17.44
-19.81
-21.47
-22.04
-21.17
-18.67
-14.66
-9.56
-4.06
1.09
5.34
8.43
10.39
11.46
11.84
11.64
10.84
9.47
7.71
5.96
4.72
4.44
5.27
6.98
9.12
11.12
12.65
13.63
14.28
14.81
15.32
15.65
15.48
14.52
12.74
10.37
7.86
5.59
3.75
2.30
1.11
0.07
-0.79
-1.37
-1.64
-1.73
-1.89
-2.33
-2.97
-3.47
-3.30
-2.03
0.42
3.69
7.14
10.06
12.01
12.85
12.74
12.00
10.87
9.35
7.37
4.89
2.05
-0.69
-2.75
-3.65
-3.22
-1.83
-0.15
1.17
1.77
1.78
1.68
1.90
2.60
3.40
3.68
2.91
1.06
-1.41
-3.77
-5.38
-6.07
-6.27
-6.70
-8.03
-10.52
-13.89
-17.54
-20.77
-23.05
-24.15
-24.04
-22.79
-20.51
-17.28
-13.27
-8.81
-4.26
-0.10
3.28
5.64
6.85
6.95
6.05
4.39
2.29
0.13
-1.71
-2.97
-3.52
-3.43
-2.84
-1.96
-0.92
0.19
1.30
2.31
3.06
3.34
2.97
1.84
-0.00
-2.32
-4.79
-7.05
-8.85
-10.17
-11.16
-12.13
-13.40
-15.18
-17.46
-20.04
-22.54
-24.54
-25.60
-25.32
-23.50
-20.16
-15.60
-10.34
-5.02
-0.24
3.58
6.29
7.97
8.84
9.17
9.13
8.85
8.46
8.13
8.10
8.60
9.75
11.45
13.40
15.20
16.55
17.37
17.80
18.09
18.35
18.48
18.22
17.27
15.53
13.11
10.36
7.60
5.12
2.99
1.12
-0.66
-2.56
-4.76
-7.33
-10.17
-13.00
-15.37
-16.76
-16.79
-15.27
-12.38
-8.53
-4.29
-0.17
3.47
6.45
8.71
10.25
11.08
11.22
10.73
9.78
8.66
7.66
6.97
6.70
6.75
6.95
7.17
7.34
7.46
7.54
7.55
7.44
7.19
6.83
6.47
6.22
6.07
5.90
5.54
4.85
3.83
2.58
1.23
-0.15
-1.64
-3.39
-5.50
-7.90
-10.28
-12.23
-13.26
-13.03
-11.39
-8.44
-4.54
-0.16
4.16
7.99
11.10
13.46
15.15
16.23
16.67
16.38
15.34
13.72
11.98
10.63
10.07
10.39
11.35
12.51
13.46
13.99
14.19
14.27
14.41
14.62
14.70
14.36
13.35
11.60
9.28
6.71
4.21
2.00
0.05
-1.81
-3.83
-6.17
-8.84
-11.73
-14.66
-17.46
-20.00
-22.06
-23.40
-23.65
-22.52
-19.90
-16.04
-11.50
-6.98
-3.17
-0.50
0.94
1.34
1.05
0.40
-0.34
-1.04
-1.63
-2.03
-2.18
-1.98
-1.39
-0.45
0.71
1.91
2.98
3.77
4.24
4.45
4.44
4.25
3.81
2.98
1.66
-0.16
-2.27
-4.33
-5.97
-7.00
-7.54
-7.98
-8.81
-10.35
-12.54
-15.01
-17.14
-18.37
-18.37
-17.08
-14.66
-11.38
-7.55
-3.54
0.27
3.55
6.03
7.65
8.52
8.84
8.79
8.39
7.60
6.36
4.78
3.18
2.00
1.61
2.11
3.26
4.63
5.76
6.37
6.45
6.18
5.78
5.38
4.90
4.20
3.18
1.86
0.43
-0.87
-1.85
-2.46
-2.91
-3.48
-4.44
-5.89
-7.75
-9.72
-11.49
-12.86
-13.81
-14.38
-14.61
-14.38
-13.41
-11.47
-8.48
-4.67
-0.58
3.21
6.22
8.23
9.30
9.60
9.33
8.65
7.62
6.36
5.03
3.88
3.15
2.99
3.39
4.24
5.30
6.34
7.17
7.67
7.82
7.64
7.18
6.51
5.66
4.61
3.39
2.01
0.48
-1.14
-2.79
-4.35
-5.74
-6.88
-7.81
-8.67
-9.70
-11.10
-12.87
-14.75
-16.23
-16.73
-15.88
-13.62
-10.30
-6.48
-2.75
0.51
3.19
5.31
6.94
8.08
8.67
8.65
8.11
7.29
6.55
6.23
6.58
7.57
8.98
10.43
11.58
12.22
12.41
12.32
12.24
12.32
12.57
12.78
12.69
12.15
11.13
9.81
8.41
7.11
5.98
4.95
3.94
2.84
1.66
0.42
-0.86
-2.18
-3.54
-4.87
-6.00
-6.64
-6.39
-5.00
-2.43
0.99
4.70
8.11
10.73
12.39
13.14
13.15
12.55
11.34
9.53
7.17
4.49
1.88
-0.28
-1.73
-2.48
-2.74
-2.82
-2.93
-3.14
-3.34
-3.43
-3.39
-3.34
-3.54
-4.22
-5.48
-7.24
-9.24
-11.22
-12.97
-14.42
-15.64
-16.70
-17.71
-18.72
-19.74
-20.80
-21.89
-22.90
-23.68
-23.95
-23.44
-21.97
-19.56
-16.48
-13.19
-10.14
-7.68
-5.89
-4.68
-3.86
-3.21
-2.64
-2.12
-1.71
-1.47
-1.42
-1.52
-1.63
-1.56
-1.16
-0.35
0.76
1.93
2.85
3.30
3.24
2.82
2.12
1.20
0.01
-1.50
-3.23
-4.91
-6.23
-7.07
-7.60
-8.24
-9.44
-11.35
-13.77
-16.19
-18.05
-18.96
-18.88
-17.96
-16.40
-14.34
-11.76
-8.62
-4.99
-1.12
2.46
5.19
6.69
6.90
6.12
4.95
3.95
3.49
3.55
3.89
4.23
4.42
4.48
4.59
4.90
5.44
6.06
6.55
6.71
6.44
5.75
4.75
3.59
2.42
1.26
0.07
-1.21
-2.64
-4.15
-5.66
-7.07
-8.37
-9.71
-11.27
-13.13
-15.16
-16.96
-18.01
-17.87
-16.32
-13.47
-9.69
-5.51
-1.45
2.04
4.74
6.61
7.77
8.43
8.74
8.76
8.47
7.86
7.06
6.34
6.05
6.40
7.39
8.72
9.97
10.77
11.01
10.82
10.43
10.05
9.64
9.07
8.11
6.68
4.82
2.74
0.66
-1.22
-2.84
-4.23
-5.54
-6.96
-8.66
-10.69
-12.95
-15.14
-16.82
-17.56
-17.10
-15.39
-12.64
-9.21
-5.47
-1.71
1.85
5.03
7.65
9.52
10.47
10.50
9.83
8.82
7.90
7.36
7.31
7.65
8.16
8.71
9.21
9.70
10.21
10.75
11.22
11.52
11.52
11.16
10.40
9.32
7.98
6.49
4.92
3.29
1.58
-0.23
-2.18
-4.23
-6.34
-8.50
-10.75
-13.14
-15.60
-17.87
-19.52
-20.03
-19.02
-16.46
-12.69
-8.28
-3.88
0.05
3.32
5.90
7.85
9.12
9.60
9.21
8.03
6.43
4.96
4.13
4.22
5.14
6.48
7.77
8.65
9.08
9.20
9.30
9.50
9.80
9.97
9.75
8.93
7.45
5.47
3.28
1.19
-0.63
-2.15
-3.51
-4.96
-6.67
-8.71
-11.04
-13.45
-15.68
-17.39
-18.20
-17.83
-16.16
-13.31
-9.66
-5.72
-2.00
1.20
3.74
5.62
6.92
7.69
7.98
7.81
7.24
6.36
5.31
4.26
3.39
2.92
2.95
3.50
4.48
5.67
6.82
7.73
8.27
8.39
8.13
7.52
6.61
5.43
4.05
2.55
1.06
-0.28
-1.36
-2.22
-3.03
-4.10
-5.72
-8.01
-10.80
-13.60
-15.84
-17.04
-16.98
-15.79
-13.76
-11.18
-8.23
-4.93
-1.31
2.48
6.06
8.94
10.73
11.31
10.87
9.82
8.63
7.63
7.01
6.80
7.02
7.66
8.71
10.09
11.59
12.92
13.83
14.21
14.12
13.74
13.23
12.67
11.98
11.03
9.70
7.98
6.02
4.05
2.29
0.83
-0.38
-1.52
-2.88
-4.62
-6.78
-9.19
-11.47
-13.25
-14.16
-14.00
-12.74
-10.47
-7.33
-3.59
0.45
4.32
7.57
9.81
10.90
10.94
10.27
9.21
8.04
6.86
5.74
4.75
4.02
3.69
3.86
4.45
5.29
6.08
6.57
6.64
6.32
5.71
4.99
4.19
3.29
2.16
0.67
-1.19
-3.31
-5.41
-7.21
-8.58
-9.57
-10.43
-11.50
-12.99
-14.93
-17.15
-19.29
-20.97
-21.79
-21.49
-19.95
-17.23
-13.55
-9.32
-5.04
-1.16
1.98
4.23
5.61
6.24
6.22
5.66
4.70
3.54
2.47
1.82
1.80
2.43
3.54
4.80
5.90
6.67
7.09
7.29
7.37
7.38
7.22
6.77
5.87
4.44
2.54
0.35
-1.87
-3.83
-5.32
-6.29
-6.84
-7.20
-7.59
-8.20
-9.13
-10.38
-11.91
-13.64
-15.39
-16.83
-17.54
-17.06
-15.10
-11.68
-7.18
-2.25
2.41
6.32
9.23
11.21
12.42
12.98
12.89
12.11
10.65
8.73
6.78
5.32
4.73
5.07
6.03
7.10
7.85
8.07
7.89
7.57
7.34
7.27
7.20
6.92
6.29
5.29
4.07
2.82
1.65
0.56
-0.61
-2.07
-3.94
-6.24
-8.82
-11.42
-13.80
-15.84
-17.59
-19.22
-20.77
-22.08
-22.74
-22.21
-20.14
-16.55
-11.88
-6.86
-2.19
1.69
4.69
6.90
8.43
9.27
9.34
8.58
7.16
5.48
4.07
3.41
3.71
4.87
6.57
8.37
9.94
11.10
11.89
12.42
12.82
13.10
13.17
12.88
12.14
10.98
9.55
7.96
6.32
4.61
2.81
1.01
-0.59
-1.77
-2.46
-2.89
-3.48
-4.68
-6.66
-9.16
-11.62
-13.33
-13.75
-12.77
-10.57
-7.56
-4.13
-0.51
3.26
7.10
10.88
14.15
16.40
17.22
16.51
14.65
12.34
10.30
9.04
8.52
8.40
8.24
7.87
7.48
7.53
8.41
10.11
12.13
13.72
14.26
13.57
12.01
10.18
8.58
7.36
6.23
4.76
2.67
0.04
-2.77
-5.32
-7.41
-9.14
-10.88
-13.07
-15.92
-19.28
-22.63
-25.29
-26.57
-26.05
-23.71
-19.95
-15.46
-11.05
-7.49
-5.30
-4.70
-5.49
-7.17
-8.99
-10.20
-10.25
-8.91
-6.35
-3.00
0.61
4.00
6.83
8.86
9.95
9.96
8.86
6.76
4.04
1.29
-0.89
-2.03
-2.06
-1.21
-0.00
1.04
1.60
1.67
1.47
1.25
1.19
1.21
1.14
0.71
-0.18
-1.51
-3.09
-4.68
-6.08
-7.21
-8.13
-9.01
-10.13
-11.71
-13.84
-16.46
-19.28
-21.89
-23.85
-24.75
-24.31
-22.39
-18.99
-14.23
-8.41
-1.98
4.45
10.22
14.78
17.80
19.29
19.54
19.04
18.32
17.75
17.50
17.51
17.61
17.62
17.43
17.07
16.60
16.09
15.57
14.99
14.32
13.55
12.70
11.86
11.06
10.35
9.67
8.99
8.27
7.52
6.76
6.05
5.42
4.90
4.48
4.10
3.73
3.35
2.94
2.53
2.15
1.82
1.56
1.36
1.19
1.03
0.86
0.69
0.51
0.35
0.22
0.13
0.07
0.03
0.01
-0.02
-0.05
-0.09
-0.12
-0.14
-0.16
-0.17
-0.18
-0.19
-0.19
-0.20
-0.21
-0.21
-0.21
-0.21
-0.21
-0.21
-0.21
-0.21
-0.21
-0.21
-0.21
-0.21
-0.21
-0.21
-0.21
-0.21
-0.21
-0.21
-0.20
-0.20
-0.20
-0.20
-0.20
-0.20
-0.20
-0.20
-0.20
-0.20
-0.20
-0.20
-0.20
-0.20
-0.20
-0.20
-0.20
-0.20
-0.19
-0.19
-0.20
-0.19
-0.19
-0.19
-0.19
-0.19
-0.19
-0.19
-0.19
-0.19
-0.19
-0.19
-0.19
-0.19
-0.19
-0.19
-0.19
-0.19
-0.18
-0.18
-0.18
-0.18
-0.18
-0.18
-0.18
-0.18
-0.18
-0.18
-0.18
-0.18
-0.18
-0.18
-0.18
-0.18
-0.18
-0.18
-0.18
-0.18
-0.18
-0.18
-0.17
-0.17
-0.17
-0.17
-0.17
-0.17
-0.17
-0.17
-0.17
-0.17
-0.17
-0.17
-0.17
-0.17
-0.17
-0.17
-0.17
-0.17
-0.17
-0.17
-0.17
-0.16
-0.16
-0.16
-0.16
-0.16
-0.16
-0.16
-0.16
-0.16
-0.16
-0.16
-0.16
-0.16
-0.16
-0.16
-0.16
-0.16
-0.16
-0.16
-0.16
-0.16
-0.16
-0.15
-0.15
-0.15
-0.15
-0.15
-0.15
-0.15
-0.15
-0.15
-0.15
-0.15
-0.15
-0.15
-0.15
-0.15
-0.15
-0.15
-0.15
-0.15
-0.15
-0.15
-0.15
-0.15
-0.15
-0.15
-0.14
-0.14
-0.14
-0.14
-0.14
-0.14
-0.14
-0.13
-0.12
-0.12
-0.11
-0.10
-0.09
-0.09
-0.09
-0.09
-0.10
-0.10
-0.09
-0.08
-0.07
-0.06
-0.05
-0.04
-0.04
-0.03
-0.00
0.03
0.07
0.12
0.16
0.18
0.19
0.21
0.24
0.30
0.38
0.48
0.58
0.64
0.66
0.64
0.61
0.61
0.67
0.79
0.96
1.14
1.28
1.35
1.35
1.33
1.36
1.50
1.77
2.11
2.45
2.69
2.78
2.73
2.62
2.58
2.72
3.08
3.60
4.12
4.47
4.46
4.02
3.17
2.03
0.78
-0.35
-1.15
-1.44
-1.14
-0.31
0.92
2.28
3.53
4.51
5.13
5.40
5.34
4.90
3.99
2.50
0.40
-2.22
-5.13
-7.99
-10.54
-12.67
-14.49
-16.33
-18.54
-21.35
-24.61
-27.78
-30.09
-30.75
-29.32
-25.85
-20.82
-14.95
-8.95
-3.28
1.78
6.07
9.39
11.52
12.25
11.58
9.81
7.51
5.34
3.87
3.37
3.81
4.94
6.41
7.96
9.43
10.76
11.90
12.70
12.99
12.57
11.36
9.47
7.22
5.00
3.13
1.72
0.67
-0.29
-1.44
-2.93
-4.90
-7.44
-10.58
-14.32
-18.42
-22.37
-25.46
-26.99
-26.56
-24.13
-20.07
-14.94
-9.32
-3.61
1.92
7.05
11.48
14.84
16.76
17.09
16.01
14.02
11.77
9.96
8.91
8.63
8.89
9.37
9.89
10.48
11.27
12.37
13.55
14.42
14.58
13.81
12.27
10.36
8.50
6.87
5.30
3.40
0.89
-2.17
-5.40
-8.20
-10.22
-11.52
-12.63
-14.22
-16.66
-19.79
-22.86
-24.83
-24.83
-22.49
-18.09
-12.37
-6.19
-0.29
4.90
9.21
12.61
15.12
16.69
17.31
17.00
15.95
14.42
12.83
11.58
11.01
11.24
12.15
13.46
14.79
15.80
16.33
16.39
16.13
15.74
15.33
14.90
14.32
13.46
12.22
10.61
8.71
6.70
4.73
2.90
1.21
-0.47
-2.31
-4.47
-7.02
-9.88
-12.84
-15.59
-17.79
-19.15
-19.43
-18.46
-16.16
-12.61
-8.10
-3.12
1.70
5.75
8.60
10.12
10.43
9.85
8.70
7.27
5.79
4.46
3.45
2.94
3.00
3.62
4.63
5.78
6.77
7.38
7.49
7.17
6.62
6.01
5.45
4.88
4.09
2.88
1.16
-0.94
-3.17
-5.27
-7.13
-8.91
-10.89
-13.38
-16.54
-20.29
-24.26
-27.89
-30.57
-31.73
-31.03
-28.39
-24.12
-18.74
-12.86
-7.03
-1.67
2.97
6.67
9.24
10.56
10.68
9.88
8.66
7.58
7.05
7.20
7.91
8.87
9.79
10.49
10.93
11.15
11.19
11.04
10.64
9.96
8.99
7.82
6.56
5.32
4.15
3.00
1.77
0.34
-1.31
-3.12
-4.97
-6.81
-8.69
-10.79
-13.27
-16.13
-19.11
-21.64
-23.04
-22.76
-20.57
-16.69
-11.68
-6.27
-1.09
3.41
7.08
9.85
11.71
12.62
12.53
11.46
9.65
7.54
5.67
4.50
4.26
4.84
5.94
7.14
8.18
8.93
9.45
9.84
10.17
10.35
10.27
9.81
8.91
7.62
6.08
4.45
2.84
1.30
-0.19
-1.65
-3.11
-4.55
-5.96
-7.36
-8.87
-10.67
-12.85
-15.37
-17.88
-19.80
-20.49
-19.47
-16.62
-12.28
-7.14
-1.96
2.61
6.26
9.01
11.00
12.40
13.25
13.49
13.06
12.06
10.77
9.64
9.09
9.28
10.09
11.16
12.12
12.73
13.01
13.13
13.24
13.31
13.13
12.42
11.03
9.02
6.71
4.47
2.56
0.98
-0.44
-1.94
-3.68
-5.67
-7.86
-10.23
-12.79
-15.61
-18.63
-21.55
-23.84
-24.94
-24.48
-22.45
-19.19
-15.24
-11.13
-7.19
-3.62
-0.56
1.83
3.27
3.57
2.73
1.01
-1.06
-2.93
-4.16
-4.63
-4.44
-3.85
-3.05
-2.12
-1.04
0.24
1.61
2.83
3.54
3.46
2.51
0.84
-1.17
-3.13
-4.74
-5.99
-7.06
-8.20
-9.57
-11.16
-12.79
-14.28
-15.60
-16.97
-18.67
-20.78
-23.02
-24.67
-24.86
-22.99
-19.00
-13.53
-7.59
-2.20
2.06
5.09
7.23
8.83
10.06
10.81
10.84
10.02
8.53
6.81
5.39
4.68
4.84
5.72
7.05
8.52
9.93
11.10
11.96
12.40
12.40
11.96
11.12
9.93
8.42
6.59
4.49
2.25
0.09
-1.75
-3.16
-4.22
-5.24
-6.59
-8.60
-11.27
-14.37
-17.36
-19.63
-20.64
-20.12
-18.05
-14.67
-10.36
-5.49
-0.43
4.51
9.01
12.73
15.37
16.76
16.89
15.97
14.41
12.65
11.09
9.96
9.30
9.03
8.99
9.02
9.04
9.01
8.91
8.69
8.33
7.81
7.15
6.37
5.52
4.56
3.45
2.12
0.55
-1.20
-2.98
-4.60
-6.00
-7.23
-8.49
-10.01
-11.93
-14.18
-16.42
-18.15
-18.80
-17.98
-15.54
-11.69
-6.88
-1.70
3.31
7.76
11.41
14.17
16.04
17.00
17.06
16.23
14.64
12.52
10.28
8.37
7.13
6.71
7.04
7.78
8.60
9.29
9.77
10.16
10.53
10.81
10.76
10.07
8.50
6.09
3.19
0.27
-2.28
-4.31
-5.97
-7.60
-9.54
-11.92
-14.66
-17.55
-20.35
-22.85
-24.87
-26.16
-26.43
-25.38
-22.90
-19.20
-14.69
-9.90
-5.29
-1.11
2.54
5.59
7.90
9.27
9.55
8.80
7.36
5.78
4.63
4.27
4.69
5.56
6.48
7.08
7.30
7.31
7.39
7.73
8.19
8.41
7.97
6.62
4.49
1.99
-0.35
-2.21
-3.62
-4.92
-6.55
-8.78
-11.52
-14.42
-17.06
-19.14
-20.69
-21.86
-22.71
-22.99
-22.14
-19.57
-15.05
-8.90
-2.07
4.28
9.22
12.42
14.10
14.86
15.22
15.42
15.35
14.79
13.72
12.38
11.24
10.72
11.00
11.91
13.08
14.10
14.71
14.85
14.61
14.06
13.20
11.99
10.33
8.20
5.68
2.96
0.30
-2.04
-3.89
-5.22
-6.20
-7.15
-8.46
-10.46
-13.22
-16.56
-19.98
-22.82
-24.41
-24.32
-22.41
-18.95
-14.48
-9.59
-4.82
-0.48
3.26
6.32
8.62
9.99
10.35
9.76
8.51
7.09
5.99
5.56
5.86
6.67
7.68
8.63
9.44
10.16
10.87
11.56
12.09
12.26
11.86
10.83
9.26
7.36
5.37
3.44
1.67
0.03
-1.59
-3.29
-5.16
-7.24
-9.56
-12.13
-14.97
-18.03
-21.11
-23.84
-25.62
-25.88
-24.22
-20.65
-15.58
-9.72
-3.80
1.58
6.11
9.70
12.39
14.20
15.14
15.20
14.50
13.28
11.92
10.87
10.49
10.96
12.16
13.72
15.19
16.19
16.58
16.48
16.15
15.83
15.61
15.39
14.94
14.06
12.65
10.80
8.68
6.48
4.33
2.23
0.14
-2.01
-4.26
-6.59
-8.99
-11.49
-14.12
-16.93
-19.81
-22.48
-24.46
-25.20
-24.25
-21.51
-17.26
-12.17
-7.01
-2.50
0.96
3.29
4.63
5.17
5.08
4.45
3.32
1.81
0.20
-1.15
-1.87
-1.77
-0.88
0.53
2.10
3.46
4.43
5.02
5.34
5.54
5.65
5.53
5.00
3.91
2.26
0.33
-1.55
-3.09
-4.24
-5.22
-6.38
-8.06
-10.37
-13.18
-16.19
-19.01
-21.29
-22.72
-23.02
-21.98
-19.48
-15.64
-10.79
-5.51
-0.38
4.07
7.55
9.95
11.35
11.88
11.69
10.95
9.83
8.57
7.38
6.47
5.97
5.92
6.29
7.01
7.94
8.93
9.79
10.33
10.41
9.93
8.89
7.31
5.32
3.03
0.61
-1.71
-3.74
-5.38
-6.67
-7.84
-9.26
-11.25
-13.97
-17.22
-20.59
-23.47
-25.31
-25.73
-24.62
-22.07
-18.37
-13.85
-8.90
-3.89
0.80
4.82
7.88
9.77
10.40
9.89
8.49
6.63
4.77
3.31
2.49
2.38
2.87
3.76
4.86
6.02
7.12
8.07
8.80
9.20
9.16
8.61
7.58
6.16
4.51
2.82
1.21
-0.23
-1.51
-2.72
-4.00
-5.61
-7.74
-10.54
-13.87
-17.34
-20.30
-22.07
-22.16
-20.51
-17.43
-13.47
-9.17
-4.89
-0.80
2.95
6.21
8.65
9.96
9.98
8.83
6.94
4.92
3.32
2.53
2.58
3.29
4.36
5.50
6.58
7.61
8.68
9.82
10.85
11.45
11.32
10.27
8.40
6.07
3.72
1.74
0.24
-0.87
-1.88
-3.03
-4.53
-6.47
-8.85
-11.54
-14.28
-16.66
-18.23
-18.60
-17.56
-15.18
-11.71
-7.45
-2.74
2.16
6.91
11.11
14.29
16.07
16.32
15.25
13.39
11.37
9.77
8.92
8.88
9.48
10.51
11.73
12.96
14.06
14.83
15.14
14.84
13.92
12.44
10.61
8.59
6.55
4.56
2.62
0.70
-1.23
-3.21
-5.29
-7.51
-9.92
-12.47
-14.95
-17.04
-18.28
-18.27
-16.77
-13.83
-9.83
-5.35
-1.01
2.68
5.48
7.35
8.43
8.91
8.88
8.37
7.40
6.06
4.58
3.28
2.52
2.50
3.22
4.51
6.12
7.78
9.26
10.42
11.15
11.33
10.93
9.99
8.64
7.07
5.42
3.77
2.05
0.18
-1.90
-4.24
-6.78
-9.40
-11.88
-13.90
-15.07
-15.03
-13.52
-10.58
-6.49
-1.79
2.93
7.16
10.59
13.13
14.80
15.66
15.77
15.20
14.06
12.62
11.21
10.19
9.77
9.98
10.62
11.43
12.17
12.70
13.06
13.32
13.53
13.62
13.45
12.82
11.66
10.04
8.18
6.30
4.58
2.99
1.35
-0.55
-2.85
-5.46
-8.09
-10.41
-12.06
-12.76
-12.35
-10.73
-7.94
-4.19
0.11
4.29
7.66
9.65
10.02
8.92
6.84
4.32
1.83
-0.49
-2.66
-4.70
-6.50
-7.72
-7.93
-6.95
-5.00
-2.77
-1.16
-0.84
-1.94
-4.00
-6.20
-7.82
-8.55
-8.71
-8.93
-9.77
-11.46
-13.80
-16.37
-18.84
-21.03
-23.03
-24.85
-26.30
-26.90
-26.07
-23.42
-18.98
-13.21
-6.98
-1.19
3.44
6.55
8.12
8.40
7.73
6.48
4.91
3.24
1.68
0.46
-0.22
-0.20
0.50
1.74
3.23
4.69
5.89
6.73
7.14
7.10
6.57
5.61
4.33
2.89
1.46
0.07
-1.34
-2.87
-4.60
-6.47
-8.42
-10.37
-12.31
-14.18
-15.83
-16.92
-16.96
-15.54
-12.54
-8.26
-3.32
1.55
5.75
8.94
11.04
12.11
12.31
11.77
10.69
9.32
7.92
6.71
5.86
5.43
5.37
5.62
6.08
6.60
7.06
7.34
7.34
7.09
6.65
6.12
5.54
4.89
4.10
3.08
1.78
0.27
-1.37
-3.06
-4.80
-6.74
-9.01
-11.66
-14.42
-16.78
-18.09
-17.83
-15.83
-12.38
-8.05
-3.55
0.62
4.21
7.16
9.54
11.29
12.30
12.42
11.62
10.15
8.38
6.78
5.73
5.44
5.86
6.80
8.02
9.29
10.46
11.41
12.10
12.43
12.32
11.68
10.51
8.86
6.91
4.88
2.96
1.28
-0.15
-1.40
-2.65
-4.06
-5.80
-7.98
-10.62
-13.61
-16.66
-19.34
-21.20
-21.82
-20.99
-18.73
-15.31
-11.17
-6.83
-2.81
0.52
2.93
4.34
4.80
4.46
3.51
2.20
0.80
-0.41
-1.19
-1.44
-1.14
-0.46
0.43
1.36
2.25
3.10
3.92
4.72
5.34
5.63
5.39
4.54
3.10
1.25
-0.77
-2.74
-4.51
-6.06
-7.47
-8.88
-10.44
-12.31
-14.50
-16.92
-19.26
-21.08
-21.91
-21.44
-19.59
-16.55
-12.70
-8.46
-4.20
-0.18
3.43
6.45
8.72
10.09
10.50
10.08
9.10
7.94
6.99
6.48
6.47
6.84
7.39
7.92
8.36
8.72
9.06
9.35
9.45
9.19
8.44
7.21
5.62
3.86
2.05
0.21
-1.67
-3.59
-5.53
-7.38
-9.15
-10.90
-12.81
-14.99
-17.43
-19.83
-21.75
-22.66
-22.16
-20.16
-16.81
-12.52
-7.80
-3.12
1.16
4.83
7.75
9.80
10.90
11.02
10.24
8.84
7.25
5.97
5.37
5.56
6.40
7.57
8.76
9.76
10.56
11.21
11.72
12.05
12.08
11.73
11.03
10.16
9.31
8.57
7.88
7.07
5.97
4.50
2.73
0.79
-1.26
-3.49
-6.03
-8.90
-11.83
-14.26
-15.50
-15.01
-12.70
-9.01
-4.71
-0.57
2.94
5.74
8.05
10.03
11.63
12.49
12.25
10.78
8.42
5.86
3.89
3.08
3.52
4.85
6.47
7.88
8.79
9.20
9.28
9.20
9.03
8.70
8.04
6.91
5.28
3.25
1.08
-0.94
-2.54
-3.63
-4.35
-4.99
-5.93
-7.48
-9.73
-12.52
-15.41
-17.82
-19.17
-19.07
-17.40
-14.39
-10.47
-6.15
-1.92
1.86
4.96
7.20
8.50
8.81
8.23
6.95
5.36
3.89
2.92
2.65
3.03
3.79
4.63
5.28
5.70
5.99
6.34
6.83
7.38
7.73
7.57
6.71
5.14
3.07
0.83
-1.25
-2.96
-4.29
-5.38
-6.52
-7.95
-9.83
-12.16
-14.76
-17.31
-19.42
-20.68
-20.71
-19.32
-16.51
-12.55
-7.93
-3.22
1.09
4.65
7.32
9.11
10.03
10.15
9.57
8.49
7.24
6.21
5.71
5.93
6.85
8.30
10.00
11.63
12.91
13.63
13.77
13.40
12.75
12.03
11.35
10.70
9.97
9.05
7.91
6.63
5.33
4.11
2.99
1.88
0.62
-0.94
-2.91
-5.23
-7.64
-9.73
-11.01
-11.08
-9.82
-7.35
-4.01
-0.24
3.58
7.13
10.16
12.47
13.87
14.25
13.66
12.29
10.48
8.62
7.02
5.91
5.35
5.31
5.63
6.16
6.67
7.02
7.09
6.86
6.39
5.75
4.99
4.09
2.92
1.35
-0.66
-3.04
-5.51
-7.75
-9.51
-10.76
-11.85
-13.24
-15.37
-18.32
-21.65
-24.59
-26.27
-26.08
-24.02
-20.55
-16.38
-12.17
-8.28
-4.75
-1.49
1.49
3.91
5.34
5.45
4.27
2.33
0.42
-0.70
-0.64
0.34
1.60
2.45
2.58
2.18
1.82
2.03
2.96
4.21
5.04
4.82
3.33
0.91
-1.80
-4.13
-5.71
-6.59
-7.13
-7.73
-8.71
-10.20
-12.14
-14.42
-16.81
-19.06
-20.83
-21.72
-21.36
-19.53
-16.26
-11.90
-6.97
-2.13
2.08
5.28
7.35
8.37
8.54
8.07
7.19
6.08
4.90
3.85
3.11
2.81
3.02
3.65
4.57
5.63
6.66
7.55
8.17
8.38
8.01
7.01
5.43
3.52
1.62
0.02
-1.22
-2.23
-3.31
-4.71
-6.55
-8.74
-11.09
-13.40
-15.48
-17.14
-18.06
-17.90
-16.32
-13.21
-8.78
-3.57
1.68
6.36
10.08
12.76
14.56
15.66
16.18
16.14
15.54
14.43
13.00
11.56
10.46
9.96
10.14
10.92
12.03
13.21
14.18
14.83
15.11
15.03
14.61
13.82
12.61
11.04
9.17
7.21
5.38
3.78
2.37
0.95
-0.78
-3.07
-5.91
-9.06
-12.02
-14.20
-15.10
-14.47
-12.33
-9.00
-4.89
-0.48
3.87
7.83
11.14
13.57
14.94
15.14
14.26
12.51
10.30
8.06
6.17
4.86
4.17
4.02
4.24
4.69
5.25
5.88
6.50
7.03
7.29
7.09
6.31
4.95
3.17
1.23
-0.62
-2.26
-3.72
-5.17
-6.83
-8.81
-11.12
-13.60
-16.01
-18.04
-19.40
-19.83
-19.17
-17.36
-14.50
-10.88
-6.91
-3.07
0.23
2.70
4.23
4.84
4.66
3.84
2.54
0.93
-0.81
-2.46
-3.78
-4.60
-4.78
-4.31
-3.32
-2.09
-0.95
-0.25
-0.18
-0.77
-1.86
-3.23
-4.64
-6.02
-7.36
-8.70
-10.10
-11.57
-13.10
-14.75
-16.56
-18.61
-20.80
-22.84
-24.21
-24.33
-22.72
-19.28
-14.38
-8.77
-3.31
1.26
4.56
6.62
7.68
8.06
7.95
7.44
6.61
5.59
4.65
4.11
4.22
5.05
6.45
8.05
9.48
10.42
10.73
10.46
9.76
8.77
7.52
6.00
4.12
1.87
-0.63
-3.21
-5.68
-8.00
-10.25
-12.60
-15.19
-17.87
-20.28
-21.84
-21.97
-20.34
-16.95
-12.26
-6.99
-1.88
2.49
5.85
8.18
9.60
10.24
10.22
9.63
8.64
7.47
6.41
5.64
5.24
5.19
5.45
5.99
6.83
7.97
9.29
10.56
11.51
11.93
11.73
10.98
9.84
8.51
7.14
5.72
4.18
2.40
0.26
-2.28
-5.15
-8.19
-11.11
-13.61
-15.35
-16.01
-15.31
-13.10
-9.38
-4.43
1.22
6.75
11.35
14.40
15.68
15.45
14.25
12.72
11.28
10.07
9.00
7.95
6.97
6.29
6.13
6.62
7.59
8.70
9.52
9.76
9.31
8.26
6.75
4.96
3.04
1.05
-0.96
-2.99
-5.09
-7.33
-9.81
-12.61
-15.73
-18.99
-22.10
-24.61
-26.05
-26.08
-24.53
-21.55
-17.47
-12.77
-7.93
-3.34
0.74
4.13
6.74
8.53
9.55
9.92
9.87
9.65
9.44
9.39
9.49
9.70
9.95
10.16
10.27
10.21
9.90
9.30
8.46
7.44
6.37
5.33
4.34
3.33
2.21
0.87
-0.75
-2.64
-4.81
-7.23
-9.90
-12.76
-15.61
-18.08
-19.66
-19.82
-18.23
-14.84
-10.01
-4.38
1.29
6.37
10.44
13.38
15.31
16.42
16.97
17.18
17.28
17.42
17.73
18.26
19.01
19.88
20.71
21.29
21.38
20.75
19.28
17.02
14.11
10.79
7.28
3.71
0.13
-3.45
-6.97
-10.33
-13.43
-16.29
-19.00
-21.75
-24.69
-27.76
-30.64
-32.80
-33.62
-32.64
-29.74
-25.18
-19.55
-13.56
-7.83
-2.76
1.46
4.79
7.24
8.82
9.54
9.51
9.00
8.42
8.19
8.58
9.61
11.08
12.65
14.06
15.17
15.99
16.58
16.85
16.62
15.68
13.98
11.71
9.29
7.17
5.68
4.87
4.54
4.35
3.92
2.99
1.44
-0.72
-3.28
-6.01
-8.55
-10.53
-11.58
-11.41
-9.85
-6.97
-3.04
1.39
5.61
9.04
11.35
12.57
13.02
13.11
13.13
13.04
12.71
11.98
10.96
9.98
9.49
9.73
10.65
11.80
12.66
12.89
12.52
11.95
11.65
11.87
12.47
12.91
12.61
11.26
8.98
6.30
3.87
2.17
1.26
0.79
0.19
-1.02
-2.99
-5.49
-8.02
-9.93
-10.64
-9.90
-7.75
-4.50
-0.71
3.06
6.35
8.88
10.59
11.57
11.92
11.71
11.00
9.90
8.68
7.71
7.33
7.66
8.57
9.65
10.46
10.76
10.55
10.06
9.57
9.20
8.87
8.37
7.48
6.16
4.54
2.84
1.32
0.05
-1.01
-2.03
-3.26
-4.87
-6.97
-9.47
-12.12
-14.53
-16.26
-16.91
-16.27
-14.39
-11.56
-8.23
-4.91
-2.01
0.16
1.45
1.78
1.16
-0.32
-2.45
-4.88
-7.21
-9.07
-10.22
-10.63
-10.37
-9.65
-8.66
-7.54
-6.44
-5.47
-4.77
-4.46
-4.59
-5.12
-5.93
-6.81
-7.60
-8.23
-8.78
-9.41
-10.27
-11.44
-12.93
-14.65
-16.50
-18.31
-19.92
-21.08
-21.51
-20.91
-19.06
-15.91
-11.71
-6.90
-2.07
2.21
5.52
7.68
8.72
8.88
8.43
7.67
6.80
5.98
5.27
4.72
4.35
4.18
4.24
4.50
4.89
5.23
5.33
5.09
4.48
3.64
2.71
1.82
0.93
-0.02
-1.17
-2.52
-4.02
-5.52
-6.93
-8.27
-9.69
-11.39
-13.51
-16.00
-18.60
-20.85
-22.24
-22.34
-21.00
-18.39
-14.96
-11.23
-7.67
-4.53
-1.87
0.28
1.92
2.94
3.25
2.82
1.82
0.61
-0.45
-1.04
-1.07
-0.67
-0.07
0.51
1.00
1.47
2.06
2.82
3.63
4.24
4.34
3.71
2.41
0.72
-0.98
-2.37
-3.38
-4.16
-4.93
-5.92
-7.17
-8.61
-10.06
-11.40
-12.62
-13.71
-14.60
-15.09
-14.86
-13.63
-11.29
-8.01
-4.22
-0.43
2.88
5.45
7.20
8.23
8.65
8.57
8.00
7.00
5.70
4.33
3.19
2.56
2.55
3.09
3.94
4.76
5.34
5.57
5.57
5.52
5.53
5.58
5.50
5.10
4.29
3.15
1.93
0.89
0.22
-0.09
-0.20
-0.33
-0.72
-1.47
-2.63
-4.13
-5.86
-7.58
-8.97
-9.66
-9.27
-7.62
-4.76
-1.04
2.99
6.73
9.68
11.62
12.53
12.58
11.97
10.87
9.47
7.95
6.56
5.51
5.00
5.04
5.51
6.11
6.58
6.74
6.62
6.34
6.12
6.06
6.09
5.97
5.42
4.24
2.48
0.42
-1.49
-2.91
-3.73
-4.21
-4.80
-5.98
-7.94
-10.53
-13.29
-15.67
-17.26
-17.91
-17.70
-16.78
-15.18
-12.85
-9.75
-6.02
-2.07
1.50
4.12
5.48
5.68
5.05
4.02
2.95
2.05
1.40
1.07
1.10
1.52
2.27
3.22
4.19
5.07
5.79
6.34
6.66
6.67
6.26
5.35
4.00
2.36
0.67
-0.91
-2.32
-3.66
-5.11
-6.83
-8.91
-11.30
-13.89
-16.43
-18.72
-20.49
-21.51
-21.57
-20.55
-18.49
-15.57
-12.11
-8.52
-5.20
-2.47
-0.52
0.62
1.06
0.98
0.60
0.08
-0.42
-0.79
-0.93
-0.75
-0.19
0.75
1.99
3.43
4.91
6.25
7.26
7.78
7.64
6.81
5.38
3.52
1.47
-0.58
-2.54
-4.35
-6.03
-7.57
-9.04
-10.54
-12.20
-14.05
-15.93
-17.48
-18.17
-17.52
-15.32
-11.73
-7.22
-2.40
2.22
6.35
9.86
12.71
14.77
15.85
15.77
14.55
12.47
10.05
7.91
6.51
5.99
6.22
6.87
7.62
8.23
8.67
8.99
9.23
9.35
9.23
8.72
7.75
6.38
4.80
3.26
1.92
0.79
-0.27
-1.48
-3.07
-5.12
-7.61
-10.33
-12.98
-15.15
-16.42
-16.43
-14.99
-12.09
-7.96
-3.01
2.27
7.35
11.79
15.24
17.57
18.79
19.10
18.83
18.33
17.88
17.61
17.48
17.42
17.34
17.28
17.37
17.69
18.27
18.96
19.50
19.68
19.39
18.69
17.76
16.64
15.28
13.54
11.32
8.71
6.01
3.58
1.63
-0.02
-1.76
-4.05
-7.07
-10.53
-13.74
-15.88
-16.35
-15.09
-12.50
-9.23
-5.88
-2.67
0.44
3.60
6.75
9.42
10.96
10.85
9.05
6.14
3.07
0.79
-0.16
0.11
1.08
2.14
2.94
3.53
4.24
5.35
6.93
8.65
9.99
10.49
9.91
8.41
6.39
4.36
2.69
1.47
0.48
-0.62
-2.17
-4.32
-6.98
-9.96
-12.91
-15.56
-17.69
-19.07
-19.55
-18.99
-17.37
-14.81
-11.59
-8.13
-4.82
-2.02
0.02
1.20
1.52
1.06
0.10
-1.03
-1.92
-2.24
-1.88
-0.94
0.31
1.58
2.67
3.56
4.32
5.03
5.66
6.09
6.13
5.63
4.62
3.22
1.65
0.10
-1.29
-2.51
-3.59
-4.65
-5.81
-7.19
-8.91
-10.98
-13.28
-15.50
-17.19
-17.90
-17.25
-15.16
-11.82
-7.68
-3.30
0.79
4.18
6.65
8.12
8.66
8.38
7.52
6.33
5.13
4.20
3.78
3.97
4.74
5.93
7.29
8.51
9.37
9.69
9.46
8.76
7.78
6.74
5.81
5.06
4.43
3.79
3.00
1.99
0.79
-0.53
-1.98
-3.65
-5.72
-8.32
-11.40
-14.59
-17.34
-19.02
-19.21
-17.84
-15.22
-11.86
-8.33
-5.04
-2.18
0.21
2.14
3.56
4.37
4.45
3.78
2.58
1.20
0.02
-0.65
-0.79
-0.55
-0.18
0.12
0.37
0.70
1.30
2.19
3.23
4.07
4.39
4.05
3.15
1.96
0.73
-0.39
-1.44
-2.57
-3.95
-5.67
-7.74
-10.07
-12.57
-15.09
-17.41
-19.26
-20.32
-20.30
-19.03
-16.50
-12.91
-8.64
-4.17
-0.01
3.43
5.96
7.59
8.53
9.01
9.19
9.07
8.63
7.92
7.12
6.57
6.57
7.22
8.43
9.85
11.14
12.03
12.47
12.53
12.38
12.11
11.72
11.16
10.34
9.26
7.98
6.66
5.46
4.46
3.61
2.79
1.77
0.36
-1.48
-3.65
-5.85
-7.71
-8.88
-9.11
-8.31
-6.52
-3.89
-0.60
3.08
6.85
10.36
13.23
15.17
15.98
15.72
14.59
12.94
11.15
9.56
8.41
7.84
7.84
8.32
9.11
10.01
10.84
11.42
11.64
11.44
10.82
9.86
8.64
7.25
5.75
4.09
2.28
0.31
-1.76
-3.82
-5.75
-7.49
-9.10
-10.69
-12.44
-14.40
-16.41
-18.11
-19.02
-18.66
-16.84
-13.65
-9.54
-5.13
-0.97
2.54
5.20
6.97
7.87
7.92
7.21
5.96
4.50
3.21
2.33
1.95
1.93
2.04
2.15
2.25
2.43
2.80
3.33
3.82
3.98
3.55
2.46
0.88
-0.90
-2.60
-4.11
-5.50
-6.93
-8.47
-10.08
-11.59
-12.86
-13.88
-14.88
-16.15
-17.80
-19.60
-20.98
-21.22
-19.78
-16.56
-12.02
-6.95
-2.17
1.79
4.72
6.76
8.09
8.82
8.95
8.46
7.41
6.05
4.71
3.75
3.38
3.66
4.48
5.63
6.86
7.95
8.70
9.02
8.90
8.44
7.77
6.97
6.03
4.83
3.29
1.43
-0.62
-2.57
-4.16
-5.28
-6.03
-6.72
-7.75
-9.40
-11.64
-14.15
-16.41
-17.85
-18.10
-17.06
-14.89
-11.91
-8.42
-4.64
-0.75
3.06
6.52
9.34
11.20
11.98
11.76
10.84
9.65
8.58
7.90
7.67
7.83
8.23
8.76
9.35
10.00
10.68
11.33
11.81
11.97
11.72
11.04
10.05
8.87
7.60
6.28
4.91
3.49
2.06
0.63
-0.75
-2.10
-3.49
-5.04
-6.81
-8.84
-11.05
-13.21
-14.92
-15.68
-15.04
-12.78
-9.02
-4.27
0.73
5.28
8.95
11.61
13.38
14.40
14.74
14.35
13.14
11.19
8.81
6.47
4.64
3.59
3.27
3.42
3.74
4.07
4.51
5.28
6.59
8.44
10.54
12.42
13.59
13.72
12.83
11.16
9.08
6.96
4.96
3.07
1.17
-0.89
-3.15
-5.54
-7.86
-9.87
-11.35
-12.11
-11.97
-10.82
-8.62
-5.56
-2.03
1.43
4.29
6.28
7.36
7.73
7.61
7.03
5.89
4.11
1.82
-0.58
-2.49
-3.46
-3.36
-2.52
-1.46
-0.68
-0.39
-0.47
-0.64
-0.69
-0.59
-0.66
-1.28
-2.67
-4.77
-7.13
-9.13
-10.32
-10.62
-10.50
-10.73
-12.06
-14.81
-18.70
-23.01
-26.84
-29.47
-30.61
-30.28
-28.65
-25.87
-22.02
-17.25
-11.90
-6.49
-1.68
2.00
4.27
5.20
5.11
4.45
3.62
2.94
2.57
2.57
2.91
3.50
4.18
4.83
5.38
5.86
6.33
6.81
7.19
7.25
6.77
5.61
3.84
1.74
-0.31
-2.03
-3.39
-4.57
-5.95
-7.81
-10.28
-13.28
-16.54
-19.77
-22.63
-24.82
-26.01
-25.89
-24.22
-20.97
-16.40
-11.06
-5.65
-0.83
2.96
5.55
7.01
7.57
7.46
6.89
6.06
5.13
4.26
3.59
3.21
3.16
3.40
3.84
4.36
4.85
5.22
5.40
5.34
5.03
4.40
3.43
2.13
0.53
-1.26
-3.13
-4.95
-6.64
-8.15
-9.50
-10.78
-12.16
-13.84
-15.93
-18.38
-20.88
-22.94
-24.01
-23.67
-21.77
-18.45
-14.11
-9.22
-4.26
0.41
4.48
7.72
9.97
11.16
11.35
10.75
9.69
8.54
7.66
7.27
7.43
8.09
9.04
10.11
11.14
12.04
12.76
13.24
13.36
12.98
12.00
10.40
8.36
6.12
3.93
1.96
0.21
-1.41
-2.99
-4.57
-6.10
-7.50
-8.84
-10.27
-12.03
-14.29
-16.93
-19.56
-21.54
-22.19
-21.08
-18.18
-13.85
-8.74
-3.53
1.23
5.25
8.49
10.97
12.76
13.84
14.19
13.82
12.90
11.72
10.68
10.13
10.29
11.12
12.41
13.80
15.02
15.89
16.39
16.57
16.49
16.11
15.40
14.33
12.95
11.38
9.69
7.94
6.11
4.22
2.34
0.60
-0.89
-2.10
-3.15
-4.26
-5.68
-7.54
-9.79
-12.18
-14.32
-15.75
-16.06
-14.97
-12.41
-8.57
-3.85
1.17
5.94
9.99
13.01
14.89
15.65
15.42
14.36
12.74
10.83
8.99
7.58
6.89
7.05
7.98
9.41
10.97
12.33
13.29
13.83
13.97
13.79
13.30
12.46
11.24
9.63
7.74
5.70
3.66
1.73
-0.04
-1.60
-2.97
-4.20
-5.38
-6.65
-8.17
-10.08
-12.42
-15.07
-17.77
-20.06
-21.42
-21.42
-19.86
-16.85
-12.84
-8.44
-4.28
-0.78
1.88
3.75
4.94
5.52
5.49
4.86
3.73
2.38
1.13
0.29
0.02
0.30
1.00
1.99
3.16
4.44
5.66
6.63
7.16
7.13
6.58
5.72
4.77
3.80
2.70
1.30
-0.51
-2.59
-4.62
-6.25
-7.30
-7.94
-8.66
-9.95
-12.12
-15.05
-18.20
-20.81
-22.21
-21.96
-20.08
-16.91
-12.90
-8.51
-4.02
0.40
4.62
8.42
11.41
13.16
13.43
12.31
10.29
8.09
6.43
5.69
5.87
6.62
7.53
8.29
8.81
9.15
9.46
9.76
9.96
9.92
9.53
8.79
7.79
6.64
5.41
4.11
2.67
1.03
-0.80
-2.70
-4.54
-6.21
-7.70
-9.19
-10.89
-12.97
-15.42
-18.01
-20.33
-21.92
-22.35
-21.41
-19.07
-15.55
-11.24
-6.59
-2.05
2.00
5.29
7.69
9.20
9.85
9.76
9.04
7.88
6.52
5.25
4.39
4.18
4.69
5.86
7.43
9.07
10.46
11.39
11.87
12.02
12.03
12.00
11.90
11.52
10.62
9.10
7.03
4.71
2.48
0.59
-0.96
-2.40
-4.06
-6.14
-8.71
-11.55
-14.32
-16.64
-18.18
-18.67
-18.00
-16.12
-13.12
-9.16
-4.57
0.24
4.80
8.69
11.61
13.42
14.20
14.18
13.67
12.96
12.29
11.85
11.80
12.24
13.20
14.57
16.15
17.63
18.72
19.25
19.21
18.73
18.08
17.40
16.73
15.90
14.65
12.80
10.31
7.37
4.30
1.40
-1.25
-3.78
-6.43
-9.44
-12.84
-16.49
-20.02
-23.08
-25.32
-26.52
-26.59
-25.55
-23.49
-20.50
-16.72
-12.34
-7.70
-3.25
0.48
3.09
4.41
4.59
4.00
2.99
1.88
0.78
-0.21
-0.91
-1.05
-0.34
1.32
3.70
6.29
8.49
9.86
10.24
9.81
8.87
7.71
6.40
4.86
3.03
0.97
-1.05
-2.72
-3.84
-4.50
-5.17
-6.46
-8.83
-12.38
-16.65
-20.87
-24.14
-25.79
-25.64
-23.93
-21.19
-17.85
-14.20
-10.26
-6.04
-1.67
2.41
5.58
7.29
7.38
6.22
4.53
3.17
2.71
3.29
4.65
6.36
8.18
10.05
12.10
14.41
16.92
19.29
21.10
22.01
21.88
20.82
19.06
16.90
14.56
12.16
9.78
7.44
5.12
2.73
0.12
-2.83
-6.19
-9.95
-13.99
-18.09
-21.97
-25.27
-27.56
-28.41
-27.49
-24.67
-20.17
-14.54
-8.53
-2.91
1.73
5.10
7.24
8.31
8.59
8.30
7.68
6.98
6.49
6.50
7.20
8.58
10.42
12.40
14.18
15.53
16.37
16.72
16.70
16.36
15.72
14.76
13.40
11.55
9.16
6.23
2.93
-0.49
-3.74
-6.67
-9.27
-11.78
-14.49
-17.64
-21.26
-25.20
-29.09
-32.52
-35.07
-36.33
-36.01
-33.87
-29.91
-24.36
-17.76
-10.85
-4.39
0.97
4.82
7.04
7.81
7.50
6.57
5.50
4.67
4.31
4.53
5.30
6.56
8.21
10.11
12.04
13.72
14.92
15.44
15.31
14.73
13.95
13.20
12.52
11.76
10.70
9.16
7.16
4.90
2.68
0.68
-1.09
-2.80
-4.73
-7.07
-9.90
-13.15
-16.64
-20.17
-23.50
-26.29
-28.12
-28.52
-27.07
-23.65
-18.50
-12.25
-5.74
0.17
4.88
8.12
9.93
10.58
10.39
9.61
8.45
7.06
5.64
4.44
3.71
3.70
4.55
6.22
8.48
10.95
13.22
14.92
15.90
16.22
16.03
15.51
14.70
13.54
11.98
10.02
7.86
5.73
3.83
2.23
0.79
-0.70
-2.45
-4.53
-6.89
-9.36
-11.84
-14.27
-16.73
-19.34
-22.05
-24.61
-26.53
-27.13
-25.87
-22.52
-17.33
-10.99
-4.41
1.59
6.46
10.01
12.38
13.80
14.41
14.31
13.55
12.26
10.78
9.57
9.06
9.53
10.91
12.87
14.95
16.76
18.08
18.83
19.07
18.82
18.06
16.74
14.93
12.81
10.63
8.64
6.94
5.49
4.11
2.63
0.92
-1.00
-2.93
-4.59
-5.75
-6.34
-6.56
-6.83
-7.64
-9.35
-11.89
-14.76
-17.11
-18.09
-17.14
-14.22
-9.79
-4.55
0.79
5.65
9.75
12.93
15.17
16.50
16.99
16.74
15.90
14.59
12.97
11.30
9.85
8.98
8.96
9.85
11.45
13.37
15.12
16.36
16.92
16.81
16.15
15.03
13.52
11.60
9.36
6.89
4.35
1.92
-0.23
-2.07
-3.61
-5.04
-6.57
-8.31
-10.25
-12.21
-13.95
-15.32
-16.36
-17.33
-18.42
-19.59
-20.45
-20.32
-18.60
-15.04
-9.97
-4.23
1.21
5.55
8.48
10.16
11.02
11.42
11.55
11.28
10.46
9.04
7.25
5.53
4.34
3.97
4.40
5.31
6.22
6.79
6.89
6.61
6.20
5.87
5.71
5.63
5.43
4.90
3.93
2.58
0.99
-0.63
-2.10
-3.35
-4.39
-5.35
-6.42
-7.85
-9.81
-12.38
-15.44
-18.67
-21.64
-23.87
-24.93
-24.54
-22.60
-19.20
-14.59
-9.19
-3.51
1.87
6.44
9.81
11.82
12.47
11.99
10.70
8.98
7.19
5.67
4.65
4.26
4.49
5.20
6.17
7.14
7.92
8.38
8.53
8.43
8.18
7.84
7.38
6.69
5.67
4.24
2.39
0.23
-2.08
-4.34
-6.33
-7.96
-9.29
-10.51
-11.94
-13.86
-16.39
-19.36
-22.37
-24.83
-26.18
-26.01
-24.17
-20.76
-16.07
-10.49
-4.47
1.50
6.95
11.42
14.60
16.30
16.56
15.62
13.86
11.76
9.76
8.17
7.19
6.83
7.03
7.65
8.55
9.57
10.58
11.39
11.85
11.83
11.30
10.31
9.00
7.46
5.74
3.83
1.68
-0.64
-3.01
-5.25
-7.25
-8.98
-10.55
-12.14
-13.93
-15.96
-18.19
-20.44
-22.49
-24.08
-24.93
-24.77
-23.36
-20.59
-16.51
-11.43
-5.86
-0.50
4.04
7.31
9.14
9.72
9.41
8.65
7.77
6.98
6.37
5.97
5.85
6.11
6.85
8.11
9.66
11.14
12.18
12.54
12.29
11.77
11.36
11.28
11.33
11.05
9.99
8.02
5.43
2.81
0.72
-0.63
-1.49
-2.39
-3.79
-5.86
-8.43
-11.10
-13.53
-15.49
-16.99
-18.07
-18.63
-18.39
-16.93
-13.94
-9.42
-3.78
2.18
7.57
11.64
14.05
14.87
14.44
13.23
11.63
9.89
8.17
6.63
5.43
4.73
4.66
5.22
6.31
7.68
9.03
10.04
10.51
10.39
9.79
8.87
7.78
6.53
5.00
3.06
0.65
-2.15
-5.07
-7.87
-10.35
-12.47
-14.38
-16.30
-18.45
-20.98
-23.81
-26.66
-29.04
-30.36
-30.12
-28.09
-24.44
-19.63
-14.28
-8.94
-3.96
0.47
4.19
7.05
8.82
9.38
8.78
7.33
5.55
3.98
3.03
2.86
3.36
4.26
5.24
6.05
6.57
6.81
6.86
6.75
6.52
6.09
5.37
4.33
2.97
1.42
-0.20
-1.82
-3.40
-4.99
-6.68
-8.59
-10.75
-13.19
-15.88
-18.75
-21.64
-24.29
-26.31
-27.22
-26.63
-24.34
-20.50
-15.54
-10.10
-4.82
-0.15
3.69
6.66
8.80
10.12
10.61
10.27
9.25
7.82
6.35
5.25
4.84
5.19
6.18
7.43
8.57
9.32
9.64
9.71
9.78
9.99
10.28
10.31
9.71
8.21
5.86
3.00
0.07
-2.54
-4.64
-6.33
-7.84
-9.44
-11.34
-13.62
-16.29
-19.23
-22.18
-24.73
-26.36
-26.53
-24.91
-21.48
-16.60
-10.87
-4.98
0.48
5.16
8.91
11.73
13.64
14.64
14.75
14.04
12.73
11.19
9.88
9.19
9.38
10.42
12.05
13.85
15.42
16.47
16.93
16.95
16.72
16.39
15.93
15.13
13.74
11.63
8.92
5.97
3.29
1.24
-0.11
-1.07
-2.09
-3.64
-5.93
-8.88
-12.14
-15.28
-17.90
-19.65
-20.30
-19.60
-17.38
-13.58
-8.37
-2.24
4.04
9.62
13.78
16.18
16.93
16.50
15.50
14.38
13.37
12.47
11.61
10.85
10.36
10.38
10.99
12.05
13.22
14.14
14.60
14.63
14.40
14.09
13.73
13.12
12.06
10.40
8.22
5.76
3.35
1.27
-0.33
-1.48
-2.34
-3.18
-4.33
-6.03
-8.40
-11.27
-14.27
-16.87
-18.54
-18.92
-17.83
-15.32
-11.60
-6.97
-1.82
3.40
8.24
12.23
15.02
16.37
16.28
14.97
12.83
10.33
7.97
6.08
4.88
4.41
4.57
5.20
6.10
7.07
7.97
8.70
9.19
9.38
9.24
8.74
7.85
6.55
4.89
2.95
0.85
-1.24
-3.17
-4.85
-6.34
-7.83
-9.58
-11.81
-14.53
-17.48
-20.22
-22.22
-23.10
-22.68
-20.96
-18.03
-14.06
-9.28
-4.00
1.32
6.05
9.61
11.63
12.08
11.35
10.04
8.77
7.92
7.54
7.46
7.49
7.59
7.83
8.40
9.31
10.38
11.30
11.76
11.65
11.08
10.26
9.36
8.38
7.20
5.67
3.77
1.63
-0.54
-2.63
-4.63
-6.67
-8.87
-11.31
-13.94
-16.65
-19.32
-21.78
-23.83
-25.17
-25.41
-24.21
-21.40
-17.14
-11.86
-6.21
-0.87
3.61
6.92
9.01
10.04
10.30
10.08
9.65
9.14
8.69
8.44
8.56
9.18
10.34
11.85
13.32
14.35
14.68
14.30
13.49
12.61
11.92
11.50
11.15
10.60
9.58
7.98
5.89
3.54
1.19
-0.92
-2.70
-4.17
-5.50
-6.88
-8.45
-10.23
-12.15
-14.00
-15.58
-16.65
-16.98
-16.33
-14.53
-11.51
-7.40
-2.58
2.39
6.93
10.56
13.07
14.51
15.13
15.21
14.97
14.49
13.83
13.07
12.38
12.02
12.20
13.00
14.27
15.75
17.10
18.05
18.50
18.50
18.17
17.63
16.91
15.97
14.72
13.16
11.31
9.33
7.35
5.48
3.77
2.15
0.53
-1.17
-2.98
-4.90
-6.89
-8.96
-11.17
-13.48
-15.73
-17.57
-18.55
-18.25
-16.53
-13.58
-9.93
-6.20
-2.94
-0.41
1.39
2.59
3.29
3.50
3.13
2.16
0.72
-0.81
-1.98
-2.50
-2.35
-1.78
-1.22
-0.90
-0.83
-0.75
-0.36
0.34
1.08
1.41
0.96
-0.35
-2.21
-4.13
-5.71
-6.89
-7.88
-9.01
-10.46
-12.15
-13.79
-15.10
-16.02
-16.87
-18.14
-20.15
-22.82
-25.50
-27.29
-27.39
-25.48
-21.95
-17.66
-13.50
-10.03
-7.31
-5.00
-2.71
-0.30
1.93
3.44
3.77
2.84
1.07
-0.85
-2.19
-2.48
-1.74
-0.33
1.28
2.75
3.98
5.08
6.17
7.28
8.27
8.84
8.75
7.90
6.42
4.61
2.80
1.27
0.07
-0.88
-1.81
-2.92
-4.34
-6.10
-8.15
-10.41
-12.83
-15.27
-17.57
-19.41
-20.46
-20.39
-19.03
-16.44
-12.87
-8.73
-4.48
-0.53
2.78
5.26
6.84
7.60
7.73
7.42
6.86
6.19
5.48
4.82
4.31
4.14
4.48
5.42
6.88
8.60
10.21
11.36
11.85
11.70
11.09
10.25
9.30
8.23
6.88
5.16
3.12
0.97
-0.98
-2.46
-3.39
-3.91
-4.33
-5.00
-6.22
-8.14
-10.73
-13.74
-16.75
-19.26
-20.74
-20.83
-19.38
-16.47
-12.41
-7.64
-2.64
2.10
6.15
9.20
11.15
12.09
12.27
11.97
11.46
10.86
10.27
9.76
9.49
9.62
10.22
11.25
12.51
13.70
14.56
14.99
14.98
14.69
14.23
13.68
13.01
12.09
10.83
9.15
7.12
4.91
2.76
0.87
-0.70
-2.02
-3.32
-4.84
-6.77
-9.12
-11.76
-14.41
-16.80
-18.63
-19.66
-19.69
-18.59
-16.30
-12.98
-8.96
-4.71
-0.77
2.45
4.74
6.06
6.58
6.45
5.80
4.71
3.29
1.73
0.32
-0.62
-0.88
-0.45
0.51
1.69
2.82
3.68
4.20
4.40
4.30
3.92
3.27
2.38
1.29
0.06
-1.32
-2.85
-4.56
-6.46
-8.45
-10.45
-12.38
-14.25
-16.17
-18.24
-20.48
-22.71
-24.55
-25.54
-25.25
-23.46
-20.24
-15.90
-10.91
-5.83
-1.10
2.92
6.03
8.13
9.23
9.38
8.74
7.51
6.00
4.55
3.50
3.05
3.26
3.99
4.98
5.98
6.86
7.58
8.19
8.74
9.16
9.29
8.94
8.01
6.54
4.72
2.78
0.90
-0.87
-2.55
-4.23
-6.00
-7.92
-10.06
-12.52
-15.35
-18.52
-21.79
-24.73
-26.73
-27.28
-26.09
-23.19
-18.97
-13.97
-8.74
-3.70
0.90
4.89
8.13
10.45
11.70
11.81
10.94
9.48
7.93
6.78
6.34
6.64
7.54
8.74
9.98
11.00
11.66
11.91
11.78
11.36
10.82
10.32
9.88
9.36
8.53
7.20
5.33
3.12
0.89
-1.06
-2.62
-3.97
-5.41
-7.28
-9.69
-12.50
-15.38
-17.90
-19.71
-20.61
-20.52
-19.35
-17.02
-13.48
-8.76
-3.17
2.78
8.35
12.87
15.92
17.45
17.80
17.50
17.03
16.69
16.52
16.38
16.16
15.91
15.81
16.09
16.84
17.97
19.13
19.96
20.19
19.82
19.01
17.94
16.70
15.20
13.28
10.83
7.94
4.85
1.88
-0.79
-3.13
-5.23
-7.26
-9.33
-11.45
-13.65
-15.95
-18.36
-20.82
-23.08
-24.73
-25.29
-24.40
-21.94
-18.18
-13.60
-8.78
-4.22
-0.24
2.95
5.23
6.48
6.63
5.71
3.96
1.83
-0.11
-1.38
-1.65
-0.93
0.56
2.44
4.32
5.89
6.97
7.49
7.47
6.99
6.17
5.12
3.95
2.74
1.53
0.32
-0.92
-2.24
-3.66
-5.20
-6.86
-8.64
-10.52
-12.51
-14.64
-16.95
-19.39
-21.82
-23.93
-25.29
-25.45
-24.08
-21.09
-16.68
-11.27
-5.39
0.45
5.84
10.44
14.03
16.42
17.54
17.41
16.24
14.41
12.38
10.62
9.46
9.08
9.41
10.25
11.34
12.41
13.30
13.89
14.16
14.09
13.71
13.04
12.09
10.83
9.23
7.28
5.01
2.52
0.01
-2.41
-4.61
-6.58
-8.37
-10.05
-11.71
-13.45
-15.39
-17.59
-19.98
-22.25
-23.89
-24.33
-23.13
-20.16
-15.69
-10.31
-4.60
0.91
5.92
10.17
13.47
15.64
16.55
16.26
15.10
13.57
12.19
11.26
10.85
10.84
11.09
11.53
12.26
13.38
14.88
16.49
17.83
18.55
18.50
17.80
16.76
15.65
14.59
13.41
11.90
9.89
7.50
5.02
2.87
1.24
0.13
-0.84
-2.14
-4.07
-6.68
-9.68
-12.65
-15.16
-16.96
-17.98
-18.28
-17.83
-16.46
-13.96
-10.16
-5.17
0.51
6.06
10.61
13.52
14.64
14.31
13.13
11.74
10.58
9.74
9.11
8.62
8.28
8.32
8.95
10.23
11.97
13.72
14.99
15.44
15.08
14.12
12.92
11.71
10.51
9.19
7.58
5.62
3.40
1.08
-1.19
-3.37
-5.46
-7.56
-9.75
-12.08
-14.63
-17.42
-20.41
-23.42
-26.08
-27.93
-28.56
-27.68
-25.26
-21.53
-16.89
-11.83
-6.81
-2.22
1.68
4.68
6.64
7.47
7.18
5.92
4.08
2.17
0.76
0.26
0.80
2.17
3.98
5.79
7.34
8.54
9.41
10.00
10.24
9.98
9.06
7.44
5.28
2.84
0.37
-1.97
-4.16
-6.28
-8.35
-10.34
-12.10
-13.54
-14.64
-15.63
-16.82
-18.49
-20.69
-23.16
-25.34
-26.54
-26.23
-24.16
-20.51
-15.71
-10.33
-4.86
0.36
5.09
9.19
12.43
14.58
15.50
15.18
13.93
12.21
10.60
9.52
9.19
9.58
10.51
11.70
12.92
13.98
14.75
15.13
15.08
14.60
13.74
12.56
11.12
9.48
7.68
5.74
3.75
1.77
-0.17
-2.04
-3.86
-5.62
-7.32
-8.96
-10.61
-12.45
-14.67
-17.36
-20.36
-23.20
-25.21
-25.75
-24.44
-21.35
-16.87
-11.63
-6.22
-1.05
3.62
7.63
10.82
13.02
14.10
14.07
13.19
11.87
10.59
9.76
9.57
10.01
10.89
11.98
13.08
14.09
14.94
15.57
15.93
15.96
15.62
14.94
13.95
12.73
11.33
9.72
7.96
6.07
4.15
2.30
0.57
-0.97
-2.38
-3.70
-5.05
-6.54
-8.28
-10.38
-12.77
-15.23
-17.31
-18.50
-18.36
-16.70
-13.67
-9.64
-5.11
-0.51
3.83
7.65
10.73
12.85
13.83
13.64
12.45
10.60
8.56
6.72
5.38
4.65
4.51
4.85
5.49
6.30
7.14
7.87
8.36
8.50
8.20
7.42
6.21
4.70
3.01
1.20
-0.69
-2.70
-4.82
-6.99
-9.09
-10.99
-12.60
-13.99
-15.33
-16.87
-18.76
-21.00
-23.32
-25.27
-26.34
-26.18
-24.62
-21.80
-18.01
-13.61
-8.96
-4.37
-0.10
3.58
6.44
8.33
9.19
9.12
8.33
7.10
5.71
4.41
3.43
2.90
2.93
3.50
4.54
5.90
7.33
8.59
9.47
9.82
9.61
8.89
7.72
6.09
3.99
1.46
-1.39
-4.30
-6.92
-9.01
-10.46
-11.46
-12.35
-13.51
-15.19
-17.39
-19.85
-22.14
-23.79
-24.45
-23.94
-22.26
-19.51
-15.86
-11.49
-6.65
-1.68
2.95
6.79
9.50
10.99
11.46
11.24
10.72
10.17
9.70
9.30
9.02
8.92
9.13
9.73
10.68
11.87
13.10
14.15
14.86
15.11
14.85
14.11
12.94
11.49
9.87
8.17
6.41
4.55
2.54
0.41
-1.72
-3.73
-5.52
-7.12
-8.71
-10.56
-12.87
-15.65
-18.70
-21.55
-23.67
-24.51
-23.80
-21.48
-17.76
-13.08
-7.93
-2.82
1.87
5.85
8.96
11.13
12.32
12.57
11.99
10.82
9.36
8.01
7.12
6.91
7.42
8.49
9.87
11.29
12.59
13.69
14.62
15.37
15.86
15.95
15.52
14.56
13.20
11.68
10.18
8.76
7.34
5.76
3.94
1.94
-0.06
-1.88
-3.45
-4.95
-6.69
-8.98
-11.90
-15.19
-18.23
-20.25
-20.63
-19.04
-15.66
-11.01
-5.80
-0.67
3.95
7.84
10.89
13.02
14.10
14.07
13.00
11.21
9.13
7.26
5.98
5.42
5.52
6.05
6.80
7.59
8.36
9.12
9.85
10.43
10.70
10.43
9.48
7.89
5.83
3.59
1.45
-0.43
-2.04
-3.53
-5.05
-6.72
-8.63
-10.80
-13.25
-16.00
-19.05
-22.27
-25.36
-27.87
-29.33
-29.34
-27.77
-24.77
-20.72
-16.07
-11.22
-6.48
-2.11
1.66
4.57
6.37
6.94
6.40
5.11
3.59
2.37
1.82
2.08
3.02
4.36
5.78
7.03
8.03
8.74
9.18
9.36
9.23
8.77
7.94
6.78
5.29
3.48
1.36
-1.01
-3.47
-5.82
-7.83
-9.44
-10.79
-12.28
-14.35
-17.27
-20.92
-24.79
-28.09
-30.04
-30.17
-28.45
-25.25
-21.11
-16.46
-11.57
-6.51
-1.40
3.53
7.78
10.85
12.34
12.23
10.92
9.05
7.32
6.21
5.87
6.17
6.88
7.80
8.87
10.11
11.52
13.03
14.40
15.34
15.61
15.11
13.91
12.20
10.25
8.29
6.45
4.72
3.03
1.28
-0.59
-2.57
-4.66
-6.85
-9.21
-11.80
-14.57
-17.31
-19.62
-21.01
-21.09
-19.66
-16.78
-12.71
-7.81
-2.49
2.87
7.88
12.14
15.36
17.35
18.11
17.84
16.83
15.43
13.97
12.72
11.92
11.69
12.08
12.99
14.23
15.49
16.52
17.17
17.38
17.23
16.79
16.10
15.11
13.70
11.80
9.45
6.79
4.04
1.39
-1.06
-3.36
-5.63
-8.04
-10.69
-13.62
-16.78
-20.01
-23.08
-25.63
-27.21
-27.41
-25.90
-22.65
-17.90
-12.17
-6.12
-0.41
4.49
8.28
10.86
12.26
12.60
12.00
10.64
8.77
6.69
4.76
3.30
2.52
2.44
2.93
3.72
4.51
5.07
5.27
5.09
4.56
3.76
2.73
1.45
-0.14
-2.04
-4.20
-6.47
-8.62
-10.50
-12.07
-13.46
-14.99
-16.96
-19.55
-22.75
-26.25
-29.55
-32.05
-33.18
-32.59
-30.13
-26.01
-20.63
-14.53
-8.27
-2.32
2.99
7.39
10.65
12.59
13.15
12.43
10.78
8.75
6.97
5.93
5.83
6.57
7.80
9.15
10.35
11.31
12.08
12.68
13.07
13.15
12.77
11.90
10.55
8.85
6.93
4.88
2.79
0.66
-1.48
-3.68
-5.98
-8.51
-11.35
-14.53
-17.94
-21.30
-24.23
-26.20
-26.71
-25.37
-22.03
-16.91
-10.50
-3.53
3.22
9.15
13.86
17.17
19.07
19.62
18.97
17.39
15.31
13.28
11.80
11.19
11.48
12.38
13.49
14.47
15.14
15.56
15.85
16.14
16.40
16.45
16.08
15.09
13.47
11.35
8.98
6.58
4.33
2.24
0.25
-1.75
-3.88
-6.21
-8.77
-11.60
-14.71
-18.02
-21.26
-23.92
-25.35
-25.00
-22.58
-18.27
-12.64
-6.40
-0.21
5.53
10.58
14.78
17.88
19.64
19.88
18.72
16.57
14.04
11.82
10.33
9.75
9.88
10.38
10.85
11.02
10.83
10.40
9.92
9.53
9.25
8.92
8.33
7.37
6.05
4.50
2.83
1.09
-0.78
-2.85
-5.13
-7.51
-9.88
-12.21
-14.65
-17.33
-20.32
-23.36
-25.91
-27.25
-26.89
-24.67
-20.95
-16.35
-11.49
-6.79
-2.40
1.71
5.47
8.66
10.84
11.64
10.98
9.19
6.94
5.02
4.02
4.12
5.09
6.47
7.80
8.88
9.70
10.37
11.00
11.55
11.83
11.61
10.76
9.31
7.40
5.29
3.21
1.30
-0.43
-2.06
-3.72
-5.53
-7.61
-10.00
-12.71
-15.69
-18.79
-21.76
-24.25
-25.80
-26.03
-24.64
-21.61
-17.15
-11.72
-5.89
-0.26
4.71
8.71
11.59
13.33
14.02
13.80
12.87
11.50
10.05
8.85
8.20
8.22
8.86
9.93
11.16
12.26
13.03
13.34
13.19
12.62
11.74
10.63
9.31
7.75
5.85
3.59
1.02
-1.68
-4.30
-6.65
-8.71
-10.60
-12.58
-14.91
-17.77
-21.10
-24.63
-27.85
-30.15
-30.98
-29.95
-26.99
-22.36
-16.55
-10.22
-3.98
1.72
6.60
10.51
13.37
15.15
15.85
15.60
14.67
13.49
12.51
12.08
12.33
13.14
14.25
15.34
16.23
16.88
17.32
17.60
17.64
17.32
16.47
15.03
13.08
10.79
8.39
6.00
3.68
1.43
-0.76
-2.85
-4.88
-6.93
-9.13
-11.66
-14.56
-17.68
-20.62
-22.84
-23.82
-23.21
-20.98
-17.36
-12.79
-7.71
-2.52
2.54
7.30
11.55
15.07
17.55
18.80
18.82
17.83
16.31
14.80
13.69
13.21
13.29
13.76
14.41
15.08
15.68
16.10
16.22
15.91
15.09
13.85
12.37
10.91
9.57
8.28
6.80
4.87
2.43
-0.35
-3.10
-5.55
-7.62
-9.57
-11.83
-14.77
-18.43
-22.39
-25.90
-28.13
-28.49
-26.91
-23.76
-19.67
-15.19
-10.63
-5.98
-1.23
3.47
7.56
10.36
11.30
10.35
8.10
5.50
3.44
2.40
2.25
2.51
2.64
2.41
1.98
1.73
2.01
2.92
4.22
5.46
6.15
5.99
4.93
3.15
0.99
-1.18
-3.14
-4.83
-6.31
-7.77
-9.40
-11.36
-13.71
-16.37
-19.18
-21.88
-24.08
-25.38
-25.41
-23.93
-20.88
-16.47
-11.10
-5.34
0.20
5.00
8.67
11.04
12.13
12.14
11.33
10.00
8.46
6.99
5.82
5.15
5.04
5.47
6.28
7.26
8.16
8.80
9.09
9.02
8.64
7.99
7.12
6.04
4.75
3.27
1.62
-0.12
-1.90
-3.69
-5.56
-7.65
-10.12
-13.12
-16.59
-20.28
-23.71
-26.31
-27.49
-26.88
-24.39
-20.28
-15.04
-9.28
-3.56
1.71
6.30
10.06
12.88
14.64
15.28
14.84
13.56
11.83
10.13
8.87
8.29
8.39
9.00
9.83
10.67
11.37
11.95
12.46
12.91
13.18
13.04
12.25
10.71
8.52
6.00
3.52
1.33
-0.57
-2.39
-4.45
-6.96
-9.89
-13.05
-16.16
-19.00
-21.46
-23.42
-24.69
-24.89
-23.64
-20.69
-16.16
-10.54
-4.58
1.03
5.80
9.58
12.42
14.46
15.78
16.36
16.21
15.47
14.45
13.59
13.27
13.67
14.68
16.01
17.26
18.19
18.73
18.97
19.10
19.15
19.04
18.53
17.39
15.55
13.14
10.42
7.69
5.12
2.75
0.45
-1.94
-4.57
-7.52
-10.77
-14.18
-17.57
-20.65
-23.06
-24.40
-24.30
-22.55
-19.17
-14.45
-8.87
-3.04
2.44
7.05
10.47
12.55
13.33
13.00
11.87
10.33
8.72
7.30
6.20
5.43
4.96
4.72
4.68
4.84
5.16
5.52
5.76
5.66
5.05
3.88
2.21
0.24
-1.82
-3.82
-5.75
-7.67
-9.68
-11.83
-14.11
-16.44
-18.72
-20.88
-22.81
-24.36
-25.33
-25.41
-24.36
-22.03
-18.56
-14.22
-9.48
-4.73
-0.30
3.65
7.00
9.64
11.44
12.25
12.08
11.10
9.69
8.31
7.38
7.06
7.28
7.78
8.22
8.43
8.37
8.17
7.99
7.86
7.63
7.04
5.90
4.17
2.08
-0.06
-1.96
-3.55
-5.00
-6.66
-8.85
-11.77
-15.35
-19.27
-23.06
-26.12
-27.89
-27.96
-26.13
-22.50
-17.49
-11.72
-5.84
-0.44
4.11
7.67
10.25
11.96
12.91
13.19
12.91
12.17
11.17
10.17
9.47
9.26
9.60
10.30
11.07
11.65
11.90
11.85
11.70
11.57
11.44
11.09
10.20
8.58
6.27
3.56
0.90
-1.32
-3.00
-4.31
-5.64
-7.39
-9.78
-12.74
-15.94
-18.92
-21.21
-22.43
-22.35
-20.90
-18.17
-14.41
-9.97
-5.26
-0.60
3.72
7.52
10.62
12.82
13.97
13.99
13.06
11.52
9.85
8.49
7.69
7.50
7.79
8.34
9.00
9.73
10.51
11.31
12.04
12.46
12.29
11.34
9.59
7.29
4.87
2.75
1.17
0.06
-0.88
-2.02
-3.61
-5.68
-8.04
-10.48
-12.86
-15.13
-17.22
-18.91
-19.80
-19.43
-17.52
-14.14
-9.69
-4.79
0.03
4.46
8.41
11.91
14.90
17.18
18.52
18.78
18.10
16.87
15.60
14.74
14.54
14.98
15.87
16.92
17.83
18.44
18.69
18.63
18.38
17.94
17.28
16.24
14.67
12.51
9.91
7.16
4.58
2.33
0.34
-1.66
-4.00
-6.86
-10.14
-13.55
-16.67
-19.13
-20.71
-21.30
-20.87
-19.41
-16.92
-13.47
-9.25
-4.59
0.01
4.03
6.99
8.57
8.73
7.68
5.90
3.90
2.13
0.84
0.08
-0.24
-0.23
0.05
0.60
1.41
2.38
3.29
3.88
3.96
3.45
2.47
1.19
-0.23
-1.71
-3.32
-5.12
-7.14
-9.27
-11.39
-13.47
-15.59
-17.93
-20.60
-23.48
-26.15
-28.02
-28.51
-27.35
-24.60
-20.69
-16.18
-11.57
-7.19
-3.16
0.48
3.66
6.21
7.90
8.62
8.44
7.65
6.65
5.88
5.50
5.47
5.61
5.71
5.74
5.79
5.99
6.42
6.91
7.16
6.83
5.77
4.08
2.11
0.31
-0.99
-1.78
-2.32
-3.02
-4.24
-6.04
-8.27
-10.66
-12.95
-15.03
-16.82
-18.22
-18.96
-18.64
-16.94
-13.77
-9.39
-4.38
0.57
4.90
8.26
10.55
11.83
12.27
12.05
11.30
10.22
8.95
7.71
6.66
6.00
5.84
6.21
6.99
7.93
8.72
9.12
9.00
8.41
7.51
6.49
5.45
4.36
3.11
1.60
-0.18
-2.14
-4.09
-5.92
-7.62
-9.40
-11.48
-14.02
-16.91
-19.74
-21.86
-22.66
-21.77
-19.20
-15.32
-10.70
-5.91
-1.33
2.83
6.47
9.46
11.61
12.69
12.60
11.47
9.73
7.91
6.54
5.91
6.02
6.65
7.49
8.33
9.05
9.73
10.44
11.21
12.01
12.67
13.01
12.88
12.25
11.22
10.01
8.76
7.56
6.34
4.95
3.25
1.16
-1.32
-4.06
-6.87
-9.47
-11.50
-12.63
-12.59
-11.31
-8.88
-5.55
-1.67
2.41
6.31
9.66
12.18
13.64
13.99
13.39
12.14
10.64
9.24
8.10
7.30
6.80
6.55
6.50
6.67
7.05
7.56
8.06
8.31
8.12
7.38
6.20
4.77
3.32
1.91
0.45
-1.28
-3.42
-5.93
-8.59
-11.12
-13.37
-15.43
-17.56
-19.92
-22.44
-24.64
-25.85
-25.47
-23.32
-19.67
-15.14
-10.45
-6.10
-2.35
0.73
3.08
4.60
5.11
4.55
3.09
1.12
-0.84
-2.35
-3.24
-3.55
-3.51
-3.30
-3.02
-2.65
-2.11
-1.40
-0.65
-0.08
0.07
-0.39
-1.49
-3.12
-5.04
-6.94
-8.56
-9.82
-10.74
-11.56
-12.58
-14.07
-16.09
-18.47
-20.79
-22.51
-23.14
-22.39
-20.19
-16.71
-12.25
-7.17
-1.89
3.12
7.41
10.62
12.52
13.17
12.85
11.99
11.05
10.29
9.79
9.45
9.13
8.73
8.32
8.06
8.08
8.42
8.86
9.10
8.78
7.78
6.15
4.18
2.15
0.25
-1.52
-3.23
-4.95
-6.69
-8.41
-10.14
-11.99
-14.14
-16.65
-19.33
-21.71
-23.15
-23.04
-21.07
-17.36
-12.39
-6.91
-1.61
2.96
6.53
9.10
10.82
11.88
12.41
12.50
12.19
11.60
10.91
10.32
9.95
9.85
9.93
10.10
10.31
10.58
10.99
11.55
12.15
12.58
12.55
11.84
10.42
8.48
6.39
4.49
3.00
1.91
0.98
-0.14
-1.76
-3.96
-6.64
-9.39
-11.73
-13.16
-13.36
-12.15
-9.60
-5.93
-1.48
3.30
7.94
11.98
15.04
16.93
17.61
17.31
16.35
15.08
13.77
12.55
11.44
10.47
9.69
9.21
9.09
9.32
9.77
10.25
10.54
10.54
10.23
9.65
8.82
7.73
6.32
4.52
2.33
-0.14
-2.71
-5.18
-7.47
-9.58
-11.67
-13.90
-16.31
-18.71
-20.71
-21.77
-21.50
-19.68
-16.46
-12.24
-7.56
-2.98
1.05
4.24
6.42
7.53
7.62
6.79
5.26
3.30
1.22
-0.67
-2.10
-2.91
-3.06
-2.67
-1.97
-1.29
-0.91
-1.01
-1.62
-2.60
-3.75
-4.93
-6.10
-7.34
-8.76
-10.42
-12.25
-14.12
-15.93
-17.70
-19.57
-21.66
-23.94
-26.12
-27.68
-28.01
-26.66
-23.53
-18.88
-13.27
-7.39
-1.82
3.00
6.87
9.78
11.78
12.96
13.33
12.93
11.82
10.17
8.29
6.59
5.43
5.02
5.36
6.22
7.29
8.26
8.90
9.10
8.82
8.05
6.77
4.98
2.74
0.22
-2.35
-4.71
-6.71
-8.39
-9.99
-11.87
-14.28
-17.18
-20.16
-22.51
-23.46
-22.54
-19.69
-15.31
-10.09
-4.67
0.45
5.02
8.90
11.99
14.14
15.26
15.38
14.72
13.68
12.70
12.12
12.06
12.45
13.06
13.68
14.16
14.46
14.60
14.61
14.47
14.05
13.23
11.87
9.95
7.62
5.11
2.70
0.56
-1.30
-3.02
-4.84
-6.95
-9.41
-12.09
-14.75
-17.06
-18.69
-19.33
-18.76
-16.79
-13.37
-8.67
-3.11
2.69
8.02
12.28
15.14
16.54
16.69
15.86
14.37
12.50
10.52
8.79
7.66
7.45
8.28
9.92
11.89
13.65
14.81
15.33
15.44
15.51
15.68
15.78
15.39
14.11
11.82
8.82
5.69
2.97
0.94
-0.61
-2.15
-4.15
-6.81
-9.97
-13.17
-15.84
-17.53
-18.02
-17.35
-15.62
-13.00
-9.59
-5.47
-0.84
3.99
8.54
12.25
14.71
15.72
15.44
14.28
12.81
11.54
10.80
10.61
10.84
11.23
11.54
11.69
11.72
11.77
11.91
12.13
12.22
11.95
11.05
9.40
7.11
4.42
1.70
-0.78
-2.89
-4.70
-6.44
-8.39
-10.76
-13.61
-16.83
-20.17
-23.31
-25.86
-27.44
-27.68
-26.34
-23.38
-19.07
-13.91
-8.53
-3.56
0.55
3.54
5.40
6.23
6.20
5.47
4.18
2.50
0.64
-1.14
-2.56
-3.41
-3.56
-3.08
-2.12
-0.98
0.13
1.00
1.53
1.68
1.44
0.82
-0.17
-1.48
-3.05
-4.78
-6.55
-8.26
-9.87
-11.43
-13.06
-14.97
-17.26
-19.86
-22.50
-24.63
-25.73
-25.41
-23.55
-20.34
-16.16
-11.43
-6.50
-1.66
2.89
6.88
10.06
12.20
13.17
13.00
11.90
10.27
8.55
7.17
6.38
6.26
6.69
7.43
8.24
8.99
9.63
10.17
10.57
10.67
10.33
9.44
8.04
6.29
4.45
2.76
1.35
0.19
-0.87
-2.00
-3.40
-5.16
-7.28
-9.63
-11.94
-13.87
-15.03
-15.08
-13.82
-11.21
-7.43
-2.88
1.92
6.40
10.11
12.82
14.52
15.36
15.58
15.34
14.74
13.82
12.68
11.47
10.41
9.72
9.52
9.77
10.31
10.98
11.60
12.12
12.55
12.92
13.19
13.25
12.96
12.17
10.91
9.31
7.61
6.09
4.87
3.95
3.13
2.16
0.82
-0.99
-3.22
-5.65
-7.95
-9.74
-10.67
-10.49
-9.15
-6.77
-3.61
-0.00
3.74
7.35
10.60
13.26
15.10
15.93
15.70
14.50
12.61
10.42
8.34
6.67
5.52
4.88
4.61
4.58
4.70
4.92
5.17
5.35
5.28
4.83
3.92
2.64
1.17
-0.27
-1.53
-2.58
-3.46
-4.30
-5.21
-6.30
-7.63
-9.32
-11.47
-14.08
-17.06
-20.04
-22.52
-23.91
-23.79
-22.03
-18.88
-14.86
-10.60
-6.57
-3.07
-0.17
2.13
3.75
4.57
4.47
3.48
1.85
0.03
-1.54
-2.53
-2.89
-2.74
-2.32
-1.81
-1.30
-0.77
-0.25
0.21
0.49
0.47
0.08
-0.65
-1.59
-2.60
-3.63
-4.70
-5.89
-7.30
-8.95
-10.80
-12.76
-14.73
-16.67
-18.46
-19.90
-20.64
-20.28
-18.51
-15.27
-10.89
-5.98
-1.27
2.71
5.72
7.87
9.39
10.48
11.15
11.19
10.41
8.81
6.69
4.62
3.20
2.79
3.42
4.69
6.04
6.99
7.32
7.05
6.40
5.54
4.58
3.43
2.01
0.28
-1.70
-3.81
-5.93
-7.96
-9.89
-11.80
-13.83
-16.09
-18.62
-21.28
-23.69
-25.32
-25.56
-24.05
-20.75
-16.07
-10.69
-5.34
-0.60
3.29
6.25
8.37
9.69
10.22
10.00
9.13
7.87
6.54
5.47
4.88
4.89
5.40
6.28
7.31
8.33
9.25
10.03
10.65
11.02
11.00
10.42
9.16
7.24
4.85
2.32
-0.05
-2.07
-3.77
-5.32
-6.98
-8.94
-11.25
-13.80
-16.24
-18.18
-19.19
-18.99
-17.48
-14.81
-11.27
-7.27
-3.19
0.65
3.99
6.66
8.53
9.50
9.58
8.92
7.82
6.65
5.73
5.22
5.11
5.21
5.33
5.40
5.47
5.67
6.10
6.70
7.26
7.51
7.29
6.56
5.44
4.10
2.68
1.25
-0.19
-1.65
-3.16
-4.74
-6.46
-8.39
-10.60
-13.02
-15.44
-17.47
-18.66
-18.62
-17.09
-14.08
-9.88
-4.99
-0.02
4.50
8.21
11.01
12.92
14.06
14.46
14.09
12.94
11.14
9.01
7.06
5.75
5.30
5.60
6.26
6.81
6.95
6.63
6.12
5.72
5.60
5.67
5.64
5.14
4.01
2.33
0.40
-1.50
-3.25
-4.92
-6.75
-8.85
-11.21
-13.59
-15.69
-17.33
-18.42
-18.94
-18.83
-17.85
-15.71
-12.23
-7.53
-2.12
3.25
7.81
11.05
12.92
13.71
13.90
13.84
13.57
12.92
11.72
10.04
8.33
7.27
7.37
8.75
10.92
13.05
14.36
14.49
13.60
12.25
10.96
10.02
9.26
8.35
6.98
5.11
2.99
0.95
-0.76
-2.19
-3.61
-5.41
-7.79
-10.68
-13.68
-16.22
-17.73
-17.84
-16.51
-13.97
-10.61
-6.89
-3.16
0.28
3.28
5.75
7.61
8.76
9.13
8.71
7.62
6.06
4.30
2.65
1.32
0.42
-0.05
-0.15
-0.03
0.18
0.33
0.34
0.12
-0.35
-1.11
-2.13
-3.35
-4.69
-6.02
-7.23
-8.28
-9.18
-10.09
-11.21
-12.74
-14.81
-17.33
-20.04
-22.45
-24.06
-24.39
-23.21
-20.52
-16.57
-11.76
-6.50
-1.21
3.78
8.15
11.62
13.98
15.12
15.19
14.47
13.42
12.42
11.72
11.36
11.24
11.21
11.20
11.26
11.46
11.83
12.24
12.48
12.29
11.55
10.24
8.52
6.59
4.60
2.68
0.87
-0.81
-2.42
-4.02
-5.74
-7.74
-10.16
-13.01
-16.11
-19.05
-21.27
-22.20
-21.46
-18.92
-14.83
-9.68
-4.18
1.05
5.52
9.02
11.53
13.12
13.89
13.89
13.19
11.94
10.40
8.93
7.83
7.30
7.29
7.59
7.98
8.28
8.48
8.65
8.84
8.95
8.79
8.15
6.92
5.14
3.04
0.90
-1.09
-2.87
-4.51
-6.22
-8.19
-10.58
-13.40
-16.49
-19.53
-22.01
-23.37
-23.13
-21.08
-17.36
-12.42
-6.95
-1.58
3.18
7.06
9.95
11.82
12.67
12.57
11.64
10.15
8.48
6.98
5.92
5.39
5.35
5.68
6.25
6.97
7.76
8.52
9.05
9.13
8.57
7.33
5.51
3.39
1.31
-0.49
-1.92
-3.12
-4.37
-6.00
-8.18
-10.87
-13.79
-16.49
-18.51
-19.44
-19.05
-17.29
-14.27
-10.24
-5.55
-0.63
4.06
8.05
11.00
12.66
13.00
12.22
10.67
8.78
6.94
5.40
4.26
3.52
3.15
3.15
3.54
4.30
5.30
6.25
6.84
6.86
6.29
5.26
4.01
2.73
1.49
0.22
-1.13
-2.60
-4.15
-5.69
-7.16
-8.54
-9.80
-10.83
-11.44
-11.31
-10.16
-7.79
-4.28
0.08
4.78
9.24
12.94
15.59
17.13
17.74
17.66
17.10
16.19
14.96
13.50
12.02
10.81
10.12
10.10
10.68
11.59
12.52
13.22
13.56
13.52
13.07
12.19
10.84
9.01
6.85
4.61
2.49
0.63
-1.13
-3.04
-5.40
-8.24
-11.33
-14.18
-16.24
-17.11
-16.72
-15.23
-12.92
-10.04
-6.74
-3.08
0.75
4.46
7.52
9.40
9.80
8.79
6.79
4.45
2.37
0.89
0.06
-0.34
-0.52
-0.62
-0.65
-0.56
-0.32
-0.01
0.23
0.24
-0.05
-0.65
-1.50
-2.57
-3.84
-5.32
-7.03
-8.97
-11.17
-13.63
-16.29
-18.96
-21.34
-22.97
-23.44
-22.48
-20.08
-16.47
-12.12
-7.48
-3.00
1.00
4.34
6.85
8.43
9.02
8.62
7.40
5.62
3.72
2.11
1.13
0.97
1.57
2.61
3.70
4.50
4.85
4.79
4.46
4.00
3.38
2.49
1.19
-0.56
-2.66
-4.85
-6.94
-8.90
-10.90
-13.18
-15.86
-18.73
-21.23
-22.63
-22.36
-20.18
-16.38
-11.57
-6.49
-1.71
2.45
5.91
8.68
10.71
11.89
12.15
11.59
10.47
9.22
8.22
7.68
7.61
7.85
8.16
8.35
8.35
8.20
7.96
7.69
7.35
6.83
6.01
4.80
3.19
1.29
-0.69
-2.56
-4.20
-5.66
-7.14
-8.91
-11.11
-13.70
-16.27
-18.25
-19.06
-18.36
-16.13
-12.64
-8.35
-3.67
1.04
5.54
9.56
12.76
14.85
15.66
15.32
14.26
13.08
12.27
12.05
12.31
12.75
13.08
13.24
13.40
13.79
14.54
15.47
16.20
16.33
15.63
14.20
12.35
10.42
8.56
6.73
4.76
2.55
0.18
-2.19
-4.39
-6.42
-8.34
-10.15
-11.66
-12.44
-11.99
-10.00
-6.49
-1.92
3.04
7.72
11.57
14.36
16.05
16.76
16.67
15.85
14.44
12.59
10.57
8.73
7.45
6.98
7.37
8.30
9.34
10.04
10.16
9.74
9.04
8.37
7.83
7.29
6.42
4.94
2.79
0.20
-2.43
-4.74
-6.61
-8.31
-10.23
-12.71
-15.71
-18.76
-21.12
-22.08
-21.29
-18.90
-15.46
-11.64
-7.97
-4.67
-1.74
0.91
3.27
5.12
6.16
6.15
5.16
3.49
1.64
0.05
-0.97
-1.40
-1.35
-0.97
-0.41
0.24
0.90
1.42
1.66
1.51
0.91
-0.09
-1.41
-2.97
-4.63
-6.29
-7.82
-9.16
-10.36
-11.56
-13.01
-14.84
-16.99
-19.14
-20.78
-21.38
-20.61
-18.40
-15.02
-10.94
-6.63
-2.54
1.05
3.99
6.23
7.76
8.59
8.77
8.40
7.62
6.69
5.87
5.39
5.39
5.83
6.53
7.26
7.84
8.20
8.39
8.46
8.42
8.15
7.51
6.41
4.85
2.99
0.98
-1.02
-2.99
-5.01
-7.19
-9.64
-12.34
-15.13
-17.67
-19.57
-20.46
-20.13
-18.55
-15.88
-12.42
-8.50
-4.42
-0.48
3.03
5.82
7.66
8.48
8.36
7.59
6.57
5.64
4.98
4.65
4.57
4.68
5.00
5.59
6.52
7.69
8.87
9.73
10.02
9.63
8.67
7.41
6.09
4.88
3.81
2.78
1.68
0.39
-1.11
-2.83
-4.72
-6.71
-8.71
-10.57
-12.07
-12.99
-13.08
-12.18
-10.18
-7.13
-3.22
1.21
5.72
9.87
13.30
15.81
17.38
18.14
18.26
17.91
17.24
16.35
15.39
14.54
13.96
13.73
13.82
14.04
14.15
13.93
13.33
12.41
11.33
10.28
9.30
8.34
7.26
5.89
4.21
2.25
0.20
-1.80
-3.66
-5.45
-7.27
-9.25
-11.42
-13.64
-15.67
-17.24
-18.12
-18.24
-17.61
-16.31
-14.40
-11.94
-9.00
-5.76
-2.49
0.47
2.77
4.19
4.69
4.41
3.61
2.59
1.56
0.63
-0.18
-0.91
-1.55
-2.06
-2.38
-2.48
-2.40
-2.29
-2.32
-2.63
-3.24
-4.08
-5.04
-6.06
-7.13
-8.34
-9.72
-11.26
-12.85
-14.38
-15.78
-17.05
-18.29
-19.54
-20.77
-21.77
-22.20
-21.66
-19.86
-16.75
-12.54
-7.68
-2.71
1.90
5.84
8.92
11.08
12.24
12.38
11.57
10.03
8.18
6.50
5.37
4.90
4.97
5.28
5.59
5.80
5.98
6.24
6.55
6.75
6.58
5.84
4.57
3.02
1.53
0.34
-0.55
-1.33
-2.24
-3.47
-5.05
-6.89
-8.88
-10.92
-12.97
-14.88
-16.40
-17.14
-16.71
-14.88
-11.69
-7.48
-2.84
1.60
5.35
8.17
10.05
11.14
11.57
11.41
10.64
9.33
7.67
6.06
4.91
4.51
4.88
5.71
6.58
7.10
7.10
6.63
5.89
5.09
4.30
3.50
2.58
1.45
0.11
-1.40
-3.01
-4.68
-6.39
-8.14
-9.92
-11.71
-13.48
-15.17
-16.68
-17.83
-18.37
-18.06
-16.69
-14.26
-10.97
-7.15
-3.21
0.53
3.89
6.81
9.27
11.17
12.36
12.68
12.12
10.89
9.43
8.25
7.77
8.12
9.15
10.47
11.72
12.68
13.31
13.65
13.78
13.62
13.05
11.95
10.29
8.20
5.91
3.65
1.52
-0.48
-2.43
-4.44
-6.56
-8.75
-10.90
-12.83
-14.33
-15.17
-15.12
-14.10
-12.19
-9.61
-6.69
-3.74
-0.92
1.77
4.34
6.75
8.77
10.10
10.52
10.01
8.82
7.35
5.97
4.90
4.17
3.69
3.39
3.32
3.52
4.00
4.63
5.10
5.11
4.43
3.02
1.06
-1.11
-3.16
-4.89
-6.28
-7.49
-8.77
-10.31
-12.18
-14.32
-16.58
-18.74
-20.53
-21.67
-21.87
-20.87
-18.59
-15.15
-10.87
-6.25
-1.82
1.99
4.91
6.83
7.82
8.03
7.72
7.12
6.45
5.82
5.34
5.04
4.99
5.25
5.83
6.66
7.64
8.62
9.44
9.99
10.18
9.91
9.12
7.76
5.85
3.50
0.91
-1.68
-4.07
-6.17
-8.08
-10.04
-12.35
-15.22
-18.55
-21.90
-24.54
-25.76
-25.08
-22.48
-18.40
-13.50
-8.39
-3.54
0.81
4.46
7.22
8.87
9.32
8.72
7.50
6.22
5.38
5.16
5.47
6.03
6.61
7.18
7.85
8.76
9.89
11.00
11.67
11.56
10.55
8.85
6.90
5.17
3.94
3.15
2.49
1.59
0.22
-1.60
-3.65
-5.66
-7.48
-9.19
-10.96
-12.79
-14.46
-15.43
-15.08
-13.01
-9.22
-4.17
1.38
6.66
11.10
14.49
16.88
18.45
19.42
19.91
19.99
19.67
19.04
18.22
17.40
16.76
16.45
16.51
16.90
17.46
18.01
18.38
18.48
18.28
17.81
17.09
16.08
14.72
12.98
10.85
8.44
5.95
3.54
1.35
-0.67
-2.68
-4.87
-7.36
-10.14
-12.97
-15.47
-17.20
-17.80
-17.03
-14.92
-11.70
-7.80
-3.71
0.11
3.31
5.69
7.19
7.84
7.75
7.07
6.03
4.91
3.97
3.34
3.03
2.90
2.82
2.71
2.59
2.60
2.85
3.36
3.97
4.42
4.44
3.89
2.77
1.29
-0.30
-1.78
-3.06
-4.22
-5.43
-6.92
-8.83
-11.19
-13.91
-16.77
-19.55
-21.95
-23.70
-24.51
-24.14
-22.48
-19.59
-15.73
-11.31
-6.87
-2.85
0.41
2.76
4.19
4.82
4.80
4.33
3.57
2.75
2.11
1.82
1.98
2.56
3.39
4.25
4.92
5.28
5.27
4.92
4.32
3.50
2.47
1.21
-0.32
-2.16
-4.27
-6.58
-8.93
-11.18
-13.21
-15.06
-16.88
-18.86
-21.10
-23.46
-25.55
-26.80
-26.74
-25.14
-22.15
-18.18
-13.71
-9.16
-4.76
-0.68
2.92
5.78
7.66
8.42
8.12
7.10
5.84
4.76
4.17
4.10
4.44
4.97
5.50
5.93
6.26
6.56
6.89
7.27
7.61
7.71
7.35
6.39
4.86
2.95
0.95
-0.88
-2.39
-3.63
-4.76
-5.95
-7.33
-8.97
-10.90
-13.04
-15.27
-17.31
-18.80
-19.32
-18.52
-16.22
-12.52
-7.73
-2.40
2.86
7.50
11.14
13.64
15.12
15.85
16.10
16.10
15.96
15.75
15.51
15.36
15.40
15.69
16.18
16.77
17.35
17.85
18.28
18.68
19.04
19.25
19.10
18.35
16.88
14.72
12.09
9.33
6.74
4.51
2.62
0.97
-0.68
-2.50
-4.62
-7.02
-9.53
-11.87
-13.66
-14.56
-14.31
-12.83
-10.25
-6.87
-3.07
0.77
4.32
7.28
9.46
10.74
11.12
10.77
9.92
8.80
7.58
6.35
5.13
3.98
3.07
2.56
2.58
3.14
4.01
4.88
5.39
5.35
4.74
3.63
2.18
0.51
-1.26
-3.05
-4.72
-6.13
-7.23
-8.17
