1553285762.00
64.000000
-0.00
-0.00
-0.00
-0.00
-0.00
-0.00
-0.00
-0.00
-0.00
-0.00
0.00
0.01
0.01
-0.00
-0.03
-0.05
-0.05
0.00
0.13
0.36
0.66
1.01
1.37
1.72
2.06
2.40
2.79
3.24
3.80
4.42
5.06
5.66
6.20
6.68
7.15
7.68
8.31
9.14
10.09
11.04
11.88
12.56
13.14
13.76
14.65
15.96
17.91
20.32
22.90
25.38
27.58
29.57
31.68
34.32
37.81
42.54
48.15
54.10
59.83
64.97
69.58
74.14
79.34
85.71
93.76
103.00
112.62
121.73
129.77
136.75
143.30
150.75
157.77
166.64
177.95
191.79
206.97
220.57
228.25
225.36
208.53
176.87
132.76
80.05
23.07
-34.94
-92.44
-149.16
-205.23
-260.37
-313.74
-363.87
-409.83
-450.91
-486.50
-515.74
-537.23
-549.22
-549.96
-538.37
-514.20
-478.67
-433.88
-382.45
-327.02
-269.85
-212.64
-156.66
-102.94
-52.34
-5.87
35.61
71.40
101.25
125.30
144.08
158.33
168.76
175.99
180.39
182.22
181.69
179.06
174.69
169.01
162.47
155.43
148.13
140.66
133.05
125.30
117.43
109.55
101.80
94.31
87.19
80.42
73.91
67.56
61.27
55.03
48.97
43.27
38.13
33.63
29.69
26.07
22.49
18.71
14.70
10.67
6.97
3.95
1.79
0.37
-0.73
-2.01
-3.85
-6.33
-9.15
-11.75
-13.67
-14.66
-14.87
-14.76
-14.82
-15.46
-16.96
-19.45
-22.91
-26.91
-30.30
-31.39
-28.39
-20.35
-7.79
7.22
21.72
32.96
39.36
40.91
38.87
35.00
30.78
27.13
24.31
22.37
21.26
20.83
20.80
20.65
19.73
17.49
13.70
8.82
3.95
0.51
-0.19
2.50
8.12
15.22
21.66
25.41
25.36
21.76
16.18
10.78
7.38
6.58
7.53
8.48
7.78
4.78
0.11
-4.81
-8.63
-10.76
-11.57
-11.76
-11.68
-11.08
-9.31
-5.90
-1.01
4.57
9.79
14.07
17.46
20.45
23.43
26.26
28.32
29.03
28.14
25.98
22.99
19.40
15.20
10.38
5.42
1.31
-0.96
-1.21
-0.34
-0.10
-2.30
-7.94
-16.93
-28.22
-40.45
-52.33
-62.70
-70.45
-74.46
-73.92
-68.64
-59.42
-47.91
-36.12
-25.77
-17.71
-11.72
-6.74
-1.45
5.20
13.40
22.45
30.96
37.42
40.86
41.15
38.96
35.35
31.23
27.11
23.12
19.32
15.97
13.62
12.78
13.66
15.84
18.26
19.61
18.84
15.59
10.33
4.18
-1.64
-6.11
-8.62
-9.02
-7.49
-4.46
-0.46
3.91
7.94
10.77
11.56
9.81
5.60
-0.16
-5.92
-9.86
-10.68
-7.40
-0.49
8.44
17.23
23.96
27.36
27.00
23.09
16.29
7.50
-2.27
-12.02
-20.80
-27.99
-33.31
-36.78
-38.53
-38.77
-37.79
-36.12
-34.39
-33.09
-32.38
-31.95
-31.32
-30.19
-28.66
-27.15
-26.14
-25.73
-25.52
-24.88
-23.44
-21.36
-19.30
-18.04
-18.04
-19.10
-20.42
-20.93
-19.67
-16.18
-10.55
-3.39
4.44
12.04
18.75
24.21
28.27
30.98
32.32
32.28
30.95
28.63
25.77
22.85
19.90
16.63
12.48
7.15
0.95
-5.11
-9.71
-11.82
-11.33
-9.15
-6.83
-5.78
-6.55
-8.49
-10.14
-9.85
-6.77
-1.20
5.44
11.16
14.28
13.98
10.46
4.70
-2.24
-9.26
-15.44
-19.76
-21.13
-18.69
-12.32
-2.90
7.55
16.78
23.12
26.15
26.71
26.30
26.20
26.81
27.46
26.99
24.38
19.39
12.72
5.68
-0.43
-4.82
-7.59
-9.42
-11.05
-12.77
-14.22
-14.65
-13.53
-10.94
-7.79
-5.31
-4.47
-5.50
-7.88
-10.74
-13.33
-15.31
-16.94
-18.73
-21.17
-24.50
-28.60
-33.01
-37.06
-39.88
-40.76
-39.21
-35.10
-28.70
-20.51
-11.06
-0.86
9.64
19.78
28.64
35.15
38.40
38.07
34.68
29.48
24.08
19.78
17.21
16.18
15.93
15.64
14.79
13.42
12.04
11.35
11.79
13.39
15.67
17.94
19.61
20.46
20.64
20.32
19.51
17.88
14.98
10.59
5.09
-0.64
-5.57
-8.99
-10.91
-11.94
-12.85
-14.05
-15.32
-15.91
-14.95
-11.99
-7.22
-1.49
3.99
8.16
10.39
10.77
10.06
9.52
10.50
13.98
20.21
28.43
37.05
44.03
47.57
46.66
41.34
32.64
22.12
11.44
1.92
-5.60
-10.62
-12.85
-12.25
-9.09
-4.18
1.16
5.28
6.74
4.89
0.09
-6.44
-13.16
-18.96
-23.50
-27.20
-30.78
-34.76
-39.12
-43.26
-46.38
-47.77
-47.10
-44.41
-40.01
-34.30
-27.60
-20.22
-12.57
-5.29
0.80
4.77
5.99
4.36
0.46
-4.60
-9.56
-13.46
-15.91
-17.05
-17.27
-16.80
-15.60
-13.42
-10.08
-5.70
-0.81
3.86
7.64
10.25
11.80
12.64
13.11
13.38
13.41
13.12
12.62
12.29
12.67
14.12
16.61
19.61
22.30
23.90
24.07
23.00
21.29
19.66
18.66
18.67
19.96
22.81
27.44
33.84
41.43
49.10
55.32
58.75
58.63
55.07
48.85
41.12
32.91
24.91
17.43
10.60
4.50
-0.68
-4.77
-7.64
-9.42
-10.43
-11.07
-11.60
-12.02
-12.04
-11.22
-9.22
-6.10
-2.37
1.07
3.21
3.36
1.34
-2.45
-7.19
-12.01
-16.18
-19.30
-21.17
-21.68
-20.71
-18.10
-13.87
-8.31
-2.06
4.05
9.24
13.01
15.28
16.28
16.42
16.04
15.31
14.21
12.60
10.44
7.95
5.64
4.15
3.94
5.01
6.84
8.57
9.42
9.02
7.47
5.20
2.63
-0.00
-2.74
-5.67
-8.72
-11.62
-14.05
-15.85
-17.20
-18.46
-19.95
-21.65
-23.16
-23.83
-23.08
-20.70
-16.98
-12.57
-8.29
-4.88
-2.91
-2.73
-4.40
-7.74
-12.28
-17.35
-22.46
-27.42
-32.50
-38.20
-44.77
-52.07
-59.46
-66.05
-71.09
-74.18
-75.28
-74.56
-72.25
-68.59
-63.81
-58.10
-51.57
-44.07
-35.27
-24.78
-12.54
0.97
14.73
27.35
37.50
44.30
47.48
47.36
44.68
40.23
34.72
28.75
22.92
18.06
15.37
16.17
21.53
31.64
45.51
60.98
75.29
85.82
90.82
89.81
83.67
74.12
63.20
52.58
43.15
35.01
27.87
21.57
16.59
14.01
15.13
20.71
30.37
42.28
53.37
60.04
58.92
47.72
25.98
-4.43
-39.30
-72.79
-98.90
-113.34
-114.85
-105.47
-89.39
-70.99
-53.00
-35.76
-17.93
1.93
23.75
45.39
63.18
73.37
73.56
63.48
44.94
21.13
-4.36
-28.49
-49.26
-65.84
-77.96
-85.25
-86.87
-81.80
-69.84
-52.57
-33.57
-17.37
-7.40
-4.09
-4.48
-3.78
1.93
13.24
26.95
37.75
41.17
35.86
24.07
10.27
-1.04
-7.02
-7.01
-1.98
6.48
16.84
27.72
37.78
45.59
49.83
49.76
45.47
37.99
28.94
20.12
13.02
8.49
6.73
7.31
9.50
12.55
15.91
19.20
22.03
23.92
24.34
22.99
19.97
15.80
11.14
6.45
1.83
-2.88
-7.76
-12.57
-16.68
-19.41
-20.35
-19.56
-17.51
-14.81
-12.01
-9.55
-7.87
-7.51
-8.97
-12.50
-17.74
-23.75
-29.34
-33.45
-35.55
-35.67
-34.16
-31.32
-27.23
-21.74
-14.82
-6.78
1.58
9.19
14.94
18.12
18.46
16.19
11.74
5.55
-1.93
-10.23
-18.68
-26.40
-32.36
-35.62
-35.73
-32.76
-27.47
-21.04
-14.80
-9.76
-6.44
-4.73
-4.28
-4.56
-5.23
-6.10
-7.11
-8.22
-9.31
-10.15
-10.65
-10.77
-10.56
-10.05
-9.10
-7.32
-4.27
0.30
6.08
12.30
17.90
21.98
24.26
25.03
24.94
24.48
23.51
21.53
18.08
13.35
8.30
4.30
2.34
2.50
3.66
4.22
2.98
-0.30
-4.72
-8.81
-11.28
-11.59
-10.20
-8.09
-6.24
-5.24
-5.19
-5.94
-7.27
-9.03
-11.17
-13.60
-16.00
-17.94
-18.94
-18.67
-16.94
-13.72
-9.12
-3.39
3.06
9.64
15.60
20.24
23.14
24.30
24.00
22.70
20.77
18.35
15.44
12.12
8.67
5.62
3.55
2.90
3.64
5.34
7.30
8.87
9.63
9.50
8.67
7.36
5.73
3.74
1.30
-1.58
-4.70
-7.71
-10.23
-12.07
-13.30
-14.21
-15.08
-16.00
-16.71
-16.69
-15.33
-12.23
-7.35
-1.15
5.54
11.79
16.79
20.13
21.73
21.87
20.99
19.47
17.52
15.20
12.54
9.64
6.72
4.07
1.99
0.55
-0.33
-0.86
-1.28
-1.59
-1.64
-1.15
0.06
1.88
3.85
5.34
5.74
4.76
2.43
-0.95
-5.06
-9.58
-14.20
-18.59
-22.27
-24.76
-25.68
-24.96
-22.83
-19.68
-15.77
-11.11
-5.54
1.08
8.58
16.32
23.32
28.56
31.31
31.38
29.15
25.37
20.86
16.26
11.89
7.76
3.80
0.03
-3.32
-5.86
-7.29
-7.52
-6.82
-5.71
-4.70
-4.05
-3.72
-3.48
-3.17
-2.90
-2.96
-3.74
-5.39
-7.81
-10.66
-13.54
-16.21
-18.57
-20.65
-22.42
-23.74
-24.33
-23.87
-22.11
-18.92
-14.39
-8.82
-2.68
3.44
8.99
13.56
16.99
19.29
20.59
21.03
20.64
19.38
17.27
14.41
11.06
7.56
4.20
1.18
-1.45
-3.70
-5.57
-6.92
-7.50
-7.08
-5.64
-3.48
-1.20
0.54
1.28
0.94
-0.18
-1.70
-3.40
-5.44
-8.24
-12.14
-17.03
-22.19
-26.47
-28.76
-28.49
-25.86
-21.65
-16.75
-11.70
-6.51
-0.92
5.20
11.42
16.84
20.46
21.75
20.96
18.99
16.85
15.14
13.83
12.43
10.44
7.74
4.73
2.00
0.01
-1.19
-1.94
-2.58
-3.28
-3.79
-3.69
-2.60
-0.49
2.19
4.66
6.07
5.74
3.42
-0.66
-5.88
-11.39
-16.43
-20.48
-23.34
-24.98
-25.28
-23.95
-20.50
-14.67
-6.74
2.28
10.93
17.78
22.01
23.61
23.28
21.92
20.21
18.40
16.37
13.88
10.80
7.11
2.92
-1.62
-6.17
-10.17
-12.86
-13.49
-11.69
-7.79
-2.72
2.25
5.98
7.88
7.99
6.79
4.95
2.97
1.09
-0.65
-2.30
-3.75
-4.78
-5.07
-4.36
-2.56
0.14
3.10
5.39
5.90
3.70
-1.53
-9.28
-18.18
-26.40
-32.38
-35.23
-35.05
-32.65
-29.08
-25.04
-20.81
-16.35
-11.66
-6.88
-2.14
2.59
7.54
12.87
18.24
22.62
24.50
22.60
16.58
7.42
-2.88
-12.04
-18.40
-21.47
-21.84
-20.66
-18.96
-17.22
-15.45
-13.47
-11.30
-9.20
-7.64
-6.90
-6.84
-6.92
-6.55
-5.35
-3.40
-1.12
1.01
2.68
3.83
4.49
4.66
4.21
2.96
0.91
-1.77
-4.70
-7.43
-9.55
-10.66
-10.28
-7.91
-3.24
3.55
11.62
19.56
25.84
29.36
29.82
27.80
24.41
20.73
17.38
14.43
11.59
8.64
5.81
3.82
3.63
5.99
10.95
17.75
25.03
31.31
35.49
37.15
36.55
34.35
31.22
27.60
23.73
19.72
15.71
11.92
8.63
6.06
4.28
3.25
2.80
2.76
2.96
3.32
3.78
4.30
4.75
4.92
4.50
3.21
0.91
-2.29
-5.98
-9.58
-12.59
-14.70
-15.91
-16.37
-16.20
-15.31
-13.39
-10.14
-5.47
0.22
6.09
11.07
14.27
15.24
14.16
11.57
8.14
4.39
0.56
-3.30
-7.09
-10.53
-13.19
-14.69
-14.89
-14.02
-12.60
-11.18
-10.09
-9.24
-8.27
-6.84
-4.90
-2.87
-1.52
-1.58
-3.43
-6.80
-10.97
-15.08
-18.44
-20.73
-21.87
-21.70
-19.88
-15.91
-9.50
-1.02
8.49
17.49
24.55
28.85
30.40
29.90
28.25
26.15
23.82
21.09
17.69
13.52
8.82
4.19
0.38
-2.15
-3.29
-3.39
-3.06
-2.86
-2.96
-3.21
-3.19
-2.78
-2.18
-1.90
-2.42
-3.90
-6.05
-8.42
-10.74
-13.24
-16.47
-20.82
-26.07
-31.21
-34.68
-35.09
-31.82
-25.40
-17.11
-8.44
-0.42
6.66
12.98
18.71
23.64
26.93
27.68
25.50
20.86
15.08
9.73
5.92
3.90
3.04
2.30
0.91
-1.22
-3.54
-5.24
-5.74
-4.89
-3.09
-0.98
0.82
1.83
1.85
0.90
-0.85
-2.97
-5.00
-6.49
-7.22
-7.37
-7.50
-8.41
-10.74
-14.57
-19.32
-23.87
-26.93
-27.47
-25.02
-19.68
-12.01
-2.69
7.50
17.75
27.11
34.50
38.91
39.74
37.05
31.69
25.07
18.71
13.85
11.08
10.28
10.83
11.83
12.50
12.33
11.15
9.13
6.60
4.04
1.94
0.69
0.46
1.11
2.13
2.74
2.23
0.07
-3.74
-8.78
-14.29
-19.50
-23.82
-26.97
-28.93
-29.85
-29.90
-29.19
-27.72
-25.38
-21.99
-17.34
-11.33
-4.13
3.84
11.85
19.13
24.96
28.88
30.75
30.69
28.99
26.01
22.21
18.02
13.93
10.37
7.60
5.69
4.51
3.87
3.59
3.58
3.84
4.40
5.22
6.15
6.99
7.51
7.58
7.13
6.18
4.71
2.64
-0.15
-3.67
-7.72
-11.91
-15.70
-18.71
-20.92
-22.62
-24.28
-26.16
-28.18
-29.79
-30.34
-29.29
-26.47
-22.10
-16.67
-10.80
-5.12
-0.15
3.75
6.46
8.17
9.29
10.18
11.00
11.52
11.34
10.08
7.69
4.43
0.82
-2.68
-5.70
-7.96
-9.18
-9.07
-7.49
-4.54
-0.77
3.06
6.16
8.03
8.58
7.98
6.49
4.30
1.51
-1.75
-5.25
-8.67
-11.74
-14.38
-16.68
-18.88
-21.12
-23.34
-25.27
-26.48
-26.57
-25.21
-22.18
-17.39
-10.95
-3.20
5.17
13.26
20.07
24.87
27.37
27.83
26.88
25.24
23.40
21.50
19.37
16.74
13.45
9.54
5.24
0.88
-3.14
-6.28
-7.81
-6.88
-2.82
4.40
13.86
23.70
31.66
35.83
35.37
30.77
23.50
15.36
7.75
1.29
-4.09
-8.82
-13.26
-17.45
-21.16
-24.08
-26.03
-27.01
-27.12
-26.37
-24.57
-21.39
-16.56
-10.18
-2.80
4.63
11.08
15.80
18.51
19.41
18.93
17.48
15.30
12.51
9.24
5.77
2.52
-0.08
-1.82
-2.73
-3.11
-3.28
-3.42
-3.48
-3.28
-2.70
-1.85
-1.11
-0.94
-1.67
-3.34
-5.65
-8.10
-10.28
-11.98
-13.33
-14.60
-16.04
-17.62
-19.06
-19.85
-19.57
-18.05
-15.40
-11.96
-8.06
-3.88
0.51
4.99
9.27
12.84
15.19
16.12
15.82
14.77
13.45
12.10
10.56
8.55
5.92
2.85
-0.08
-2.20
-3.04
-2.49
-0.96
0.97
2.71
3.94
4.61
4.99
5.37
5.95
6.57
6.80
6.11
4.16
0.96
-3.09
-7.35
-11.23
-14.40
-16.83
-18.57
-19.54
-19.41
-17.67
-13.89
-7.99
-0.42
7.98
16.22
23.41
28.95
32.55
34.11
33.69
31.44
27.59
22.60
17.10
11.76
7.22
3.86
1.78
0.81
0.65
1.02
1.74
2.70
3.78
4.75
5.37
5.42
4.80
3.59
1.95
-0.01
-2.24
-4.83
-7.80
-11.10
-14.53
-17.86
-20.90
-23.59
-25.91
-27.72
-28.66
-28.17
-25.69
-20.91
-14.03
-5.77
2.83
10.69
17.02
21.51
24.19
25.27
24.92
23.20
20.14
15.96
11.06
6.13
1.92
-1.03
-2.51
-2.74
-2.17
-1.35
-0.61
-0.01
0.62
1.40
2.29
2.98
3.00
1.98
-0.12
-2.95
-5.87
-8.31
-10.02
-11.20
-12.41
-14.19
-16.82
-20.10
-23.46
-26.20
-27.73
-27.78
-26.33
-23.48
-19.24
-13.61
-6.62
1.40
9.74
17.46
23.64
27.76
29.84
30.27
29.57
28.05
25.70
22.41
18.16
13.30
8.52
4.57
2.03
1.02
1.31
2.42
3.86
5.30
6.61
7.78
8.83
9.70
10.21
10.08
9.00
6.81
3.69
0.03
-3.54
-6.56
-8.89
-10.80
-12.76
-15.13
-17.97
-21.10
-24.17
-26.92
-29.30
-31.26
-32.60
-32.81
-31.23
-27.42
-21.45
-13.97
-6.03
1.37
7.60
12.56
16.47
19.48
21.53
22.30
21.44
18.91
15.07
10.62
6.34
2.72
-0.04
-1.96
-3.07
-3.26
-2.42
-0.64
1.69
3.73
4.65
4.06
2.23
0.03
-1.47
-1.59
-0.41
1.20
2.11
1.49
-0.78
-4.08
-7.50
-10.29
-12.24
-13.76
-15.46
-17.72
-20.42
-22.95
-24.43
-24.20
-21.97
-18.05
-12.99
-7.38
-1.58
4.25
10.02
15.55
20.54
24.52
27.13
28.19
27.79
26.17
23.64
20.46
16.87
13.09
9.39
6.02
3.26
1.25
0.10
-0.17
0.46
1.95
4.19
6.91
9.72
12.17
13.78
14.22
13.37
11.32
8.33
4.70
0.71
-3.39
-7.43
-11.23
-14.62
-17.51
-19.95
-22.04
-23.89
-25.38
-26.09
-25.38
-22.57
-17.34
-9.87
-0.96
8.22
16.48
22.92
27.09
29.03
29.09
27.67
25.12
21.64
17.41
12.70
7.98
3.84
0.78
-1.01
-1.72
-1.84
-1.88
-2.05
-2.21
-1.94
-0.90
0.91
3.08
4.87
5.64
5.06
3.24
0.65
-2.18
-4.86
-7.31
-9.76
-12.49
-15.66
-19.19
-22.66
-25.51
-27.21
-27.40
-25.96
-22.86
-18.14
-11.82
-4.03
4.84
14.04
22.51
29.22
33.41
34.91
34.06
31.56
28.15
24.42
20.73
17.26
14.10
11.31
8.92
6.97
5.52
4.62
4.28
4.45
4.93
5.42
5.60
5.29
4.44
3.07
1.24
-1.10
-4.05
-7.58
-11.49
-15.35
-18.68
-21.21
-22.98
-24.32
-25.70
-27.42
-29.47
-31.46
-32.77
-32.73
-30.84
-26.91
-21.11
-13.92
-6.03
1.89
9.27
15.72
20.94
24.63
26.53
26.46
24.52
21.20
17.24
13.39
10.16
7.67
5.73
4.12
2.81
2.00
1.95
2.77
4.22
5.80
6.94
7.30
6.88
6.02
5.10
4.34
3.59
2.39
0.27
-2.95
-6.97
-11.04
-14.34
-16.42
-17.43
-18.08
-19.25
-21.50
-24.72
-28.13
-30.68
-31.42
-29.89
-26.13
-20.54
-13.67
-6.06
1.72
8.97
14.94
18.91
20.48
19.83
17.74
15.35
13.70
13.27
13.73
14.19
13.60
11.31
7.38
2.56
-2.07
-5.63
-7.70
-8.45
-8.40
-8.08
-7.76
-7.38
-6.69
-5.49
-3.90
-2.46
-1.91
-2.87
-5.49
-9.26
-13.24
-16.47
-18.52
-19.60
-20.41
-21.72
-23.84
-26.49
-28.95
-30.45
-30.45
-28.78
-25.52
-20.83
-14.90
-7.99
-0.58
6.62
12.87
17.61
20.61
22.05
22.35
21.93
21.07
19.86
18.30
16.37
14.18
11.88
9.72
8.00
6.87
6.47
6.82
7.89
9.64
11.95
14.58
17.06
18.66
18.63
16.48
12.32
6.90
1.41
-3.04
-5.85
-7.16
-7.67
-8.28
-9.61
-11.79
-14.42
-16.82
-18.25
-18.17
-16.28
-12.51
-7.00
-0.02
7.95
16.20
23.89
30.06
33.99
35.39
34.53
32.07
28.81
25.29
21.72
17.95
13.81
9.36
5.01
1.33
-1.20
-2.40
-2.38
-1.46
0.00
1.70
3.34
4.60
5.11
4.57
2.90
0.32
-2.73
-5.74
-8.36
-10.57
-12.62
-14.91
-17.71
-20.97
-24.20
-26.66
-27.48
-26.03
-22.08
-15.90
-8.12
0.44
8.94
16.62
22.90
27.28
29.48
29.48
27.57
24.31
20.35
16.21
12.24
8.58
5.34
2.68
0.78
-0.24
-0.43
-0.06
0.47
0.77
0.56
-0.26
-1.60
-3.24
-4.93
-6.48
-7.89
-9.27
-10.85
-12.80
-15.12
-17.61
-20.01
-22.12
-23.97
-25.81
-27.87
-30.15
-32.17
-33.05
-31.82
-27.80
-20.98
-12.08
-2.38
6.78
14.36
19.91
23.45
25.27
25.62
24.64
22.39
19.06
15.05
10.94
7.35
4.68
3.08
2.41
2.37
2.61
2.90
3.13
3.29
3.44
3.62
3.75
3.73
3.36
2.52
1.14
-0.79
-3.25
-6.19
-9.51
-13.01
-16.41
-19.40
-21.80
-23.63
-25.17
-26.81
-28.83
-31.22
-33.52
-34.88
-34.38
-31.29
-25.50
-17.53
-8.42
0.67
8.81
15.54
20.81
24.74
27.30
28.39
27.89
25.86
22.76
19.35
16.35
14.25
13.01
12.17
11.20
9.80
8.10
6.56
5.55
5.20
5.24
5.25
4.89
4.11
3.07
1.95
0.69
-0.87
-2.82
-5.03
-7.02
-8.27
-8.60
-8.28
-8.14
-8.98
-11.27
-14.81
-18.79
-22.08
-23.66
-22.91
-19.91
-15.19
-9.54
-3.62
2.24
7.98
13.67
19.23
24.11
27.49
28.60
27.14
23.47
18.57
13.54
9.30
6.09
3.68
1.61
-0.33
-2.01
-2.96
-2.76
-1.24
1.28
4.10
6.45
7.69
7.44
5.62
2.37
-1.96
-6.91
-11.92
-16.45
-20.10
-22.77
-24.59
-25.81
-26.55
-26.70
-25.92
-23.79
-20.02
-14.56
-7.57
0.75
10.19
20.45
30.95
40.71
48.48
53.08
53.80
50.66
44.45
36.39
27.80
19.81
13.23
8.50
5.81
5.16
6.32
8.90
12.35
15.96
18.98
20.78
21.00
19.72
17.51
15.20
13.50
12.53
11.61
9.58
5.30
-1.61
-10.50
-19.90
-28.18
-34.22
-37.67
-38.74
-37.64
-34.17
-27.72
-17.84
-4.78
10.11
24.66
36.48
43.85
46.16
43.99
38.63
31.49
23.64
15.64
7.76
0.25
-6.38
-11.45
-14.34
-14.89
-13.40
-10.44
-6.48
-1.53
4.74
12.53
21.46
30.28
37.16
40.38
39.17
34.11
26.95
19.84
14.24
10.33
7.07
2.91
-3.10
-10.73
-18.62
-25.11
-29.23
-31.17
-32.08
-33.22
-35.09
-37.20
-38.53
-38.32
-36.65
-34.44
-32.81
-32.26
-32.34
-31.77
-29.29
-24.46
-18.23
-12.82
-10.93
-14.59
-24.10
-37.39
-50.42
-58.55
-58.39
-49.31
-33.90
-16.86
-3.09
4.38
5.40
2.11
-2.60
-6.75
-10.12
-13.81
-19.15
-26.67
-35.84
-45.53
-54.68
-62.81
-70.01
-76.64
-83.08
-89.53
-95.88
-101.55
-105.48
-106.24
-102.61
-94.22
-81.98
-67.82
-53.85
-41.49
-31.02
-22.00
-13.96
-7.06
-2.06
0.21
-0.43
-3.08
-6.06
-7.45
-5.91
-0.99
6.87
16.71
27.42
38.07
47.92
56.49
63.55
69.04
73.09
75.92
77.77
78.78
78.90
77.98
75.84
72.49
68.15
63.30
58.46
54.14
50.69
48.35
47.26
47.41
48.65
50.59
52.71
54.48
55.48
55.53
54.61
52.78
50.08
46.66
42.73
38.67
34.90
31.76
29.41
27.78
26.69
25.94
25.40
24.98
24.59
24.12
23.41
22.27
20.46
17.58
13.16
6.72
-2.01
-12.88
-25.16
-37.68
-48.98
-57.66
-62.52
-62.91
-58.79
-50.76
-40.00
-28.08
-16.51
-6.49
1.38
6.99
10.61
12.69
13.67
13.99
14.12
14.41
15.13
16.18
17.26
17.93
17.93
17.30
16.41
15.69
15.36
15.15
14.42
12.54
9.24
4.86
0.24
-3.72
-6.47
-8.23
-9.59
-11.23
-13.39
-15.77
-17.73
-18.80
-18.96
-18.86
-19.26
-20.55
-22.43
-23.94
-23.98
-21.96
-18.19
-13.96
-10.81
-9.88
-11.27
-14.12
-17.11
-19.22
-20.16
-20.41
-20.66
-21.25
-21.94
-22.21
-21.70
-20.61
-19.56
-19.21
-19.66
-20.35
-20.25
-18.57
-15.17
-10.67
-6.06
-2.18
0.71
2.99
5.34
8.29
11.82
15.45
18.46
20.26
20.62
19.77
18.23
16.61
15.39
14.86
15.14
16.27
18.26
21.11
24.74
28.83
32.80
35.84
37.17
36.31
33.28
28.58
23.02
17.31
11.96
7.18
3.14
0.07
-1.69
-1.95
-0.85
1.07
3.10
4.70
5.76
6.57
7.49
8.55
9.36
9.22
7.64
4.61
0.77
-2.90
-5.57
-6.93
-7.29
-7.31
-7.66
-8.66
-10.19
-11.84
-13.18
-14.02
-14.49
-14.93
-15.64
-16.64
-17.49
-17.41
-15.61
-11.71
-5.99
0.67
7.06
12.21
15.64
17.46
18.09
17.95
17.22
15.85
13.79
11.12
8.11
5.15
2.57
0.65
-0.46
-0.72
-0.13
1.16
2.87
4.57
5.85
6.36
5.97
4.77
2.99
0.93
-1.09
-2.87
-4.34
-5.58
-6.79
-8.21
-9.98
-12.06
-14.23
-16.18
-17.68
-18.59
-18.89
-18.60
-17.59
-15.66
-12.55
-8.14
-2.66
3.38
9.22
14.12
17.59
19.49
20.01
19.49
18.28
16.62
14.66
12.49
10.32
8.42
7.14
6.71
7.21
8.53
10.38
12.34
14.01
15.03
15.28
14.75
13.63
12.25
10.95
9.99
9.48
9.18
8.54
6.64
2.66
-3.66
-11.59
-19.38
-24.71
-25.67
-21.64
-13.73
-4.32
3.95
9.32
11.62
12.30
13.52
17.19
23.88
32.51
40.60
45.12
43.53
34.73
19.60
0.95
-17.35
-31.46
-38.74
-38.50
-31.91
-21.39
-9.59
1.48
10.56
17.10
20.80
21.43
18.88
13.56
6.49
-0.87
-7.32
-12.35
-16.30
-19.96
-23.91
-28.22
-32.40
-35.83
-38.18
-39.51
-40.16
-40.40
-40.20
-39.32
-37.48
-34.52
-30.44
-25.24
-18.84
-11.23
-2.68
6.04
13.86
19.70
22.98
23.76
22.70
20.58
17.99
15.11
11.87
8.27
4.58
1.25
-1.26
-2.81
-3.53
-3.74
-3.68
-3.44
-2.98
-2.33
-1.59
-1.05
-1.00
-1.66
-3.09
-5.14
-7.55
-10.05
-12.52
-15.04
-17.81
-20.98
-24.35
-27.21
-28.51
-27.22
-22.88
-15.95
-7.75
0.07
6.17
10.03
11.96
12.76
13.20
13.68
14.19
14.49
14.37
13.82
12.95
11.88
10.56
8.80
6.30
2.84
-1.52
-6.21
-10.26
-12.52
-12.12
-8.95
-3.87
1.62
5.90
7.93
7.52
5.24
2.00
-1.39
-4.48
-7.13
-9.42
-11.40
-13.15
-14.68
-16.02
-17.14
-17.91
-18.13
-17.56
-15.97
-13.19
-9.17
-3.94
2.24
8.90
15.39
20.99
25.13
27.55
28.38
28.06
27.09
25.93
24.78
23.67
22.51
21.18
19.54
17.46
14.78
11.43
7.50
3.28
-0.64
-3.64
-5.18
-5.05
-3.56
-1.51
-0.10
-0.54
-3.53
-8.80
-14.94
-19.75
-21.11
-17.94
-10.82
-1.88
6.14
11.06
12.16
10.31
7.33
5.13
4.95
7.28
12.13
19.29
28.44
38.85
49.19
57.79
63.01
64.10
61.55
56.87
51.89
47.96
45.33
43.22
40.28
35.36
28.13
19.19
9.79
1.19
-5.84
-11.29
-15.71
-19.84
-24.21
-29.05
-34.42
-40.43
-47.20
-54.69
-62.43
-69.50
-74.77
-77.51
-77.72
-76.25
-74.31
-72.75
-71.75
-70.68
-68.51
-64.36
-58.01
-49.88
-40.82
-31.64
-22.75
-14.09
-5.25
4.16
14.23
24.72
35.15
45.04
54.12
62.21
69.04
73.95
75.88
73.67
66.79
55.85
42.71
29.90
19.64
12.95
9.39
7.51
5.83
3.68
1.44
0.17
0.75
3.35
7.29
11.56
15.31
18.04
19.43
19.09
16.75
12.80
8.89
7.92
13.19
26.89
48.90
76.51
105.35
131.06
150.81
163.74
170.47
172.07
169.33
162.69
152.70
140.52
127.91
116.69
108.09
102.26
98.33
94.86
90.55
84.88
78.41
72.69
69.62
70.63
75.81
83.51
90.56
93.17
88.25
74.51
52.91
25.97
-3.17
-32.11
-59.96
-87.28
-115.49
-146.43
-181.89
-223.26
-270.86
-322.94
-375.11
-420.66
-452.16
-463.77
-453.01
-421.19
-372.04
-310.41
-241.15
-169.29
-100.86
-42.98
-2.54
16.23
13.83
-4.01
-28.13
-49.06
-60.25
-59.92
-51.18
-40.60
-35.93
-43.41
-65.39
-99.27
-137.58
-169.90
-185.85
-178.89
-148.61
-101.19
-47.51
0.80
35.37
53.85
59.74
59.95
61.57
69.03
83.17
102.22
123.50
144.58
163.46
177.86
184.61
180.11
161.46
128.05
82.32
29.25
-25.21
-75.65
-118.58
-152.79
-178.88
-198.56
-213.71
-225.59
-234.09
-238.09
-235.83
-225.81
-207.73
-182.77
-153.22
-121.54
-89.45
-57.70
-26.75
2.50
28.18
48.08
61.04
68.24
73.48
82.00
98.46
124.86
159.70
198.36
234.76
263.43
280.91
286.33
281.01
267.58
248.95
227.62
205.37
183.35
162.31
142.81
125.37
110.38
97.94
87.79
79.32
71.65
63.96
55.75
46.99
38.12
29.74
22.29
15.75
9.59
2.98
-4.71
-13.60
-23.11
-32.24
-39.95
-45.56
-48.78
-49.63
-48.10
-44.09
-37.51
-28.67
-18.51
-8.57
-0.58
4.21
5.51
4.10
1.53
-0.58
-1.20
-0.13
2.04
4.35
5.97
6.56
6.44
6.34
7.10
9.30
12.92
17.40
21.89
25.60
28.08
29.19
29.01
27.67
25.22
21.72
17.43
12.84
8.61
5.16
2.53
0.31
-2.12
-5.24
-9.13
-13.34
-17.08
-19.51
-19.95
-18.06
-13.91
-7.96
-1.06
5.66
11.04
14.02
14.13
11.61
7.40
2.77
-1.08
-3.46
-4.27
-4.03
-3.38
-2.78
-2.22
-1.29
0.52
3.48
7.40
11.55
15.03
17.07
17.31
15.91
13.38
10.33
7.32
4.54
2.01
-0.34
-2.57
-4.61
-6.35
-7.81
-9.04
-10.30
-11.80
-13.53
-15.11
-15.90
-15.10
-12.20
-7.13
-0.60
6.27
12.20
16.23
17.99
17.68
15.90
13.35
10.59
7.97
5.65
3.67
2.06
0.83
-0.03
-0.55
-0.77
-0.77
-0.66
-0.57
-0.60
-0.76
-0.97
-1.11
-1.10
-1.10
-1.38
-2.31
-4.07
-6.51
-9.21
-11.58
-13.20
-14.01
-14.27
-14.48
-14.97
-15.74
-16.43
-16.46
-15.37
-13.07
-9.90
-6.42
-3.12
-0.17
2.67
6.00
10.36
16.00
22.62
29.37
35.09
38.53
38.73
35.40
28.99
20.68
12.08
4.67
-0.56
-3.41
-4.37
-4.27
-3.86
-3.59
-3.60
-3.93
-4.59
-5.69
-7.21
-8.91
-10.36
-11.13
-11.08
-10.58
-10.28
-10.88
-12.66
-15.33
-18.19
-20.48
-21.79
-22.28
-22.53
-23.18
-24.56
-26.43
-28.13
-28.82
-27.85
-24.96
-20.27
-14.17
-7.18
0.21
7.45
14.00
19.29
22.82
24.37
24.03
22.32
20.01
17.90
16.52
15.92
15.70
15.28
14.22
12.54
10.71
9.43
9.26
10.26
11.93
13.50
14.24
13.85
12.56
10.90
9.39
8.25
7.26
5.98
3.99
1.20
-2.08
-5.32
-8.07
-10.25
-12.17
-14.38
-17.27
-20.81
-24.40
-27.12
-28.08
-26.81
-23.36
-18.30
-12.38
-6.36
-0.76
4.07
7.90
10.53
11.82
11.71
10.34
8.01
5.20
2.39
-0.05
-1.93
-3.23
-4.06
-4.54
-4.69
-4.47
-3.80
-2.70
-1.33
-0.00
0.95
1.31
1.07
0.43
-0.38
-1.21
-2.09
-3.22
-4.82
-7.01
-9.69
-12.55
-15.27
-17.62
-19.57
-21.25
-22.81
-24.20
-25.10
-24.97
-23.23
-19.60
-14.34
-8.16
-2.10
2.92
6.36
8.22
8.89
8.93
8.72
8.40
7.87
6.99
5.77
4.47
3.44
2.95
3.00
3.29
3.40
3.10
2.51
2.09
2.29
3.21
4.44
5.21
4.83
3.12
0.54
-2.15
-4.21
-5.40
-6.05
-6.68
-7.71
-9.20
-10.89
-12.63
-14.42
-16.40
-18.62
-20.78
-22.23
-22.25
-20.42
-16.95
-12.53
-7.97
-3.79
-0.04
3.62
7.49
11.60
15.43
18.23
19.31
18.42
15.90
12.56
9.30
6.79
5.03
3.60
1.99
-0.08
-2.28
-3.83
-3.99
-2.40
0.29
2.88
4.16
3.55
1.48
-0.90
-2.42
-2.62
-2.16
-2.27
-3.99
-7.38
-11.40
-14.44
-15.37
-14.19
-12.31
-11.58
-13.26
-17.20
-21.80
-24.83
-24.64
-20.88
-14.73
-8.06
-2.44
1.52
4.21
6.52
9.09
12.02
14.71
16.47
16.83
15.88
14.06
11.95
9.95
8.25
6.77
5.38
4.02
2.73
1.65
0.92
0.65
0.93
1.71
2.82
3.99
4.88
5.22
4.87
3.95
2.79
1.84
1.37
1.40
1.59
1.42
0.43
-1.54
-4.30
-7.37
-10.23
-12.45
-13.85
-14.40
-14.11
-12.95
-10.76
-7.39
-2.87
2.48
7.96
12.71
15.90
17.15
16.59
14.85
12.71
10.74
9.08
7.43
5.39
2.79
-0.17
-2.89
-4.77
-5.47
-5.13
-4.25
-3.43
-3.09
-3.31
-3.84
-4.33
-4.60
-4.71
-4.95
-5.58
-6.67
-8.00
-9.24
-10.14
-10.77
-11.48
-12.65
-14.40
-16.41
-17.91
-18.03
-16.18
-12.29
-6.86
-0.74
5.20
10.33
14.42
17.51
19.74
21.19
21.77
21.28
19.55
16.69
13.11
9.43
6.28
4.08
2.95
2.70
2.95
3.25
3.19
2.48
1.02
-1.09
-3.54
-5.93
-7.85
-9.04
-9.41
-9.10
-8.37
-7.58
-7.09
-7.19
-8.04
-9.59
-11.62
-13.78
-15.79
-17.45
-18.63
-19.21
-18.93
-17.47
-14.52
-10.07
-4.49
1.49
7.00
11.32
14.13
15.49
15.80
15.38
14.39
12.78
10.37
7.13
3.36
-0.33
-3.20
-4.84
-5.30
-5.08
-4.79
-4.81
-5.03
-5.03
-4.33
-2.95
-1.36
-0.24
-0.15
-1.11
-2.63
-4.04
-4.91
-5.41
-6.16
-7.85
-10.78
-14.67
-18.69
-21.91
-23.62
-23.71
-22.50
-20.45
-17.84
-14.59
-10.40
-5.14
0.97
7.12
12.25
15.52
16.62
15.90
14.16
12.21
10.60
9.36
8.21
6.82
5.07
3.12
1.40
0.34
0.33
1.37
3.22
5.41
7.37
8.66
9.06
8.62
7.64
6.40
5.12
3.83
2.43
0.80
-1.11
-3.28
-5.54
-7.77
-9.91
-11.97
-13.93
-15.71
-16.98
-17.24
-15.93
-12.64
-7.39
-0.71
6.47
13.07
18.21
21.42
22.74
22.51
21.20
19.17
16.61
13.62
10.37
7.15
4.40
2.46
1.49
1.38
1.75
2.15
2.24
1.92
1.34
0.74
0.33
0.09
-0.18
-0.71
-1.66
-2.94
-4.21
-5.09
-5.32
-4.98
-4.54
-4.63
-5.82
-8.28
-11.67
-15.31
-18.40
-20.30
-20.69
-19.54
-16.95
-13.12
-8.28
-2.81
2.75
7.70
11.42
13.53
14.06
13.36
12.01
10.51
9.15
7.97
6.78
5.41
3.81
2.14
0.80
0.22
0.69
2.17
4.24
6.28
7.68
8.15
7.84
7.22
6.78
6.74
6.81
6.41
4.89
1.96
-2.15
-6.78
-11.10
-14.41
-16.32
-16.64
-15.28
-12.10
-6.98
-0.05
8.12
16.48
23.67
28.54
30.43
29.44
26.34
22.18
17.89
14.01
10.59
7.41
4.27
1.18
-1.58
-3.58
-4.55
-4.49
-3.78
-2.90
-2.32
-2.22
-2.53
-3.07
-3.71
-4.52
-5.68
-7.36
-9.52
-11.90
-14.12
-15.89
-17.19
-18.24
-19.38
-20.83
-22.50
-23.88
-24.24
-22.89
-19.47
-14.13
-7.49
-0.38
6.41
12.38
17.29
21.07
23.66
24.86
24.47
22.41
18.86
14.35
9.67
5.60
2.68
1.09
0.63
0.91
1.53
2.26
3.05
3.96
4.96
5.87
6.38
6.21
5.24
3.65
1.81
0.10
-1.25
-2.31
-3.42
-4.97
-7.27
-10.37
-13.93
-17.44
-20.32
-22.10
-22.49
-21.36
-18.67
-14.43
-8.72
-1.88
5.50
12.58
18.49
22.56
24.55
24.63
23.31
21.09
18.38
15.36
12.12
8.81
5.68
3.10
1.43
0.81
1.11
1.90
2.68
3.03
2.80
2.16
1.42
0.76
0.12
-0.83
-2.48
-5.04
-8.31
-11.65
-14.38
-16.07
-16.85
-17.43
-18.70
-21.16
-24.62
-28.15
-30.69
-31.37
-29.96
-26.73
-22.11
-16.37
-9.66
-2.28
4.88
10.55
13.45
13.02
9.84
5.48
1.74
-0.16
-0.26
0.52
1.00
0.54
-0.55
-1.27
-0.68
1.54
4.52
7.00
7.89
7.04
5.32
4.08
4.29
5.94
7.72
7.95
5.52
0.56
-5.50
-10.67
-13.53
-13.81
-12.65
-11.68
-12.00
-13.49
-14.82
-14.21
-10.53
-3.85
4.37
12.13
17.83
20.96
22.09
22.34
22.56
23.00
23.11
22.12
19.56
15.61
10.99
6.75
3.75
2.55
3.15
5.22
8.17
11.30
13.88
15.26
14.96
12.81
8.98
4.00
-1.31
-6.00
-9.22
-10.45
-9.62
-7.14
-3.82
-0.71
1.07
0.65
-2.44
-7.98
-15.05
-22.08
-27.24
-28.93
-26.31
-19.60
-10.00
0.73
10.89
19.41
25.92
30.63
33.79
35.49
35.45
33.39
29.31
23.71
17.50
11.69
7.03
3.83
2.09
1.63
2.32
4.08
6.73
9.82
12.64
14.40
14.47
12.65
9.20
4.77
0.12
-4.11
-7.53
-10.06
-11.80
-12.98
-13.85
-14.59
-15.38
-16.38
-17.77
-19.62
-21.77
-23.78
-24.98
-24.59
-22.08
-17.35
-10.94
-3.88
2.65
7.66
10.66
11.72
11.28
9.90
7.96
5.63
2.91
-0.13
-3.19
-5.77
-7.37
-7.75
-7.14
-6.14
-5.50
-5.79
-7.19
-9.44
-12.07
-14.63
-16.86
-18.69
-20.14
-21.18
-21.70
-21.58
-20.86
-19.80
-18.88
-18.63
-19.40
-21.20
-23.68
-26.25
-28.40
-29.75
-30.07
-29.21
-26.90
-22.85
-16.94
-9.35
-0.82
7.58
14.74
20.00
23.31
25.16
26.21
26.98
27.55
27.77
27.47
26.63
25.57
24.78
24.78
25.93
28.17
31.23
34.66
37.98
40.84
43.17
45.00
46.60
47.87
48.61
48.72
48.35
48.02
48.29
49.70
52.16
55.10
57.28
57.54
55.51
51.95
48.55
47.12
49.26
55.15
64.15
74.40
83.75
90.71
94.67
95.90
94.72
91.62
86.02
77.29
64.05
44.84
19.07
-12.89
-49.46
-88.76
-128.28
-166.55
-195.85
-207.93
-199.28
-174.15
-141.42
-109.12
-87.01
-75.29
-72.40
-74.26
-75.07
-68.19
-44.77
-1.50
57.60
121.18
174.32
202.77
199.43
165.34
107.97
38.35
-30.89
-87.24
-120.37
-124.27
-100.48
-57.00
-7.09
34.03
54.89
55.58
43.93
32.98
32.41
42.09
56.15
64.98
66.24
61.32
53.32
44.52
33.92
20.96
2.61
-22.25
-52.05
-85.99
-122.82
-160.48
-196.87
-232.28
-269.72
-313.30
-364.79
-402.15
-410.03
-387.37
-345.53
-296.08
-244.03
-188.73
-128.17
-62.07
6.35
68.09
115.28
145.68
164.68
180.97
200.45
222.84
244.82
262.32
266.38
251.41
214.88
166.45
119.20
83.33
62.80
55.34
55.14
54.52
49.55
41.24
34.26
32.14
35.13
40.68
45.24
46.24
41.51
31.37
18.42
6.41
-2.16
-7.15
-9.80
-12.31
-16.53
-24.68
-37.51
-54.40
-73.36
-91.07
-103.38
-105.42
-92.62
-61.91
-15.12
41.32
97.44
141.99
166.75
168.49
149.89
115.15
76.16
42.13
16.97
0.05
-13.02
-23.92
-32.94
-40.16
-46.62
-54.08
-66.09
-85.69
-109.20
-135.37
-160.67
-179.86
-186.95
-177.48
-150.25
-109.58
-63.71
-21.88
8.55
25.62
32.14
33.19
33.18
34.14
35.14
34.34
30.84
24.66
17.38
10.44
4.50
-0.28
-3.58
-5.13
-4.48
-1.29
3.96
10.80
18.72
26.96
34.53
40.25
43.07
42.65
39.89
36.55
34.78
35.93
39.74
44.77
49.05
51.00
50.36
48.35
47.21
49.41
56.82
69.68
86.25
102.09
110.90
106.49
85.40
49.25
5.10
-36.25
-63.70
-69.10
-50.44
-12.30
36.28
85.19
126.50
156.28
174.71
180.96
176.58
163.71
144.29
120.07
92.80
64.21
35.41
6.24
-24.83
-59.17
-96.96
-136.12
-172.31
-200.59
-217.54
-222.57
-217.44
-204.57
-185.36
-160.28
-129.64
-94.60
-57.61
-22.15
8.30
31.21
45.59
52.27
53.46
52.35
52.57
57.21
67.85
84.02
103.48
123.48
142.40
160.21
177.72
195.08
210.48
220.49
221.79
213.14
196.44
176.32
158.22
145.96
140.14
137.90
134.44
125.36
108.38
84.23
55.95
27.52
1.96
-19.55
-38.42
-57.05
-77.06
-98.19
-118.46
-135.49
-147.84
-156.60
-164.94
-178.16
-200.62
-233.98
-276.98
-326.19
-376.70
-421.67
-453.41
-463.53
-448.50
-410.65
-359.24
-308.41
-272.05
-257.93
-262.98
-276.01
-281.29
-269.38
-239.44
-198.68
-158.23
-127.52
-111.21
-107.41
-112.97
-104.74
-69.43
-9.31
58.85
116.32
153.80
166.14
163.50
152.31
136.11
113.98
84.83
54.40
29.80
17.62
20.59
42.80
76.40
109.79
132.74
141.45
137.64
125.27
109.04
93.14
81.85
77.24
79.86
87.67
97.05
104.56
108.23
108.90
109.55
114.99
129.31
153.41
187.85
231.11
278.95
324.22
358.23
372.97
364.24
332.36
283.25
225.89
168.48
116.24
70.85
31.60
-2.47
-31.08
-54.00
-68.61
-72.84
-68.11
-58.72
-49.10
-42.08
-37.67
-33.49
-27.00
-16.76
-3.39
10.59
22.29
29.98
32.73
31.27
29.13
30.01
36.02
46.42
58.13
67.33
71.38
67.79
57.03
42.47
28.56
18.10
10.43
1.64
-14.37
-38.62
-75.10
-125.87
-188.42
-255.50
-316.55
-359.90
-375.54
-358.51
-311.59
-249.23
-190.27
-149.53
-133.16
-138.45
-156.78
-177.94
-193.96
-183.67
-139.20
-70.30
4.04
69.54
121.81
162.05
191.99
211.96
221.97
219.94
204.46
178.84
148.90
119.41
92.19
66.34
39.67
10.07
-17.52
-42.21
-62.97
-78.48
-88.09
-92.41
-92.77
-90.52
-86.54
-82.48
-80.54
-80.97
-82.71
-84.90
-87.87
-92.83
-100.84
-111.17
-120.93
-125.91
-120.69
-101.98
-71.19
-34.73
-1.29
22.04
33.01
34.57
31.95
30.07
31.06
33.99
37.07
39.86
45.03
56.23
74.79
97.49
117.66
128.86
128.72
119.35
107.26
97.04
88.25
76.53
57.88
33.74
9.57
-6.50
-8.46
3.06
21.50
38.63
49.18
53.30
54.68
56.25
54.81
46.34
22.83
-19.19
-74.60
-130.53
-171.50
-186.81
-175.25
-145.50
-111.51
-86.02
-74.39
-73.79
-76.72
-76.39
-70.88
-63.06
-58.12
-59.50
-66.97
-76.22
-81.14
-76.95
-61.82
-40.57
-18.57
-0.53
11.54
18.68
24.84
35.26
54.53
85.28
126.98
176.03
225.28
265.12
285.03
276.44
235.25
163.72
70.61
-30.80
-125.73
-202.28
-254.04
-280.65
-286.27
-276.95
-258.33
-234.47
-208.04
-180.95
-155.01
-131.94
-112.38
-95.12
-76.95
-53.64
-21.08
23.26
79.52
144.59
211.90
272.25
315.42
332.91
320.58
280.51
220.63
152.50
87.70
34.82
-2.07
-23.00
-30.45
-27.85
-18.90
-7.62
1.45
3.96
-2.90
-18.86
-40.07
-60.08
-72.22
-72.25
-60.04
-39.30
-15.72
5.52
21.65
32.75
40.87
48.35
56.57
65.68
74.96
83.74
91.89
99.73
107.49
114.90
121.02
124.79
125.61
123.74
120.27
116.37
112.74
109.26
105.19
99.85
93.23
86.15
79.89
75.49
73.07
71.67
69.56
65.08
57.07
45.12
29.40
10.13
-12.53
-38.44
-67.28
-98.22
-129.97
-160.89
-189.06
-212.44
-229.05
-237.33
-236.75
-228.15
-213.91
-197.19
-180.93
-167.01
-155.71
-146.42
-138.87
-133.27
-130.36
-131.09
-135.82
-144.06
-154.55
-165.77
-176.79
-187.56
-198.03
-207.45
-214.18
-216.06
-211.23
-198.98
-179.64
-154.78
-127.07
-98.35
-69.32
-40.30
-11.78
15.31
39.97
62.90
85.21
106.72
128.35
151.54
176.22
200.85
222.98
240.44
254.89
268.80
281.78
296.30
317.51
349.27
392.60
444.47
497.65
546.27
583.27
598.00
587.97
559.87
522.50
483.29
445.72
409.00
374.54
340.88
298.13
241.99
175.97
105.83
39.05
-16.60
-87.05
-181.70
-254.39
-292.17
-310.12
-314.08
-307.02
-290.61
-267.04
-240.07
-209.46
-176.79
-151.27
-136.08
-127.30
-120.79
-113.63
-104.86
-95.47
-83.40
-68.12
-55.68
-48.73
-45.65
-45.39
-47.67
-52.83
-61.19
-69.99
-76.54
-82.03
-85.94
-86.02
-81.47
-73.03
-62.56
-52.29
-42.72
-33.93
-27.36
-23.24
-20.68
-19.31
-19.23
-20.77
-24.21
-29.11
-34.96
-41.79
-49.17
-55.99
-61.06
-63.35
-62.25
-57.84
-50.83
-42.42
-33.86
-26.16
-20.00
-15.70
-13.35
-12.81
-13.77
-15.90
-18.76
-21.94
-25.04
-27.71
-29.57
-30.37
-30.09
-29.20
-28.47
-28.79
-30.73
-34.21
-38.43
-42.23
-44.54
-44.93
-43.61
-41.27
-38.63
-36.07
-33.58
-31.08
-28.63
-26.73
-25.98
-26.67
-28.41
-30.11
-30.35
-28.07
-22.99
-15.76
-7.55
0.53
7.79
14.04
19.31
23.54
26.47
27.66
26.82
23.99
19.61
14.35
8.92
3.89
-0.39
-3.78
-6.25
-7.91
-8.92
-9.50
-9.78
-9.84
-9.62
-9.03
-7.97
-6.50
-4.82
-3.28
-2.27
-2.14
-3.11
-5.31
-8.78
-13.52
-19.36
-25.83
-32.06
-36.81
-38.77
-37.00
-31.31
-22.40
-11.79
-1.28
7.57
13.87
17.55
19.21
19.76
20.00
20.36
20.79
20.89
20.28
18.87
17.10
15.84
16.06
18.42
22.96
29.02
35.53
41.44
46.11
49.46
51.88
54.10
56.88
60.95
66.74
74.29
82.88
90.89
95.95
95.64
88.35
74.10
54.85
33.96
15.16
1.41
-5.80
-6.46
-1.52
7.74
20.14
34.51
49.49
63.36
74.37
81.26
83.88
83.31
81.45
80.05
80.11
81.56
83.45
84.22
81.81
73.51
56.41
28.69
-8.61
-50.66
-89.86
-118.69
-133.11
-134.50
-128.70
-122.86
-121.92
-126.86
-135.64
-145.62
-155.49
-165.44
-175.61
-184.43
-188.42
-183.69
-168.24
-143.44
-113.75
-84.69
-60.63
-43.39
-32.29
-25.11
-19.51
-13.85
-7.24
0.79
10.57
22.24
35.37
48.70
60.22
67.78
70.00
66.93
60.03
51.67
43.97
38.16
34.31
31.65
29.25
26.59
23.70
20.99
18.85
17.61
17.52
18.92
22.12
27.08
33.00
38.22
40.73
39.11
33.46
25.48
17.84
13.04
12.36
15.68
21.82
29.15
35.83
39.83
39.06
32.05
18.78
1.31
-16.76
-31.56
-40.56
-43.54
-42.14
-38.57
-34.28
-29.36
-23.29
-15.73
-7.25
0.92
7.67
12.67
16.40
19.71
22.97
25.92
28.04
28.95
28.79
28.19
27.81
28.01
28.75
29.76
30.92
32.37
34.39
37.08
39.95
41.84
41.19
36.63
27.67
15.02
0.43
-14.06
-26.99
-37.99
-47.80
-57.52
-67.77
-78.03
-86.87
-92.52
-93.76
-90.37
-83.12
-73.21
-61.74
-49.44
-36.69
-23.82
-11.35
0.13
10.05
18.12
24.38
29.11
32.71
35.71
38.64
41.96
45.93
50.38
54.80
58.51
61.05
62.50
63.53
65.24
68.58
73.91
80.68
87.57
92.92
95.23
93.73
88.51
80.45
70.88
61.07
51.85
43.59
36.28
29.89
24.55
20.52
17.89
16.36
15.16
13.20
9.43
3.22
-5.45
-15.92
-26.99
-37.12
-44.73
-48.53
-47.83
-42.79
-34.38
-24.20
-14.06
-5.57
0.12
2.49
1.53
-2.26
-8.01
-14.52
-20.56
-25.08
-27.49
-27.68
-25.85
-22.14
-16.50
-8.74
1.07
12.39
24.04
34.65
43.11
49.11
53.11
55.95
58.23
59.90
60.07
57.51
51.18
40.74
26.82
10.96
-4.73
-18.09
-27.44
-31.87
-31.44
-26.99
-19.84
-11.43
-3.07
4.15
9.26
11.51
10.49
6.46
0.53
-5.52
-9.72
-10.67
-7.99
-2.33
5.03
12.87
20.48
27.63
34.30
40.46
45.94
50.73
55.25
60.36
67.05
75.94
86.79
98.30
108.41
114.76
115.44
109.77
98.74
84.96
71.99
62.94
59.24
59.89
61.82
61.20
54.99
41.86
22.30
-2.12
-29.59
-58.50
-87.24
-113.84
-135.98
-151.62
-159.98
-162.07
-160.57
-158.69
-158.82
-161.53
-165.56
-168.63
-168.65
-164.68
-157.17
-147.73
-138.43
-131.03
-126.56
-125.15
-125.88
-127.06
-126.42
-121.58
-110.87
-93.95
-72.29
-48.88
-27.37
-10.74
-0.31
4.59
6.00
6.13
6.26
6.31
5.17
1.59
-5.10
-14.57
-25.53
-36.11
-44.15
-47.62
-45.03
-35.90
-21.06
-2.53
16.94
34.78
49.28
59.79
66.49
69.87
70.36
68.32
64.31
59.29
54.51
51.13
49.66
49.67
49.91
48.80
45.19
39.09
31.67
24.91
20.69
19.87
21.88
25.09
27.46
27.51
24.63
19.21
12.19
4.62
-2.54
-8.46
-12.59
-14.69
-15.15
-14.70
-14.08
-13.60
-12.82
-10.90
-7.21
-1.96
3.57
7.68
9.08
7.62
4.40
1.23
-0.26
0.75
3.82
7.99
12.41
16.79
21.52
27.07
33.25
38.95
42.10
40.79
34.32
23.81
11.97
2.03
-3.68
-4.56
-1.93
2.03
5.47
7.77
9.55
12.02
15.93
21.10
26.23
29.69
30.29
27.87
23.27
17.89
12.98
9.21
6.45
4.16
1.82
-0.74
-3.25
-5.33
-6.82
-7.89
-9.07
-10.94
-13.82
-17.58
-21.78
-25.80
-28.98
-30.78
-30.78
-28.72
-24.52
-18.39
-10.87
-2.82
4.75
10.93
15.09
17.01
16.85
14.93
11.68
7.50
2.85
-1.77
-5.79
-8.69
-10.11
-9.99
-8.50
-5.98
-2.78
0.82
4.57
8.17
11.23
13.31
14.06
13.46
11.89
10.16
9.21
9.70
11.69
14.53
17.08
18.21
17.28
14.41
10.39
6.36
3.40
2.17
2.82
4.93
7.67
9.92
10.61
8.98
4.91
-0.96
-7.25
-12.20
-14.17
-12.20
-6.37
2.12
11.28
18.98
23.68
24.76
22.52
17.78
11.30
3.67
-4.60
-12.77
-19.73
-24.31
-25.76
-24.20
-20.61
-16.38
-12.65
-9.92
-8.05
-6.59
-5.20
-3.90
-3.00
-2.94
-4.10
-6.65
-10.52
-15.27
-20.22
-24.51
-27.48
-28.96
-29.41
-29.80
-31.10
-33.97
-38.40
-43.82
-49.41
-54.48
-58.81
-62.72
-66.98
-72.46
-79.78
-88.87
-98.96
-108.45
-115.31
-117.40
-112.89
-100.62
-80.36
-52.95
-20.36
14.54
48.39
77.97
100.84
115.71
122.60
122.62
117.36
108.38
96.75
82.89
66.86
48.74
29.11
9.23
-9.27
-24.71
-35.94
-42.66
-45.49
-45.69
-44.72
-43.64
-42.73
-41.20
-37.33
-29.18
-15.42
3.72
26.14
48.42
66.87
78.98
84.16
83.65
79.70
74.45
69.21
64.38
59.78
55.19
50.67
46.50
42.87
39.79
37.13
34.78
32.73
31.11
29.97
29.12
28.13
26.51
23.97
20.59
16.81
13.17
10.04
7.45
5.03
2.23
-1.44
-6.06
-11.35
-16.67
-21.42
-25.37
-28.83
-32.59
-37.48
-44.01
-52.14
-61.38
-70.92
-79.59
-85.61
-86.38
-78.85
-60.60
-31.36
5.95
45.46
79.86
102.73
110.40
102.65
81.91
51.99
16.76
-20.24
-55.62
-85.99
-108.12
-119.52
-119.10
-107.34
-86.15
-58.41
-27.61
2.57
28.50
47.26
57.32
58.94
54.16
46.00
37.41
30.36
25.50
22.39
20.19
18.15
15.81
13.05
9.88
6.45
2.97
-0.30
-3.29
-6.13
-9.16
-12.71
-16.79
-21.06
-25.03
-28.34
-30.91
-32.92
-34.46
-35.40
-35.34
-33.92
-31.10
-27.25
-22.96
-18.64
-14.36
-9.76
-4.41
1.95
9.26
17.16
25.19
32.89
39.84
45.61
49.82
52.13
52.34
50.48
46.96
42.45
37.79
33.79
30.98
29.55
29.38
30.20
31.84
34.15
36.90
39.51
41.04
40.40
36.86
30.53
22.59
14.87
9.15
6.28
5.80
6.29
6.20
4.82
2.70
1.27
1.91
5.02
9.62
13.80
15.65
14.17
9.67
3.41
-3.12
-8.90
-13.59
-17.16
-19.44
-19.81
-17.41
-11.81
-3.52
5.83
14.06
19.35
21.14
20.24
18.37
17.08
17.00
17.67
17.92
16.59
13.01
7.00
-1.37
-12.07
-25.05
-39.93
-55.89
-71.68
-85.95
-97.63
-106.07
-111.05
-112.54
-110.70
-106.10
-99.77
-93.15
-87.67
-84.14
-82.56
-82.01
-81.19
-78.93
-74.48
-67.56
-58.10
-46.02
-31.36
-14.52
3.54
21.35
37.21
49.77
58.28
62.70
63.42
61.03
56.25
49.92
43.02
36.61
31.54
28.24
26.56
25.86
25.32
24.29
22.55
20.34
18.18
16.55
15.54
14.72
13.18
9.88
4.22
-3.56
-12.26
-20.14
-25.58
-27.80
-27.16
-24.91
-22.53
-21.02
-20.49
-20.37
-19.98
-19.15
-18.40
-18.54
-20.11
-22.73
-25.10
-25.56
-22.86
-16.80
-8.52
0.03
6.74
10.07
9.53
5.70
-0.01
-5.78
-9.84
-10.94
-8.74
-3.93
1.72
5.65
5.28
-1.01
-12.66
-26.25
-35.76
-34.18
-16.03
19.82
69.10
122.74
169.84
201.28
212.49
204.04
180.27
146.67
108.27
69.13
33.03
3.99
-14.16
-19.26
-12.19
2.77
19.45
32.22
38.05
37.22
32.15
25.49
18.64
11.25
2.33
-8.55
-20.56
-32.05
-41.63
-48.86
-53.90
-56.62
-55.52
-47.99
-31.81
-7.10
22.43
50.05
68.47
72.73
62.46
41.93
18.20
-1.79
-13.58
-16.15
-11.25
-2.04
8.38
17.68
24.33
27.33
25.92
19.59
8.47
-6.44
-23.11
-38.80
-50.80
-57.13
-57.26
-52.23
-44.23
-35.79
-28.80
-23.79
-19.88
-15.51
-9.47
-1.84
5.94
11.72
13.74
11.38
5.09
-4.23
-15.90
-29.69
-45.32
-61.88
-77.65
-90.47
-98.70
-101.96
-101.20
-98.11
-94.30
-90.75
-87.74
-85.17
-82.88
-80.83
-78.89
-76.65
-73.32
-67.91
-59.63
-48.33
-34.74
-20.39
-7.19
3.20
9.83
12.78
12.95
11.51
9.34
6.59
2.88
-2.14
-8.14
-13.70
-16.60
-14.56
-6.29
7.69
24.71
40.44
50.12
50.09
39.43
20.75
-0.02
-15.23
-17.80
-3.67
26.74
68.57
114.15
155.45
186.39
203.94
207.96
200.16
182.99
159.09
131.35
103.02
77.41
57.04
42.57
32.53
24.03
14.27
2.18
-10.86
-21.62
-26.52
-23.36
-12.47
3.37
19.86
32.65
38.65
36.74
27.73
13.78
-2.46
-18.60
-33.04
-45.08
-54.64
-61.90
-66.88
-69.40
-69.13
-65.84
-59.82
-52.10
-44.27
-38.16
-35.35
-36.77
-42.65
-52.63
-65.94
-81.32
-97.06
-111.07
-121.40
-126.63
-126.47
-121.58
-113.25
-102.68
-90.52
-76.97
-62.22
-46.96
-32.47
-20.30
-11.72
-7.11
-5.90
-6.86
-8.44
-9.42
-9.18
-7.63
-5.16
-2.12
1.59
6.69
14.34
25.68
41.14
60.09
80.82
101.33
120.06
136.27
149.92
161.26
170.29
176.75
180.25
180.62
177.94
172.26
163.38
150.90
134.71
115.56
95.06
75.33
58.07
43.76
31.62
20.23
8.31
-4.53
-17.88
-30.89
-42.72
-52.85
-61.13
-67.77
-73.47
-79.21
-86.14
-95.01
-105.62
-116.62
-125.99
-131.79
-133.07
-130.22
-124.78
-118.58
-112.99
-108.58
-105.34
-103.22
-102.47
-103.41
-105.97
-109.11
-110.92
-109.17
-102.25
-89.77
-72.91
-54.00
-35.98
-21.67
-13.27
-11.94
-17.74
-29.66
-45.96
-64.60
-83.72
-101.58
-116.44
-126.11
-128.24
-121.00
-104.26
-80.40
-53.97
-30.30
-13.34
-4.24
-1.06
-0.20
1.70
6.14
12.27
17.76
20.32
18.99
14.57
9.12
5.06
4.28
7.74
15.50
26.89
40.60
54.83
67.42
76.37
80.49
79.81
75.69
70.22
65.50
62.91
62.92
65.46
70.32
77.31
86.06
95.61
104.28
110.07
111.45
108.11
101.12
92.51
84.37
78.10
74.07
71.84
70.68
70.04
69.75
69.86
70.44
71.33
72.11
72.22
71.16
68.69
64.95
60.39
55.51
50.61
45.63
40.28
34.20
27.26
19.72
12.04
4.81
-1.47
-6.44
-9.73
-10.98
-9.90
-6.37
-0.67
6.45
13.84
20.22
24.47
25.95
24.72
21.67
18.21
15.88
15.77
18.15
22.43
27.52
32.41
36.60
40.22
43.76
47.68
52.03
56.51
60.68
64.28
67.33
69.86
71.64
72.00
70.04
65.01
56.84
46.21
34.38
22.61
11.62
1.36
-8.75
-19.37
-30.79
-42.74
-54.47
-65.01
-73.43
-79.10
-81.72
-81.43
-78.84
-74.83
-70.40
-66.62
-64.50
-64.95
-68.64
-75.74
-85.53
-96.34
-105.59
-110.47
-108.81
-99.94
-84.77
-65.36
-44.00
-22.48
-1.95
16.75
32.69
44.57
51.24
52.54
50.04
47.06
47.68
54.85
69.37
89.22
109.96
125.67
130.58
120.47
93.50
50.34
-6.60
-72.71
-141.50
-205.40
-257.38
-292.41
-308.44
-306.72
-291.07
-267.68
-242.00
-217.22
-193.84
-170.99
-147.92
-125.00
-104.10
-88.02
-80.89
-84.86
-98.56
-116.81
-132.65
-139.92
-135.03
-118.05
-83.96
-34.97
20.56
72.43
114.83
147.98
175.39
201.05
225.62
247.46
263.21
271.32
270.70
263.62
253.72
244.51
238.33
235.90
236.75
238.70
239.74
238.72
235.43
229.32
219.11
203.30
180.92
152.66
119.93
85.27
51.30
19.94
-8.57
-35.41
-61.96
-88.65
-114.48
-137.57
-155.73
-167.37
-171.56
-168.36
-158.47
-143.12
-124.48
-105.17
-88.09
-75.32
-67.20
-62.08
-57.28
-50.70
-42.16
-33.71
-27.97
-26.39
-28.35
-31.77
-34.93
-37.93
-43.34
-54.64
-74.71
-102.81
-134.10
-161.47
-178.74
-183.19
-176.39
-162.65
-146.71
-132.78
-122.27
-114.27
-107.26
-100.84
-96.34
-95.33
-98.31
-104.18
-112.36
-121.86
-131.59
-140.34
-146.73
-148.90
-144.24
-130.62
-99.05
-49.39
9.51
64.37
105.27
130.09
142.31
147.55
150.00
151.69
151.54
148.88
145.22
142.46
142.48
146.05
153.58
165.15
181.25
201.67
226.21
253.91
281.96
305.91
316.15
306.09
273.70
222.10
157.39
87.03
17.95
-44.54
-96.55
-135.48
-159.23
-167.47
-162.33
-148.49
-131.56
-116.07
-104.37
-96.51
-91.35
-87.00
-82.32
-77.19
-72.40
-69.05
-67.99
-69.45
-72.83
-76.87
-79.77
-80.12
-77.27
-71.51
-63.73
-54.91
-45.65
-36.04
-25.94
-15.13
-3.92
6.85
16.07
22.84
26.90
28.80
29.61
30.46
32.06
34.46
37.11
39.31
40.56
40.81
40.35
39.52
38.57
37.50
36.18
34.48
32.37
29.86
26.88
23.31
18.98
13.88
8.27
2.71
-2.03
-5.23
-6.44
-5.62
-3.12
0.44
4.31
7.81
10.47
12.09
12.75
12.63
11.97
10.91
9.51
7.83
6.02
4.31
2.96
2.10
1.68
1.53
1.46
1.41
1.43
1.75
2.54
3.89
5.73
7.84
9.92
11.66
12.81
13.27
12.94
11.82
9.88
7.11
3.63
-0.19
-3.78
-6.41
-7.58
-7.09
-5.21
-2.48
0.53
3.45
6.17
8.76
11.19
13.33
14.90
15.60
15.31
14.13
12.33
10.18
7.81
5.23
2.47
-0.28
-2.57
-3.85
-3.73
-2.22
0.09
2.33
3.79
4.19
3.86
3.47
3.55
4.24
5.00
5.02
3.63
0.69
-3.30
-7.31
-10.25
-11.26
-10.12
-7.14
-2.96
1.72
6.45
11.03
15.38
19.40
22.65
24.51
24.42
22.15
17.96
12.60
7.04
2.19
-1.38
-3.49
-4.24
-3.96
-3.03
-1.91
-1.09
-0.98
-1.88
-3.88
-6.80
-10.24
-13.72
-16.73
-18.88
-19.99
-20.09
-19.56
-18.96
-18.90
-19.74
-21.37
-23.16
-24.09
-23.12
-19.64
-13.77
-6.32
1.47
8.32
13.39
16.51
18.08
18.66
18.69
18.18
16.81
14.27
10.59
6.37
2.58
0.09
-0.71
-0.09
1.21
2.42
3.13
3.44
3.76
4.43
5.40
6.17
6.04
4.50
1.51
-2.45
-6.53
-9.92
-12.12
-13.15
-13.44
-13.67
-14.43
-15.90
-17.77
-19.26
-19.43
-17.61
-13.69
-8.22
-2.15
3.59
8.42
12.22
15.15
17.30
18.60
18.75
17.53
15.08
11.88
8.55
5.55
2.95
0.58
-1.70
-3.70
-4.92
-4.74
-2.97
-0.00
3.16
5.37
5.82
4.34
1.50
-1.77
-4.54
-6.26
-6.84
-6.53
-5.76
-4.97
-4.43
-4.28
-4.61
-5.45
-6.89
-8.91
-11.34
-13.74
-15.45
-15.74
-14.12
-10.57
-5.67
-0.32
4.61
8.61
11.69
14.15
16.25
17.90
18.69
18.09
15.89
12.34
8.24
4.55
2.11
1.35
2.25
4.44
7.43
10.79
14.23
17.56
20.59
23.04
24.51
24.62
23.22
20.46
16.89
13.19
9.87
7.06
4.48
1.70
-1.58
-5.38
-9.39
-13.32
-16.95
-20.28
-23.40
-26.32
-28.84
-30.50
-30.77
-29.23
-25.80
-20.89
-15.28
-9.94
-5.70
-3.01
-1.78
-1.60
-1.91
-2.36
-2.82
-3.45
-4.40
-5.70
-7.11
-8.21
-8.63
-8.14
-6.83
-5.05
-3.26
-1.85
-0.96
-0.59
-0.56
-0.72
-0.90
-0.97
-0.80
-0.20
0.93
2.60
4.62
6.74
8.76
10.63
12.44
14.22
15.88
17.14
17.65
17.14
15.50
12.83
9.45
5.89
2.87
1.12
1.14
2.88
5.67
8.39
9.93
9.76
8.18
6.04
4.22
3.13
2.42
1.39
-0.53
-3.22
-6.00
-7.97
-8.57
-7.93
-6.64
-5.31
-4.20
-3.15
-2.09
-1.17
-0.86
-1.58
-3.17
-4.76
-5.12
-3.41
0.07
3.90
6.23
5.74
2.41
-2.40
-6.76
-9.21
-9.51
-8.47
-7.24
-6.53
-6.25
-5.91
-5.37
-5.21
-6.86
-11.31
-18.39
-26.41
-32.83
-35.52
-34.02
-29.61
-24.99
-22.52
-23.11
-25.78
-28.31
-28.41
-25.08
-18.88
-11.93
-6.60
-4.41
-5.37
-8.09
-10.58
-11.41
-10.23
-7.89
-5.68
-4.41
-3.93
-3.32
-1.57
1.66
5.93
9.96
12.53
12.99
11.62
9.40
7.55
6.98
8.05
10.42
13.36
16.08
17.99
18.84
18.78
18.14
17.30
16.40
15.31
13.70
11.22
7.77
3.59
-0.72
-4.40
-6.79
-7.60
-7.00
-5.55
-3.94
-2.70
-2.00
-1.57
-0.92
0.51
3.01
6.46
10.40
14.14
17.00
18.59
18.81
17.84
15.97
13.46
10.56
7.47
4.45
1.79
-0.19
-1.24
-1.21
-0.13
1.81
4.43
7.57
11.16
15.12
19.17
22.71
24.93
25.01
22.49
17.52
10.88
3.74
-2.77
-7.96
-11.73
-14.42
-16.45
-18.05
-19.06
-19.12
-17.95
-15.61
-12.57
-9.61
-7.49
-6.68
-7.16
-8.52
-10.15
-11.45
-12.07
-11.96
-11.27
-10.30
-9.31
-8.49
-7.90
-7.54
-7.33
-7.12
-6.72
-5.84
-4.16
-1.36
2.64
7.60
12.85
17.51
20.78
22.18
21.79
20.09
17.67
14.99
12.19
9.14
5.68
1.81
-2.08
-5.45
-7.67
-8.36
-7.56
-5.66
-3.32
-1.25
-0.01
-0.04
-1.51
-4.24
-7.76
-11.27
-13.89
-14.95
-14.31
-12.47
-10.40
-9.08
-8.99
-9.86
-10.84
-10.92
-9.40
-6.24
-1.93
2.81
7.38
11.48
15.09
18.34
21.32
23.93
25.94
27.11
27.23
26.21
24.12
21.12
17.53
13.57
9.44
5.34
1.46
-1.88
-4.28
-5.34
-4.92
-3.28
-1.15
0.56
1.04
-0.03
-2.34
-5.13
-7.49
-8.87
-9.17
-8.77
-8.20
-7.94
-8.24
-9.08
-10.22
-11.40
-12.37
-12.82
-12.45
-10.99
-8.24
-4.29
0.63
5.94
10.95
14.99
17.52
18.28
17.28
14.83
11.38
7.39
3.22
-0.83
-4.54
-7.57
-9.58
-10.22
-9.34
-7.15
-4.20
-1.26
0.92
1.90
1.62
0.41
-1.15
-2.55
-3.46
-3.85
-3.92
-3.94
-4.15
-4.61
-5.16
-5.56
-5.62
-5.34
-4.88
-4.45
-4.18
-3.98
-3.52
-2.48
-0.64
1.93
4.91
7.87
10.47
12.53
14.05
15.06
15.47
15.10
13.73
11.32
8.05
4.34
0.72
-2.38
-4.78
-6.52
-7.76
-8.57
-8.89
-8.56
-7.48
-5.75
-3.76
-2.12
-1.39
-1.93
-3.73
-6.43
-9.35
-11.79
-13.19
-13.30
-12.31
-10.66
-8.90
-7.44
-6.43
-5.82
-5.48
-5.31
-5.28
-5.31
-5.16
-4.40
-2.47
0.93
5.73
11.39
17.04
21.81
25.02
26.35
25.85
23.84
20.83
17.41
14.05
11.09
8.58
6.42
4.42
2.52
0.77
-0.68
-1.69
-2.24
-2.43
-2.42
-2.27
-1.93
-1.45
-0.98
-0.91
-1.67
-3.50
-6.26
-9.40
-12.25
-14.28
-15.39
-15.92
-16.37
-17.17
-18.37
-19.65
-20.53
-20.59
-19.62
-17.70
-14.98
-11.61
-7.67
-3.22
1.57
6.34
10.55
13.67
15.25
15.14
13.50
10.76
7.51
4.32
1.67
-0.17
-1.14
-1.34
-0.93
-0.10
0.99
2.17
3.29
4.18
4.75
5.04
5.23
5.61
6.33
7.32
8.22
8.51
7.70
5.66
2.64
-0.71
-3.63
-5.58
-6.42
-6.43
-6.10
-5.86
-5.80
-5.62
-4.85
-3.05
-0.05
3.99
8.67
13.55
18.33
22.86
27.00
30.51
32.91
33.54
31.82
27.59
21.41
14.48
8.31
4.07
2.11
1.88
2.28
2.32
1.61
0.47
-0.43
-0.60
-0.12
0.39
0.22
-1.00
-3.01
-5.10
-6.54
-6.97
-6.55
-5.83
-5.34
-5.34
-5.79
-6.65
-8.04
-10.42
-14.29
-19.75
-26.13
-31.97
-35.49
-35.23
-30.63
-22.09
-10.74
2.22
15.80
29.36
42.36
54.02
63.28
69.00
70.30
66.99
59.59
49.13
36.74
23.27
9.13
-5.55
-20.55
-35.31
-48.86
-60.08
-67.99
-72.38
-73.63
-72.68
-70.58
-67.97
-64.91
-60.96
-55.58
-48.82
-41.26
-33.94
-27.84
-23.38
-20.32
-18.10
-16.28
-15.14
-15.28
-17.07
-20.03
-22.60
-22.76
-19.05
-11.57
-2.19
6.32
11.63
12.91
11.13
8.31
6.30
5.92
6.33
6.17
4.46
1.43
-1.47
-2.39
-0.30
4.41
9.81
13.59
14.15
11.35
6.43
1.15
-3.20
-6.19
-8.45
-10.75
-13.44
-16.07
-17.56
-16.76
-13.03
-6.52
1.63
9.84
16.48
20.51
21.84
21.38
20.68
21.51
24.97
31.17
39.20
47.54
54.58
59.19
60.94
60.08
57.29
53.26
48.55
43.40
37.84
31.82
25.34
18.50
11.48
4.59
-1.71
-6.87
-10.24
-11.29
-9.77
-5.73
0.40
7.99
16.26
24.39
31.53
36.86
39.79
40.14
38.33
35.33
32.39
30.56
30.28
31.27
32.62
33.27
32.50
30.23
27.09
24.04
21.99
21.37
22.06
23.58
25.42
27.27
29.01
30.50
31.34
30.91
28.53
23.78
16.62
7.34
-3.67
-16.05
-29.41
-43.09
-56.02
-66.87
-74.44
-78.26
-78.74
-76.98
-74.28
-71.56
-69.18
-67.07
-65.07
-63.18
-61.50
-60.02
-58.49
-56.51
-53.73
-50.16
-46.13
-42.17
-38.66
-35.59
-32.51
-28.71
-23.54
-16.62
-8.14
1.15
10.18
17.85
23.48
27.01
28.98
30.22
31.34
32.49
33.29
33.22
32.04
30.07
28.04
26.70
26.32
26.37
25.66
22.88
17.14
8.42
-2.46
-14.23
-25.81
-36.71
-47.06
-57.28
-67.59
-77.59
-86.33
-92.61
-95.66
-95.38
-92.34
-87.40
-81.23
-74.03
-65.56
-55.51
-43.90
-31.15
-18.03
-5.35
6.27
16.45
24.84
30.97
34.21
34.04
30.40
23.95
16.04
8.33
2.22
-1.63
-3.66
-5.02
-6.95
-10.16
-14.37
-18.37
-20.43
-18.89
-12.93
-2.67
10.78
25.67
40.07
52.23
60.85
65.13
64.70
59.70
50.81
39.31
26.99
15.81
7.63
3.75
4.55
9.41
16.86
24.87
31.33
34.63
34.09
30.26
24.60
18.97
14.85
12.77
12.18
11.91
10.82
8.42
4.88
0.86
-3.06
-6.60
-9.80
-12.80
-15.56
-17.86
-19.51
-20.59
-21.67
-23.50
-26.48
-30.17
-33.21
-33.78
-30.65
-23.89
-15.06
-6.54
-0.39
2.60
3.12
2.83
3.24
4.94
7.44
9.61
10.49
9.88
8.31
6.71
5.79
5.82
6.69
8.16
10.20
12.99
16.75
21.48
26.81
32.08
36.55
39.57
40.75
39.97
37.38
33.39
28.61
23.79
19.69
16.84
15.47
15.41
16.20
17.32
18.29
18.73
18.42
17.25
15.33
12.91
10.43
8.39
7.21
7.13
8.12
9.95
12.23
14.49
16.32
17.53
18.06
18.05
17.67
17.07
16.36
15.59
14.92
14.61
14.89
15.87
17.35
18.88
19.96
20.33
20.08
19.74
19.87
20.81
22.35
23.80
24.31
23.23
20.45
16.46
12.12
8.37
5.89
4.94
5.46
7.14
9.51
12.13
14.56
16.40
17.36
17.22
15.90
13.43
10.00
5.93
1.65
-2.49
-6.23
-9.53
-12.46
-15.03
-17.15
-18.58
-19.07
-18.55
-17.22
-15.52
-13.89
-12.59
-11.59
-10.69
-9.82
-9.25
-9.67
-11.91
-16.56
-23.59
-32.11
-40.56
-47.10
-50.22
-49.23
-44.54
-37.53
-30.06
-23.89
-20.13
-18.98
-19.69
-20.83
-20.72
-17.90
-11.79
-2.95
6.92
15.34
19.91
19.11
12.74
2.01
-10.85
-23.22
-32.61
-37.15
-35.83
-28.68
-16.77
-2.08
12.92
25.80
34.64
38.26
36.18
28.56
16.08
0.10
-17.31
-33.47
-45.61
-51.61
-50.70
-43.72
-32.84
-20.76
-9.81
-1.35
4.41
7.97
10.04
11.09
11.20
10.31
8.57
6.45
4.71
3.99
4.39
5.34
5.81
4.71
1.43
-3.88
-10.41
-17.00
-22.72
-27.16
-30.51
-33.23
-35.73
-38.03
-39.86
-40.95
-41.35
-41.57
-42.42
-44.48
-47.72
-51.27
-53.88
-54.32
-52.13
-47.75
-42.26
-36.78
-31.91
-27.60
-23.44
-19.00
-14.09
-8.81
-3.34
2.26
7.91
13.45
18.33
21.86
23.47
23.19
21.82
20.77
21.48
24.85
30.67
37.79
44.48
49.10
50.72
49.41
46.11
42.30
39.01
36.76
35.43
34.65
34.29
34.70
36.41
39.77
44.20
48.47
51.13
51.35
49.43
46.75
44.87
44.73
45.79
46.56
45.37
41.52
35.77
29.99
26.02
24.65
25.01
25.25
23.61
19.51
13.76
7.99
3.51
0.62
-1.67
-4.75
-9.50
-15.70
-22.20
-27.74
-31.69
-34.36
-36.78
-39.81
-43.46
-46.72
-48.00
-45.81
-39.58
-29.93
-18.69
-8.13
-0.27
3.86
4.49
2.89
0.74
-0.53
-0.41
0.73
1.96
2.39
1.66
0.10
-1.47
-2.14
-1.24
1.36
5.35
10.13
15.06
19.66
23.64
26.89
29.42
31.29
32.56
33.32
33.64
33.51
32.82
31.37
29.01
25.72
21.68
17.26
12.91
9.08
6.14
4.45
4.29
5.83
8.94
13.07
17.35
20.76
22.43
21.94
19.28
14.77
8.76
1.51
-6.91
-16.49
-27.09
-38.35
-49.68
-60.30
-69.36
-76.06
-79.76
-80.13
-77.25
-71.53
-63.57
-54.02
-43.42
-32.31
-21.27
-11.02
-2.29
4.44
9.11
12.17
14.35
16.27
18.17
19.83
20.83
20.85
19.90
18.16
15.76
12.57
8.19
2.17
-5.61
-14.70
-24.19
-33.00
-40.29
-45.76
-49.48
-51.74
-52.61
-51.84
-48.93
-43.55
-35.79
-26.32
-16.20
-6.54
1.92
9.01
15.04
20.46
25.47
29.86
33.04
34.35
33.41
30.33
25.66
20.08
14.19
8.33
2.70
-2.38
-6.36
-8.46
-8.04
-4.99
0.14
6.17
11.80
16.10
18.83
20.37
21.35
22.18
22.76
22.56
21.04
18.00
13.81
9.35
5.46
2.73
1.29
0.87
1.12
1.73
2.52
3.30
3.69
3.22
1.46
-1.68
-5.87
-10.39
-14.49
-17.70
-20.01
-21.76
-23.39
-25.23
-27.32
-29.52
-31.59
-33.25
-34.32
-34.51
-33.38
-30.42
-25.29
-18.08
-9.55
-0.94
6.24
10.87
12.62
12.02
10.22
8.44
7.52
7.67
8.49
9.40
9.99
10.19
10.23
10.41
10.87
11.60
12.36
12.88
12.89
12.20
10.70
8.42
5.47
2.13
-1.35
-4.82
-8.31
-12.01
-16.12
-20.61
-25.21
-29.34
-32.40
-34.05
-34.23
-33.20
-31.27
-28.61
-25.14
-20.67
-15.16
-8.92
-2.60
2.93
7.01
9.35
10.13
9.88
9.07
7.95
6.46
4.37
1.62
-1.56
-4.59
-6.76
-7.50
-6.60
-4.28
-1.14
2.17
5.10
7.46
9.40
11.22
13.17
15.22
17.02
18.09
18.11
17.10
15.47
13.76
12.36
11.20
9.82
7.74
4.83
1.64
-0.68
-0.88
1.87
7.53
15.13
23.16
30.11
34.98
37.50
37.97
36.99
35.02
32.31
29.02
25.26
21.38
17.81
14.92
12.83
11.37
10.22
9.17
8.18
7.51
7.50
8.32
9.82
11.47
12.54
12.36
10.61
7.43
3.41
-0.69
-4.21
-6.82
-8.64
-9.99
-11.23
-12.40
-13.26
-13.40
-12.52
-10.63
-8.03
-5.13
-2.22
0.60
3.36
6.05
8.45
10.17
10.75
10.01
8.06
5.33
2.42
-0.18
-2.24
-3.74
-4.84
-5.69
-6.33
-6.66
-6.53
-5.85
-4.72
-3.48
-2.66
-2.73
-3.98
-6.28
-9.12
-11.76
-13.60
-14.43
-14.55
-14.56
-14.99
-16.00
-17.19
-17.92
-17.61
-16.08
-13.59
-10.60
-7.44
-4.10
-0.39
3.77
8.00
11.51
13.43
13.27
11.30
8.42
5.77
4.15
3.72
3.96
4.06
3.35
1.65
-0.68
-2.91
-4.33
-4.51
-3.49
-1.73
0.10
1.37
1.73
1.21
0.10
-1.30
-2.78
-4.37
-6.14
-8.03
-9.80
-11.04
-11.38
-10.64
-8.90
-6.39
-3.34
0.10
3.85
7.81
11.75
15.34
18.20
20.08
20.90
20.75
19.85
18.46
16.80
14.96
12.94
10.69
8.25
5.83
3.83
2.70
2.71
3.73
5.31
6.79
7.71
7.94
7.76
7.62
7.84
8.48
9.25
9.80
9.90
9.64
9.43
9.81
11.22
13.76
17.17
20.99
24.80
28.49
32.45
37.07
42.58
48.47
53.52
56.22
55.49
51.19
44.27
36.15
28.18
21.17
15.36
10.77
7.55
5.81
5.29
4.87
2.91
-2.08
-10.50
-21.26
-32.13
-40.92
-46.54
-49.67
-52.01
-55.14
-59.41
-63.55
-65.43
-63.39
-57.36
-49.50
-42.87
-40.04
-41.50
-45.38
-48.39
-47.76
-42.67
-35.07
-28.21
-24.85
-25.66
-28.94
-31.72
-31.69
-28.39
-23.56
-19.73
-18.62
-20.14
-22.54
-23.58
-21.92
-17.73
-12.63
-8.55
-6.68
-6.76
-7.36
-6.65
-3.38
2.54
9.79
16.43
20.59
21.29
18.73
14.03
8.66
3.93
0.39
-1.98
-3.49
-4.34
-4.42
-3.38
-1.07
2.26
5.71
8.10
8.43
6.33
2.33
-2.33
-6.21
-8.25
-8.25
-6.88
-5.37
-4.80
-5.58
-7.28
-8.84
-9.18
-7.77
-4.89
-1.45
1.38
2.74
2.35
0.48
-2.24
-5.13
-7.67
-9.52
-10.57
-10.83
-10.35
-9.25
-7.58
-5.36
-2.53
0.96
5.08
9.65
14.34
18.71
22.32
24.78
25.77
25.15
22.96
19.47
15.16
10.69
6.74
3.87
2.39
2.23
2.93
3.80
4.11
3.39
1.61
-0.84
-3.36
-5.43
-6.84
-7.73
-8.40
-9.10
-9.85
-10.60
-11.28
-11.97
-12.83
-13.96
-15.18
-15.99
-15.74
-13.94
-10.53
-5.95
-1.04
3.36
6.70
8.91
10.33
11.43
12.50
13.41
13.74
13.05
11.14
8.25
4.96
1.86
-0.61
-2.34
-3.42
-3.91
-3.79
-2.97
-1.39
0.75
2.98
4.78
5.74
5.71
4.81
3.26
1.25
-1.19
-4.03
-7.12
-9.99
-11.92
-12.22
-10.57
-7.24
-3.01
1.16
4.65
7.43
9.95
12.76
16.00
19.27
21.70
22.53
21.47
18.90
15.60
12.37
9.71
7.73
6.23
4.99
3.87
2.81
1.82
0.98
0.43
0.45
1.18
2.63
4.45
6.06
6.94
6.80
5.76
4.24
2.48
0.55
-1.72
-4.38
-7.10
-9.16
-9.74
-8.35
-5.19
-1.11
2.86
6.00
8.22
9.94
11.68
13.68
15.57
16.64
16.23
14.13
10.71
6.80
3.21
0.52
-1.19
-2.27
-3.18
-4.24
-5.46
-6.52
-6.96
-6.33
-4.48
-1.60
1.85
5.27
8.11
9.97
10.72
10.37
9.03
6.87
4.20
1.52
-0.55
-1.36
-0.50
2.12
6.13
10.88
15.67
19.89
23.23
25.64
27.20
28.04
28.30
28.04
27.35
26.31
25.06
23.80
22.82
22.44
22.83
23.84
24.86
24.98
23.29
19.27
13.08
5.59
-1.94
-8.39
-13.21
-16.59
-19.30
-22.20
-25.80
-29.92
-33.80
-36.51
-37.31
-36.04
-33.01
-28.69
-23.34
-16.94
-9.34
-0.72
8.19
16.11
21.69
23.91
22.50
17.96
11.24
3.49
-4.20
-10.93
-16.02
-19.09
-20.09
-19.31
-17.34
-14.79
-12.23
-10.05
-8.44
-7.47
-7.10
-7.14
-7.33
-7.40
-7.23
-6.90
-6.69
-7.04
-8.25
-10.38
-13.13
-15.82
-17.62
-17.76
-15.79
-11.81
-6.40
-0.44
5.20
9.92
13.43
15.69
16.72
16.54
15.17
12.77
9.72
6.51
3.56
1.07
-0.99
-2.77
-4.34
-5.58
-6.23
-6.14
-5.39
-4.34
-3.44
-2.95
-2.89
-2.95
-2.83
-2.40
-1.83
-1.54
-1.91
-3.09
-4.87
-6.82
-8.47
-9.63
-10.33
-10.82
-11.21
-11.35
-10.86
-9.29
-6.48
-2.67
1.51
5.26
7.94
9.28
9.36
8.55
7.23
5.65
3.86
1.77
-0.70
-3.45
-6.10
-8.04
-8.65
-7.54
-4.79
-1.01
2.86
5.81
7.19
6.87
5.29
3.23
1.50
0.64
0.80
1.69
2.76
3.41
3.15
1.76
-0.60
-3.53
-6.35
-8.37
-9.06
-8.19
-6.02
-3.18
-0.48
1.46
2.42
2.68
2.73
3.02
3.59
4.03
3.70
2.12
-0.70
-4.17
-7.30
-9.13
-9.16
-7.57
-5.13
-2.82
-1.37
-0.93
-1.06
-1.05
-0.27
1.46
3.81
6.12
7.71
8.22
7.74
6.70
5.61
4.75
4.05
3.13
1.60
-0.68
-3.42
-5.97
-7.63
-8.03
-7.35
-6.27
-5.64
-6.06
-7.61
-9.81
-11.92
-13.21
-13.22
-11.94
-9.64
-6.78
-3.80
-1.07
1.12
2.57
3.11
2.72
1.57
0.15
-0.77
-0.52
1.33
4.50
8.10
10.97
12.30
11.94
10.51
8.62
6.66
4.43
1.44
-2.46
-6.72
-10.25
-12.07
-12.10
-11.20
-10.74
-11.71
-14.03
-16.52
-17.78
-17.05
-14.89
-12.76
-12.08
-13.29
-15.47
-16.86
-15.91
-12.12
-6.50
-0.70
3.94
7.18
9.93
13.48
18.42
24.16
28.88
30.69
28.70
23.55
17.17
11.79
8.86
8.60
9.92
11.33
11.77
11.06
9.80
8.84
8.70
9.44
10.60
11.72
12.61
13.37
14.24
15.26
16.15
16.48
15.87
14.26
11.93
9.31
6.71
4.26
2.00
0.15
-0.90
-0.74
0.76
3.17
5.62
7.19
7.43
6.65
5.78
5.79
7.14
9.46
11.76
13.04
12.82
11.37
9.51
8.01
7.16
6.66
5.92
4.54
2.61
0.72
-0.47
-0.65
-0.13
0.33
-0.02
-1.48
-3.65
-5.64
-6.53
-5.87
-3.85
-1.23
1.07
2.37
2.43
1.38
-0.46
-2.78
-5.28
-7.63
-9.38
-10.01
-9.04
-6.20
-1.66
4.00
9.88
14.97
18.41
19.73
19.03
16.97
14.50
12.49
11.32
10.75
10.10
8.56
5.69
1.58
-3.19
-7.83
-11.67
-14.35
-15.85
-16.35
-16.17
-15.63
-15.01
-14.57
-14.47
-14.79
-15.49
-16.41
-17.31
-17.91
-17.84
-16.81
-14.69
-11.51
-7.57
-3.31
0.84
4.62
7.97
11.02
13.89
16.53
18.63
19.73
19.44
17.61
14.48
10.58
6.51
2.72
-0.56
-3.33
-5.62
-7.32
-8.31
-8.44
-7.76
-6.58
-5.28
-4.11
-3.03
-1.76
-0.13
1.73
3.29
3.88
3.10
1.17
-1.12
-2.84
-3.51
-3.36
-3.22
-3.98
-6.07
-9.16
-12.38
-14.77
-15.86
-15.69
-14.64
-12.99
-10.69
-7.45
-3.12
2.02
7.02
10.73
12.27
11.55
9.29
6.74
5.01
4.63
5.19
5.82
5.63
4.34
2.36
0.62
-0.01
0.84
2.72
4.66
5.58
4.90
2.70
-0.28
-3.08
-4.95
-5.70
-5.69
-5.56
-5.81
-6.64
-7.82
-8.96
-9.72
-10.18
-10.65
-11.48
-12.72
-13.95
-14.37
-13.17
-9.88
-4.79
1.23
6.97
11.35
13.73
14.02
12.60
10.10
7.22
4.57
2.58
1.47
1.24
1.69
2.55
3.59
4.65
5.60
6.27
6.37
5.54
3.51
0.37
-3.35
-6.81
-9.22
-10.17
-9.93
-9.27
-9.12
-10.08
-12.06
-14.45
-16.40
-17.32
-17.24
-16.70
-16.43
-16.78
-17.43
-17.45
-15.77
-11.75
-5.66
1.41
7.94
12.74
15.40
16.35
16.48
16.47
16.38
15.72
13.82
10.48
6.26
2.27
-0.47
-1.60
-1.66
-1.72
-2.64
-4.46
-6.33
-6.98
-5.64
-2.61
0.78
2.86
2.50
-0.24
-4.16
-7.60
-9.26
-8.84
-7.05
-5.12
-4.22
-4.96
-7.21
-10.29
-13.29
-15.43
-16.21
-15.45
-13.28
-9.92
-5.56
-0.42
5.24
10.96
16.00
19.50
20.74
19.46
16.08
11.59
7.17
3.70
1.44
0.04
-1.09
-2.42
-3.89
-5.06
-5.34
-4.39
-2.32
0.41
3.20
5.69
7.81
9.70
11.49
13.07
14.12
14.23
13.20
11.11
8.39
5.47
2.60
-0.35
-3.75
-7.85
-12.53
-17.18
-20.86
-22.79
-22.68
-20.90
-18.20
-15.40
-13.06
-11.34
-10.13
-9.29
-8.75
-8.51
-8.60
-9.03
-9.77
-10.80
-12.00
-13.21
-14.14
-14.53
-14.28
-13.56
-12.79
-12.43
-12.62
-13.10
-13.37
-12.95
-11.78
-10.26
-9.09
-8.81
-9.45
-10.59
-11.58
-12.04
-12.04
-12.12
-12.83
-14.34
-16.22
-17.57
-17.49
-15.53
-11.86
-7.10
-1.95
3.19
8.23
13.07
17.39
20.42
21.34
19.71
15.90
11.02
6.48
3.27
1.47
0.43
-0.84
-2.97
-5.94
-9.12
-11.67
-12.99
-12.84
-11.34
-8.63
-4.86
-0.19
5.14
10.65
15.68
19.58
21.93
22.63
21.87
20.06
17.66
15.12
12.76
10.82
9.42
8.64
8.59
9.44
11.43
14.63
18.91
23.74
28.32
31.78
33.55
33.43
31.66
28.52
24.29
19.16
13.36
7.35
1.92
-2.12
-4.22
-4.56
-3.93
-3.50
-4.24
-6.50
-9.89
-13.53
-16.53
-18.53
-19.65
-20.34
-20.96
-21.57
-21.83
-21.42
-20.13
-18.38
-16.67
-15.46
-14.65
-13.59
-11.36
-7.32
-1.45
5.25
11.45
16.02
18.64
20.02
21.40
23.79
27.38
31.03
33.14
32.44
28.81
23.43
18.18
14.53
12.80
11.86
10.04
6.17
0.32
-6.13
-11.37
-14.13
-14.36
-13.35
-12.81
-14.02
-17.23
-21.73
-26.40
-30.43
-33.53
-36.04
-38.33
-40.41
-41.82
-41.85
-39.92
-35.96
-30.35
-23.90
-17.39
-11.32
-5.78
-0.53
4.74
10.28
16.22
22.48
28.84
34.97
40.39
44.61
47.23
48.13
47.59
46.23
44.72
43.51
42.60
41.58
39.90
37.22
33.54
29.19
24.54
19.75
14.68
9.05
2.77
-3.92
-10.39
-15.86
-19.70
-21.71
-22.13
-21.53
-20.48
-19.37
-18.22
-16.85
-15.08
-12.91
-10.62
-8.66
-7.45
-7.15
-7.64
-8.52
-9.34
-9.76
-9.64
-8.98
-7.89
-6.49
-4.91
-3.34
-1.96
-0.95
-0.38
-0.16
-0.06
0.12
0.54
1.13
1.64
1.73
1.08
-0.50
-2.93
-5.87
-8.71
-10.74
-11.29
-9.94
-6.73
-2.10
3.15
8.20
12.44
15.60
17.69
18.86
19.19
18.67
17.26
15.05
12.37
9.67
7.39
5.76
4.68
3.87
3.04
2.04
1.00
0.16
-0.27
-0.31
-0.20
-0.33
-1.04
-2.45
-4.38
-6.43
-8.20
-9.47
-10.32
-11.03
-11.93
-13.19
-14.61
-15.82
-16.33
-15.85
-14.37
-12.05
-9.12
-5.66
-1.62
3.04
8.16
13.19
17.32
19.74
20.04
18.39
15.62
12.71
10.51
9.31
8.82
8.47
7.79
6.65
5.34
4.17
3.31
2.65
1.98
1.22
0.59
0.45
1.10
2.36
3.71
4.48
4.23
3.06
1.49
0.14
-0.67
-1.12
-1.69
-2.87
-4.76
-6.94
-8.64
-9.09
-7.80
-4.89
-0.85
3.64
8.05
12.11
15.75
18.88
21.33
22.74
22.81
21.58
19.52
17.43
16.14
16.11
17.26
18.90
20.17
20.37
19.28
17.26
15.06
13.51
13.18
13.94
14.89
14.57
11.43
4.56
-5.78
-18.02
-29.70
-38.43
-42.75
-42.63
-39.31
-34.66
-30.33
-27.18
-25.23
-24.02
-23.02
-21.91
-20.54
-18.77
-16.26
-12.57
-7.45
-1.15
5.38
10.72
13.48
12.97
9.45
4.11
-1.45
-5.87
-8.50
-9.50
-9.53
-9.32
-9.28
-9.39
-9.32
-8.68
-7.26
-5.13
-2.53
0.22
2.84
5.15
7.07
8.47
9.12
8.75
7.09
4.07
-0.10
-4.82
-9.35
-12.96
-15.31
-16.51
-17.13
-17.83
-19.02
-20.56
-21.72
-21.53
-19.26
-14.84
-8.90
-2.51
3.32
8.02
11.59
14.29
16.34
17.64
17.80
16.48
13.63
9.72
5.60
2.11
-0.27
-1.52
-2.06
-2.39
-2.87
-3.53
-4.12
-4.33
-4.03
-3.40
-2.89
-3.01
-4.05
-5.90
-8.06
-9.93
-11.13
-11.69
-12.04
-12.70
-14.01
-15.89
-17.87
-19.39
-20.06
-19.81
-18.88
-17.55
-15.91
-13.79
-10.87
-6.88
-1.87
3.77
9.30
13.91
16.97
18.22
17.84
16.30
14.17
11.84
9.46
6.96
4.17
1.04
-2.21
-5.11
-7.07
-7.60
-6.49
-3.93
-0.47
3.23
6.64
9.41
11.40
12.58
12.91
12.35
10.98
9.13
7.35
6.19
5.93
6.41
7.02
7.03
5.93
3.77
1.14
-1.10
-2.12
-1.50
0.71
4.04
7.85
11.63
15.08
18.07
20.48
22.13
22.71
21.94
19.78
16.51
12.76
9.19
6.32
4.27
2.86
1.76
0.76
-0.12
-0.64
-0.53
0.28
1.57
2.83
3.50
3.18
1.87
-0.07
-2.07
-3.68
-4.76
-5.57
-6.54
-8.02
-10.01
-12.16
-13.89
-14.74
-14.50
-13.25
-11.20
-8.53
-5.31
-1.49
2.84
7.40
11.65
14.98
16.90
17.25
16.21
14.24
11.87
9.49
7.34
5.48
3.89
2.55
1.48
0.67
0.10
-0.29
-0.54
-0.67
-0.61
-0.26
0.47
1.61
3.00
4.33
5.18
5.07
3.69
1.04
-2.44
-6.09
-9.13
-11.06
-11.77
-11.47
-10.40
-8.61
-5.89
-2.21
2.18
6.61
10.27
12.65
13.85
14.44
15.04
15.67
15.78
14.63
11.85
7.99
4.31
2.09
1.93
3.20
4.61
4.88
3.65
1.58
-0.06
-0.30
0.93
2.41
2.56
0.29
-4.26
-9.74
-14.29
-16.62
-16.68
-15.89
-16.16
-18.81
-23.78
-29.51
-33.79
-34.81
-31.97
-26.29
-19.53
-13.30
-8.27
-4.05
0.26
5.23
10.64
15.32
17.91
17.61
14.72
10.50
6.52
3.91
3.00
3.25
3.85
4.20
4.22
4.21
4.53
5.29
6.36
7.28
7.62
7.06
5.50
3.04
-0.02
-3.27
-6.16
-8.32
-9.64
-10.40
-11.13
-12.43
-14.56
-17.30
-20.03
-21.92
-22.36
-21.07
-18.21
-14.16
-9.36
-4.17
1.17
6.39
11.12
14.91
17.26
17.85
16.64
13.97
10.48
7.00
4.28
2.83
2.78
3.83
5.39
6.84
7.72
7.88
7.50
6.89
6.34
5.95
5.59
5.03
4.08
2.66
0.88
-1.10
-3.09
-4.98
-6.73
-8.31
-9.66
-10.77
-11.69
-12.56
-13.51
-14.63
-15.78
-16.61
-16.64
-15.43
-12.80
-8.94
-4.36
0.26
4.30
7.40
9.48
10.66
11.09
10.74
9.49
7.15
3.76
-0.31
-4.35
-7.52
-9.18
-9.10
-7.62
-5.46
-3.43
-2.01
-1.30
-1.02
-0.85
-0.67
-0.70
-1.33
-2.86
-5.15
-7.63
-9.47
-10.03
-9.13
-7.23
-5.16
-3.83
-3.74
-4.88
-6.82
-8.91
-10.63
-11.71
-12.12
-11.88
-10.93
-9.06
-6.06
-1.87
3.26
8.70
13.66
17.32
19.18
19.16
17.52
14.76
11.43
7.97
4.74
2.06
0.25
-0.44
0.01
1.28
2.82
4.02
4.54
4.41
4.02
3.89
4.27
5.05
5.80
6.00
5.34
3.83
1.81
-0.23
-1.91
-3.04
-3.66
-3.96
-4.19
-4.53
-5.09
-5.87
-6.93
-8.20
-9.54
-10.57
-10.68
-9.24
-5.91
-0.93
4.80
10.00
13.49
14.75
14.04
12.26
10.44
9.34
9.05
9.25
9.38
9.01
7.99
6.48
4.73
3.08
1.70
0.66
-0.02
-0.38
-0.44
-0.20
0.31
1.13
2.09
2.99
3.51
3.37
2.48
0.97
-0.79
-2.40
-3.55
-4.20
-4.50
-4.66
-4.76
-4.65
-3.93
-2.15
0.86
4.87
9.26
13.20
15.97
17.24
17.11
15.96
14.25
12.30
10.20
7.86
5.23
2.35
-0.51
-3.00
-4.82
-5.80
-6.04
-5.80
-5.36
-4.91
-4.52
-4.09
-3.52
-2.81
-2.06
-1.48
-1.23
-1.38
-1.91
-2.73
-3.76
-4.99
-6.44
-8.04
-9.65
-11.00
-11.72
-11.48
-10.03
-7.32
-3.56
0.77
5.05
8.66
11.17
12.47
12.72
12.23
11.28
10.06
8.66
7.18
5.75
4.57
3.83
3.59
3.76
4.14
4.55
4.87
5.06
5.22
5.39
5.55
5.53
5.12
4.13
2.46
0.28
-2.03
-4.02
-5.39
-6.13
-6.58
-7.13
-8.04
-9.15
-9.87
-9.51
-7.62
-4.35
-0.38
3.36
6.19
7.92
8.95
9.84
10.94
12.09
12.69
12.15
10.25
7.34
4.28
1.96
0.90
1.02
1.73
2.29
2.21
1.41
0.28
-0.70
-1.19
-1.20
-1.16
-1.57
-2.79
-4.77
-7.04
-8.97
-10.07
-10.30
-10.06
-9.91
-10.23
-10.94
-11.49
-11.16
-9.47
-6.44
-2.60
1.30
4.60
7.00
8.56
9.50
10.01
10.07
9.56
8.32
6.38
4.04
1.75
-0.03
-1.03
-1.31
-1.24
-1.22
-1.57
-2.26
-2.96
-3.30
-3.04
-2.34
-1.67
-1.57
-2.33
-3.83
-5.55
-6.92
-7.66
-7.88
-8.01
-8.47
-9.37
-10.42
-11.00
-10.53
-8.68
-5.50
-1.38
3.12
7.45
11.20
14.14
16.15
17.19
17.26
16.38
14.67
12.38
9.89
7.66
6.05
5.17
4.82
4.61
4.12
3.16
1.87
0.67
0.01
0.07
0.68
1.31
1.38
0.52
-1.27
-3.60
-5.98
-8.09
-9.88
-11.51
-13.22
-15.06
-16.86
-18.30
-19.17
-19.35
-18.87
-17.70
-15.67
-12.48
-7.97
-2.28
3.97
9.81
14.21
16.51
16.62
15.04
12.69
10.49
9.02
8.35
8.08
7.67
6.78
5.48
4.32
3.91
4.68
6.47
8.63
10.32
11.01
10.71
9.84
8.69
7.27
5.26
2.38
-1.18
-4.58
-6.84
-7.36
-6.52
-5.47
-5.48
-7.22
-10.32
-13.63
-16.04
-17.02
-17.03
-16.91
-17.28
-17.95
-17.96
-16.08
-11.69
-5.15
1.93
7.61
10.46
10.24
8.00
5.46
4.02
4.15
5.05
5.51
4.68
2.68
0.53
-0.46
0.42
3.01
6.20
8.74
9.87
9.69
8.96
8.58
9.07
10.40
11.94
12.96
12.92
11.69
9.55
6.99
4.46
2.35
0.73
-0.53
-1.67
-3.04
-4.85
-7.16
-9.81
-12.47
-14.84
-16.67
-17.85
-18.29
-17.85
-16.35
-13.65
-9.77
-5.00
0.08
4.78
8.44
10.62
11.25
10.60
9.27
8.01
7.47
7.94
9.29
11.00
12.42
13.11
12.98
12.22
11.14
9.90
8.46
6.64
4.35
1.71
-0.93
-3.21
-4.91
-6.08
-7.00
-8.03
-9.38
-10.99
-12.54
-13.64
-14.00
-13.67
-13.02
-12.63
-13.02
-14.37
-16.43
-18.58
-20.13
-20.54
-19.59
-17.38
-14.22
-10.42
-6.26
-1.99
2.05
5.50
7.94
9.13
9.08
8.02
6.34
4.40
2.44
0.60
-1.03
-2.33
-3.14
-3.33
-2.80
-1.62
0.01
1.85
3.59
4.95
5.74
5.90
5.56
4.95
4.32
3.81
3.39
2.91
2.19
1.23
0.16
-0.84
-1.73
-2.64
-3.83
-5.45
-7.43
-9.32
-10.53
-10.54
-9.11
-6.43
-2.97
0.66
3.94
6.62
8.74
10.42
11.70
12.47
12.40
11.24
8.99
6.01
2.98
0.46
-1.27
-2.33
-3.12
-3.95
-4.81
-5.41
-5.35
-4.56
-3.32
-2.22
-1.78
-2.18
-3.21
-4.40
-5.33
-5.88
-6.24
-6.75
-7.66
-8.96
-10.40
-11.65
-12.48
-13.01
-13.47
-14.15
-15.14
-16.21
-16.94
-16.82
-15.48
-13.00
-9.74
-6.24
-3.00
-0.24
2.11
4.18
6.06
7.48
7.99
7.20
5.12
2.27
-0.43
-2.10
-2.26
-1.10
0.72
2.48
3.86
5.01
6.44
8.60
11.56
14.80
17.53
19.00
18.85
17.32
14.95
12.39
10.10
8.11
6.17
3.95
1.23
-1.94
-5.26
-8.27
-10.44
-11.38
-10.92
-9.12
-6.31
-2.94
0.53
3.83
6.88
9.73
12.30
14.35
15.48
15.34
13.84
11.30
8.41
5.89
4.25
3.59
3.61
3.83
3.87
3.64
3.35
3.33
3.83
4.85
6.08
7.11
7.56
7.19
5.91
3.68
0.41
-3.97
-9.39
-15.40
-21.31
-26.24
-29.47
-30.66
-29.95
-27.84
-24.86
-21.47
-17.92
-14.39
-10.94
-7.63
-4.48
-1.38
1.79
5.09
8.36
11.24
13.24
13.97
13.35
11.57
9.04
6.25
3.61
1.39
-0.17
-0.97
-0.94
-0.19
0.98
2.20
3.08
3.42
3.27
2.88
2.56
2.46
2.49
2.38
1.83
0.72
-0.72
-2.05
-2.75
-2.49
-1.24
0.75
3.12
5.55
7.91
10.13
12.07
13.53
14.20
13.93
12.76
10.99
9.10
7.48
6.31
5.51
4.81
3.91
2.64
1.07
-0.52
-1.73
-2.25
-2.01
-1.23
-0.31
0.34
0.44
-0.01
-0.92
-2.22
-3.95
-6.25
-9.17
-12.49
-15.66
-17.87
-18.41
-16.93
-13.62
-9.15
-4.36
-0.02
3.50
6.18
8.25
9.89
11.10
11.71
11.45
10.30
8.49
6.52
4.84
3.66
2.85
2.11
1.16
0.01
-1.06
-1.67
-1.58
-0.88
0.03
0.68
0.71
0.10
-0.89
-1.89
-2.70
-3.36
-4.12
-5.24
-6.78
-8.49
-9.89
-10.46
-9.92
-8.30
-5.94
-3.30
-0.72
1.62
3.75
5.80
7.80
9.59
10.89
11.30
10.57
8.69
5.99
3.09
0.65
-0.86
-1.31
-0.97
-0.28
0.38
0.88
1.39
2.15
3.26
4.51
5.50
5.75
5.06
3.53
1.56
-0.43
-2.19
-3.79
-5.49
-7.50
-9.78
-11.90
-13.23
-13.27
-11.84
-9.18
-5.89
-2.56
0.46
3.20
5.86
8.65
11.42
13.73
15.01
14.92
13.57
11.44
9.01
6.62
4.28
1.94
-0.23
-1.75
-2.06
-0.87
1.41
3.82
5.32
5.33
4.12
2.59
1.73
2.01
3.01
3.76
3.27
1.18
-2.08
-5.50
-8.09
-9.30
-9.53
-9.54
-10.10
-11.39
-12.88
-13.53
-12.45
-9.30
-4.79
-0.13
3.52
5.63
6.56
7.26
8.61
10.92
13.45
15.04
14.68
12.20
8.50
5.08
3.25
3.47
4.97
6.35
6.42
4.92
2.66
1.00
0.98
2.66
4.94
6.31
5.68
3.06
-0.54
-3.70
-5.44
-5.60
-4.96
-4.63
-5.42
-7.48
-10.36
-13.35
-15.87
-17.61
-18.67
-19.29
-19.67
-19.84
-19.62
-18.72
-16.83
-13.77
-9.70
-5.08
-0.60
3.00
5.25
6.01
5.58
4.49
3.24
2.11
1.09
0.07
-1.01
-2.04
-2.71
-2.69
-1.78
-0.05
2.18
4.42
6.23
7.32
7.62
7.28
6.59
5.79
4.99
4.09
2.83
1.00
-1.39
-3.94
-6.04
-7.11
-6.92
-5.77
-4.39
-3.65
-4.12
-5.83
-8.26
-10.55
-11.92
-11.88
-10.42
-7.88
-4.79
-1.63
1.24
3.67
5.60
7.04
8.01
8.46
8.35
7.67
6.47
4.90
3.16
1.46
-0.03
-1.21
-2.03
-2.44
-2.33
-1.61
-0.27
1.50
3.34
4.80
5.51
5.35
4.48
3.30
2.18
1.38
0.96
0.80
0.71
0.53
0.20
-0.32
-1.03
-1.97
-3.22
-4.81
-6.64
-8.42
-9.70
-9.94
-8.72
-5.92
-1.77
3.18
8.27
12.95
16.78
19.50
20.86
20.68
18.89
15.70
11.58
7.29
3.53
0.80
-0.76
-1.33
-1.21
-0.70
0.05
0.97
1.97
2.88
3.43
3.37
2.63
1.38
0.02
-0.95
-1.23
-0.78
0.08
0.88
1.22
0.97
0.24
-0.69
-1.75
-3.10
-5.08
-8.02
-11.86
-16.09
-19.88
-22.36
-23.05
-21.95
-19.38
-15.76
-11.34
-6.22
-0.53
5.35
10.54
14.06
15.07
13.38
9.53
4.65
-0.04
-3.68
-6.11
-7.72
-9.05
-10.40
-11.53
-11.80
-10.56
-7.55
-3.33
1.01
4.31
5.84
5.69
4.58
3.39
2.69
2.44
2.12
1.15
-0.64
-2.92
-4.98
-6.16
-6.12
-5.10
-3.72
-2.68
-2.43
-2.98
-3.90
-4.51
-4.10
-2.31
0.77
4.64
8.57
11.89
14.20
15.44
15.81
15.54
14.78
13.51
11.69
9.30
6.51
3.64
1.11
-0.73
-1.70
-1.91
-1.67
-1.40
-1.39
-1.76
-2.29
-2.63
-2.47
-1.74
-0.68
0.19
0.37
-0.38
-1.90
-3.72
-5.36
-6.56
-7.41
-8.26
-9.39
-10.79
-12.02
-12.46
-11.57
-9.26
-5.87
-2.04
1.60
4.72
7.31
9.53
11.51
13.13
14.09
14.05
12.94
11.01
8.86
7.12
6.24
6.22
6.70
7.17
7.27
6.92
6.39
6.04
6.09
6.48
6.90
6.97
6.45
5.38
4.07
2.93
2.22
1.93
1.73
1.17
-0.11
-2.16
-4.61
-6.91
-8.51
-9.14
-8.88
-8.00
-6.73
-5.11
-3.00
-0.28
2.90
6.07
8.51
9.61
9.10
7.23
4.64
2.08
0.14
-0.99
-1.48
-1.68
-1.91
-2.29
-2.64
-2.67
-2.14
-1.03
0.36
1.59
2.26
2.19
1.49
0.46
-0.68
-1.86
-3.28
-5.16
-7.57
-10.25
-12.70
-14.32
-14.77
-14.06
-12.55
-10.72
-8.85
-6.90
-4.47
-1.14
3.22
8.12
12.46
14.84
14.16
10.13
3.51
-4.14
-11.11
-16.14
-18.75
-19.20
-18.08
-15.89
-12.94
-9.41
-5.60
-2.03
0.70
2.18
2.43
1.90
1.28
1.08
1.39
1.88
1.97
1.15
-0.74
-3.41
-6.26
-8.55
-9.78
-9.73
-8.48
-6.33
-3.53
-0.29
3.32
7.21
11.16
14.79
17.59
19.05
18.87
17.10
14.20
10.90
7.90
5.62
4.16
3.27
2.66
2.16
1.88
1.99
2.60
3.52
4.32
4.56
4.00
2.84
1.55
0.63
0.30
0.32
0.15
-0.81
-2.77
-5.50
-8.37
-10.70
-11.99
-12.15
-11.33
-9.77
-7.62
-4.96
-1.94
1.10
3.65
5.17
5.39
4.45
2.95
1.69
1.33
2.09
3.66
5.30
6.23
5.99
4.74
3.14
1.96
1.73
2.37
3.28
3.78
3.52
2.71
1.95
1.65
1.81
1.91
1.30
-0.27
-2.45
-4.50
-5.76
-6.20
-6.31
-6.69
-7.48
-8.10
-7.47
-4.70
0.31
6.55
12.47
16.71
18.78
19.25
19.23
19.64
20.65
21.24
20.04
15.99
9.14
0.78
-7.07
-12.69
-15.35
-15.87
-15.87
-16.84
-19.26
-22.34
-24.55
-24.62
-22.31
-18.80
-15.89
-15.02
-16.41
-18.92
-20.73
-20.43
-17.75
-13.86
-10.57
-9.36
-10.60
-13.33
-15.93
-16.88
-15.34
-11.56
-6.32
-0.53
5.24
10.80
16.08
20.97
25.15
28.09
29.38
28.84
26.65
23.28
19.38
15.63
12.64
10.70
9.78
9.52
9.34
8.74
7.52
5.93
4.50
3.72
3.75
4.25
4.55
4.02
2.37
-0.19
-3.14
-5.87
-7.92
-9.07
-9.23
-8.37
-6.52
-3.92
-1.05
1.32
2.45
1.92
-0.14
-3.03
-5.72
-7.20
-6.77
-4.28
-0.14
4.88
9.77
13.64
15.89
16.34
15.21
12.96
10.12
7.13
4.27
1.74
-0.34
-1.86
-2.74
-2.91
-2.37
-1.14
0.62
2.71
4.79
6.52
7.64
8.06
7.78
6.87
5.33
3.10
0.19
-3.18
-6.52
-9.21
-10.83
-11.39
-11.44
-11.90
-13.59
-16.86
-21.31
-25.92
-29.40
-30.72
-29.43
-25.78
-20.53
-14.62
-8.86
-3.83
0.10
2.73
3.92
3.75
2.55
0.98
-0.19
-0.38
0.56
2.25
4.04
5.35
6.01
6.29
6.74
7.76
9.36
11.07
12.26
12.53
11.94
11.02
10.38
10.32
10.63
10.71
9.93
8.04
5.33
2.47
0.13
-1.42
-2.42
-3.46
-5.04
-7.30
-9.83
-11.91
-12.80
-12.17
-10.08
-6.94
-3.18
0.96
5.46
10.32
15.39
20.06
23.49
24.93
24.05
21.21
17.27
13.29
10.05
7.72
5.99
4.39
2.64
0.90
-0.32
-0.56
0.37
2.09
3.91
5.17
5.54
5.11
4.24
3.15
1.80
-0.17
-3.08
-6.87
-10.97
-14.45
-16.46
-16.64
-15.25
-13.19
-11.46
-10.79
-11.28
-12.50
-13.65
-13.94
-12.83
-10.27
-6.56
-2.20
2.30
6.59
10.45
13.75
16.35
17.95
18.22
16.97
14.22
10.31
5.88
1.65
-1.73
-3.89
-4.80
-4.73
-4.11
-3.38
-2.80
-2.49
-2.31
-2.13
-1.83
-1.47
-1.22
-1.29
-1.80
-2.72
-3.86
-5.04
-6.20
-7.47
-9.14
-11.46
-14.47
-17.86
-21.09
-23.46
-24.42
-23.72
-21.43
-17.92
-13.62
-8.94
-4.14
0.58
5.03
8.91
11.80
13.31
13.18
11.47
8.59
5.16
1.70
-1.53
-4.61
-7.82
-11.33
-14.92
-18.01
-19.80
-19.72
-17.74
-14.43
-10.72
-7.52
-5.34
-4.15
-3.53
-3.03
-2.43
-1.79
-1.38
-1.45
-2.12
-3.31
-4.86
-6.59
-8.29
-9.65
-10.14
-9.14
-6.09
-0.70
6.77
15.48
24.17
31.47
36.27
38.07
37.00
33.80
29.44
24.85
20.66
17.17
14.49
12.55
11.30
10.69
10.59
10.78
10.98
10.94
10.54
9.84
9.08
8.55
8.42
8.61
8.87
8.77
7.98
6.39
4.15
1.65
-0.74
-2.76
-4.48
-6.17
-8.12
-10.44
-12.89
-14.92
-15.85
-15.13
-12.63
-8.70
-4.03
0.57
4.47
7.37
9.26
10.27
10.45
9.76
8.11
5.54
2.39
-0.76
-3.25
-4.65
-4.93
-4.47
-3.80
-3.35
-3.24
-3.23
-3.00
-2.35
-1.34
-0.31
0.31
0.20
-0.70
-2.16
-3.87
-5.57
-7.16
-8.72
-10.33
-11.95
-13.28
-13.86
-13.29
-11.42
-8.43
-4.82
-1.09
2.38
5.46
8.18
10.58
12.54
13.82
14.15
13.43
11.91
10.08
8.57
7.78
7.77
8.18
8.46
8.13
7.04
5.42
3.73
2.36
1.48
0.97
0.56
0.03
-0.61
-1.21
-1.56
-1.64
-1.64
-1.91
-2.75
-4.22
-6.06
-7.75
-8.70
-8.54
-7.25
-5.13
-2.65
-0.20
2.04
4.11
6.13
8.12
9.87
11.08
11.43
10.85
9.51
7.79
6.07
4.53
3.19
1.94
0.75
-0.26
-0.88
-0.90
-0.32
0.63
1.59
2.17
2.11
1.36
0.02
-1.66
-3.49
-5.29
-6.98
-8.57
-10.07
-11.43
-12.50
-12.93
-12.48
-10.96
-8.47
-5.37
-2.15
0.77
3.17
5.03
6.20
6.49
5.66
3.64
0.76
-2.21
-4.42
-5.31
-5.07
-4.42
-4.18
-4.69
-5.61
-6.06
-5.30
-3.21
-0.66
1.12
1.16
-0.61
-3.31
-5.59
-6.48
-5.88
-4.83
-4.73
-6.52
-10.04
-13.97
-16.50
-16.30
-13.10
-8.06
-2.97
0.69
2.38
2.68
2.76
3.54
5.19
6.95
7.72
6.75
4.16
0.83
-2.02
-3.53
-3.47
-2.36
-0.98
0.04
0.50
0.55
0.47
0.40
0.34
0.16
-0.19
-0.66
-1.15
-1.64
-2.26
-3.21
-4.54
-6.16
-7.76
-9.00
-9.65
-9.61
-8.84
-7.30
-4.93
-1.75
1.97
5.69
8.73
10.55
10.97
10.24
8.99
7.90
7.45
7.72
8.42
9.07
9.23
8.73
7.78
6.87
6.54
7.08
8.43
10.16
11.70
12.62
12.79
12.41
11.78
11.14
10.48
9.58
8.16
6.04
3.25
0.02
-3.29
-6.37
-8.98
-10.93
-12.08
-12.34
-11.63
-10.01
-7.71
-5.02
-2.32
0.04
1.84
2.99
3.58
3.79
3.89
4.07
4.42
4.87
5.28
5.51
5.59
5.73
6.16
7.09
8.49
10.14
11.75
13.06
14.03
14.74
15.35
15.92
16.38
16.52
16.15
15.13
13.46
11.17
8.20
4.29
-0.93
-7.81
-16.34
-25.96
-35.52
-43.55
-48.65
-49.99
-47.49
-41.86
-34.21
-25.75
-17.40
-9.77
-3.32
1.53
4.34
4.82
3.03
-0.40
-4.40
-7.83
-9.86
-10.33
-9.74
-8.92
-8.52
-8.71
-9.07
-8.95
-7.78
-5.48
-2.44
0.66
3.22
4.99
6.09
6.79
7.38
7.93
8.33
8.38
7.91
6.89
5.43
3.65
1.72
-0.22
-2.03
-3.61
-4.84
-5.61
-5.77
-5.25
-3.98
-1.99
0.64
3.78
7.24
10.81
14.24
16.99
18.39
17.65
14.14
7.79
-0.70
-9.97
-18.33
-24.55
-28.15
-29.45
-29.19
-28.01
-26.04
-23.02
-18.64
-13.08
-7.14
-2.00
1.26
2.17
1.06
-1.13
-3.30
-4.68
-5.06
-4.75
-4.34
-4.31
-4.84
-5.74
-6.55
-6.89
-6.63
-5.93
-5.09
-4.32
-3.58
-2.55
-0.75
2.13
6.07
10.62
15.09
18.72
20.98
21.69
21.09
19.58
17.57
15.24
12.57
9.43
5.78
1.86
-1.82
-4.61
-6.03
-5.88
-4.39
-2.06
0.54
2.96
4.97
6.42
7.17
7.08
5.98
3.89
1.02
-2.20
-5.28
-7.80
-9.60
-10.84
-11.93
-13.36
-15.52
-18.52
-22.09
-25.67
-28.57
-30.19
-30.19
-28.47
-25.12
-20.29
-14.19
-7.15
0.23
7.16
12.76
16.40
17.93
17.71
16.52
15.13
14.04
13.28
12.49
11.25
9.33
6.96
4.76
3.48
3.60
5.10
7.38
9.64
11.14
11.53
10.97
9.86
8.61
7.40
6.09
4.43
2.22
-0.51
-3.47
-6.29
-8.62
-10.35
-11.49
-12.07
-12.04
-11.14
-9.00
-5.37
-0.32
5.70
11.87
17.31
21.30
23.48
23.90
22.86
20.79
18.04
14.82
11.29
7.64
4.15
1.24
-0.68
-1.42
-1.08
-0.10
0.94
1.55
1.53
1.04
0.45
0.14
0.26
0.65
0.98
0.90
0.23
-0.90
-2.24
-3.50
-4.54
-5.41
-6.22
-7.01
-7.60
-7.54
-6.31
-3.58
0.57
5.60
10.63
14.84
17.69
19.14
19.50
19.18
18.46
17.33
15.65
13.26
10.30
7.16
4.34
2.23
0.90
0.11
-0.49
-1.17
-1.97
-2.65
-2.91
-2.58
-1.76
-0.78
-0.14
-0.21
-1.16
-2.86
-4.99
-7.21
-9.25
-10.97
-12.34
-13.28
-13.61
-13.04
-11.28
-8.16
-3.83
1.26
6.44
11.04
14.60
16.96
18.24
18.69
18.48
17.65
16.16
14.00
11.33
8.57
6.15
4.45
3.53
3.16
2.96
2.56
1.79
0.76
-0.33
-1.29
-2.12
-2.95
-4.00
-5.40
-7.03
-8.65
-9.95
-10.78
-11.20
-11.46
-11.81
-12.28
-12.59
-12.24
-10.69
-7.68
-3.41
1.55
6.45
10.54
13.32
14.40
13.70
11.34
7.75
3.71
0.19
-1.95
-2.42
-1.64
-0.64
-0.47
-1.61
-3.68
-5.61
-6.31
-5.20
-2.60
0.53
3.09
4.39
4.31
3.18
1.45
-0.48
-2.60
-4.88
-7.25
-9.44
-11.02
-11.50
-10.61
-8.21
-4.84
-1.17
1.99
4.17
5.43
6.33
7.48
9.20
10.96
11.78
10.74
7.60
3.12
-1.21
-4.02
-4.68
-3.75
-2.41
-1.75
-2.05
-2.61
-2.31
-0.39
3.06
6.87
9.55
10.09
8.43
5.46
2.43
0.19
-1.11
-2.07
-3.48
-5.66
-8.23
-10.27
-10.77
-9.18
-5.61
-0.85
4.05
8.22
11.22
13.03
13.88
14.00
13.52
12.41
10.62
8.22
5.42
2.59
0.10
-1.80
-3.00
-3.55
-3.58
-3.26
-2.79
-2.33
-2.00
-1.81
-1.67
-1.47
-1.16
-0.81
-0.67
-1.01
-1.97
-3.48
-5.27
-6.92
-8.15
-8.88
-9.21
-9.36
-9.37
-9.07
-8.12
-6.15
-2.97
1.29
6.19
11.09
15.31
18.33
19.91
20.11
19.24
17.71
15.89
14.00
12.10
10.15
8.21
6.43
5.01
4.15
3.83
3.89
4.05
4.13
4.07
4.01
4.04
4.07
3.86
3.03
1.40
-0.89
-3.33
-5.28
-6.30
-6.40
-6.13
-6.32
-7.65
-10.28
-13.72
-17.04
-19.29
-19.91
-18.85
-16.55
-13.56
-10.32
-7.10
-4.00
-1.24
0.86
1.87
1.53
-0.15
-2.76
-5.60
-7.95
-9.26
-9.35
-8.40
-6.85
-5.27
-4.10
-3.51
-3.40
-3.45
-3.31
-2.85
-2.18
-1.61
-1.48
-1.87
-2.63
-3.51
-4.32
-5.09
-5.99
-7.15
-8.48
-9.65
-10.24
-10.08
-9.39
-8.67
-8.40
-8.70
-9.21
-9.16
-7.91
-5.19
-1.31
3.04
7.11
10.49
13.10
15.13
16.63
17.37
16.99
15.19
12.14
8.49
5.22
3.26
3.05
4.46
6.91
9.68
12.16
14.02
15.14
15.48
14.95
13.52
11.32
8.77
6.54
5.34
5.65
7.47
10.09
12.47
13.53
12.68
10.01
6.20
2.16
-1.42
-4.43
-7.23
-10.25
-13.64
-17.03
-19.59
-20.51
-19.30
-16.22
-12.09
-7.93
-4.54
-2.20
-0.64
0.68
2.22
4.00
5.67
6.65
6.43
4.88
2.26
-0.84
-3.72
-5.91
-7.24
-7.87
-8.06
-8.08
-8.02
-7.84
-7.45
-6.83
-6.05
-5.23
-4.49
-3.81
-3.16
-2.54
-2.04
-1.83
-2.08
-2.84
-4.00
-5.43
-7.02
-8.79
-10.75
-12.84
-14.84
-16.34
-16.91
-16.28
-14.40
-11.45
-7.76
-3.67
0.54
4.64
8.46
11.81
14.56
16.65
18.18
19.34
20.32
21.23
21.89
21.89
20.74
18.14
14.21
9.53
5.02
1.56
-0.38
-0.85
-0.41
0.26
0.72
0.84
0.80
0.84
1.01
1.14
0.91
0.09
-1.30
-3.08
-5.00
-6.96
-9.03
-11.40
-14.18
-17.23
-20.14
-22.31
-23.22
-22.63
-20.68
-17.78
-14.41
-10.87
-7.18
-3.18
1.27
5.96
10.33
13.63
15.24
15.03
13.47
11.41
9.68
8.74
8.54
8.70
8.78
8.62
8.38
8.37
8.81
9.59
10.35
10.64
10.18
9.05
7.65
6.46
5.79
5.56
5.34
4.53
2.73
-0.09
-3.45
-6.58
-8.71
-9.44
-8.84
-7.31
-5.37
-3.39
-1.47
0.50
2.54
4.53
6.03
6.56
5.77
3.73
1.00
-1.60
-3.33
-3.88
-3.52
-2.93
-2.82
-3.51
-4.76
-5.90
-6.21
-5.44
-3.88
-2.30
-1.49
-1.79
-2.99
-4.44
-5.44
-5.66
-5.25
-4.71
-4.64
-5.31
-6.62
-8.16
-9.43
-10.08
-10.03
-9.36
-8.16
-6.44
-4.09
-1.10
2.31
5.64
8.20
9.42
9.11
7.60
5.55
3.67
2.37
1.63
1.07
0.31
-0.83
-2.16
-3.23
-3.63
-3.23
-2.21
-1.05
-0.22
0.04
-0.25
-0.84
-1.48
-2.07
-2.72
-3.62
-4.90
-6.52
-8.25
-9.75
-10.78
-11.26
-11.26
-10.87
-10.13
-8.91
-7.01
-4.34
-0.99
2.63
5.94
8.36
9.53
9.40
8.27
6.64
4.98
3.60
2.61
1.94
1.48
1.19
1.10
1.34
2.00
3.05
4.32
5.48
6.18
6.19
5.51
4.36
3.13
2.10
1.25
0.27
-1.29
-3.70
-6.79
-10.02
-12.61
-13.78
-13.13
-10.60
-6.40
-0.99
5.07
10.90
15.60
18.42
19.06
17.87
15.76
13.67
12.20
11.16
9.88
7.68
4.38
0.55
-2.76
-4.59
-4.56
-3.36
-2.14
-1.92
-3.02
-4.79
-6.03
-5.70
-3.55
-0.58
1.66
1.79
-0.59
-4.63
-8.65
-11.15
-11.46
-10.26
-8.88
-8.42
-8.98
-9.55
-8.57
-5.01
1.05
8.13
14.18
17.50
17.55
15.02
11.36
7.92
5.47
3.87
2.53
0.92
-1.08
-3.08
-4.49
-4.90
-4.18
-2.73
-1.02
0.51
1.73
2.73
3.73
4.84
6.02
7.02
7.52
7.26
6.18
4.43
2.37
0.47
-0.75
-0.88
0.34
2.88
6.44
10.46
14.28
17.33
19.28
20.10
20.01
19.20
17.70
15.33
11.87
7.31
2.02
-3.32
-7.96
-11.45
-13.77
-15.24
-16.30
-17.15
-17.72
-17.75
-17.03
-15.58
-13.68
-11.75
-10.16
-9.11
-8.66
-8.73
-9.23
-10.01
-10.93
-11.77
-12.35
-12.46
-11.90
-10.51
-8.20
-5.05
-1.30
2.59
6.10
8.76
10.32
10.77
10.25
8.94
6.97
4.44
1.51
-1.48
-4.12
-5.94
-6.71
-6.44
-5.43
-4.09
-2.77
-1.66
-0.80
-0.11
0.45
0.82
0.81
0.15
-1.39
-3.83
-6.91
-10.14
-12.98
-15.04
-16.16
-16.42
-15.95
-14.78
-12.83
-9.97
-6.27
-2.13
1.84
4.96
6.78
7.22
6.55
5.19
3.50
1.62
-0.49
-2.95
-5.73
-8.55
-10.96
-12.54
-13.00
-12.39
-10.98
-9.15
-7.18
-5.19
-3.18
-1.19
0.67
2.13
2.94
2.96
2.23
0.99
-0.40
-1.64
-2.52
-3.03
-3.25
-3.31
-3.26
-2.97
-2.11
-0.35
2.51
6.35
10.70
14.90
18.36
20.71
21.91
21.97
21.02
19.14
16.45
13.26
10.06
7.38
5.62
4.73
4.33
3.86
2.95
1.60
0.21
-0.65
-0.60
0.33
1.65
2.70
2.94
2.21
0.79
-0.86
-2.29
-3.47
-4.60
-5.96
-7.55
-9.00
-9.62
-8.74
-6.04
-1.88
2.95
7.52
11.18
13.79
15.58
16.90
17.92
18.43
18.01
16.25
13.12
9.00
4.61
0.76
-1.93
-3.34
-3.77
-3.78
-3.97
-4.71
-6.04
-7.68
-9.15
-10.08
-10.33
-10.02
-9.49
-9.11
-9.05
-9.30
-9.66
-9.90
-9.86
-9.52
-8.91
-8.07
-6.94
-5.37
-3.22
-0.48
2.68
5.94
8.89
11.21
12.72
13.39
13.29
12.53
11.16
9.27
6.98
4.50
2.09
-0.00
-1.58
-2.54
-2.92
-2.78
-2.25
-1.54
-0.91
-0.60
-0.77
-1.44
-2.44
-3.53
-4.54
-5.45
-6.45
-7.74
-9.32
-10.90
-11.98
-12.11
-11.13
-9.25
-6.91
-4.56
-2.33
-0.13
2.25
4.86
7.42
9.49
10.53
10.29
8.93
6.91
4.81
3.09
1.90
1.15
0.56
-0.03
-0.60
-0.91
-0.72
0.08
1.24
2.32
2.81
2.48
1.50
0.32
-0.62
-1.18
-1.66
-2.57
-4.32
-6.83
-9.41
-11.08
-10.96
-8.76
-4.88
-0.25
4.09
7.42
9.57
10.78
11.39
11.62
11.38
10.39
8.47
5.74
2.68
-0.07
-1.93
-2.72
-2.67
-2.28
-2.05
-2.20
-2.62
-2.97
-3.02
-2.77
-2.47
-2.45
-2.88
-3.70
-4.69
-5.64
-6.55
-7.58
-8.90
-10.52
-12.13
-13.15
-12.94
-11.06
-7.44
-2.46
3.13
8.39
12.51
15.03
16.01
15.89
15.30
14.68
14.18
13.60
12.65
11.21
9.45
7.75
6.49
5.87
5.83
6.20
6.84
7.71
8.79
9.97
10.90
11.08
10.07
7.69
4.20
0.25
-3.36
-5.93
-7.15
-7.20
-6.68
-6.32
-6.65
-7.73
-9.07
-9.86
-9.35
-7.23
-3.81
0.10
3.56
5.95
7.15
7.52
7.61
7.83
8.25
8.73
9.01
8.94
8.55
7.95
7.19
6.22
4.88
3.06
0.79
-1.69
-4.02
-5.88
-7.15
-7.93
-8.49
-9.08
-9.84
-10.72
-11.58
-12.29
-12.81
-13.20
-13.48
-13.61
-13.44
-12.87
-11.96
-11.09
-10.79
-11.52
-13.33
-15.68
-17.55
-17.77
-15.51
-10.65
-3.86
3.62
10.48
15.72
18.97
20.56
21.06
21.17
21.29
21.45
21.43
21.02
20.08
18.66
16.71
14.18
11.01
7.34
3.68
0.81
-0.53
-0.06
1.60
3.32
3.91
2.74
0.12
-2.95
-5.41
-6.77
-7.49
-8.53
-10.73
-14.14
-17.93
-20.79
-21.79
-20.88
-19.24
-18.42
-19.49
-22.29
-25.35
-26.61
-24.52
-18.82
-10.95
-3.06
3.04
6.82
9.08
11.32
14.59
18.84
22.73
24.55
23.18
18.80
12.81
7.07
3.03
1.19
1.00
1.44
1.68
1.43
0.96
0.75
1.11
2.06
3.23
4.12
4.32
3.64
2.16
0.14
-2.00
-3.80
-4.93
-5.32
-5.13
-4.79
-4.76
-5.38
-6.74
-8.68
-10.88
-13.03
-14.89
-16.35
-17.30
-17.61
-17.03
-15.32
-12.29
-8.01
-2.89
2.41
7.11
10.57
12.55
13.25
13.18
12.85
12.49
11.94
10.86
8.93
6.18
3.09
0.39
-1.23
-1.44
-0.33
1.62
3.84
5.87
7.53
8.82
9.83
10.58
10.94
10.70
9.69
7.88
5.48
2.84
0.34
-1.73
-3.29
-4.48
-5.60
-6.93
-8.67
-10.79
-13.06
-15.19
-16.87
-17.92
-18.22
-17.64
-15.97
-12.96
-8.52
-2.84
3.45
9.47
14.30
17.32
18.39
17.82
16.23
14.23
12.28
10.55
9.01
7.55
6.13
4.85
3.95
3.63
3.98
4.81
5.74
6.40
6.57
6.30
5.86
5.46
5.14
4.67
3.70
2.04
-0.22
-2.71
-5.01
-6.93
-8.64
-10.63
-13.32
-16.83
-20.69
-24.12
-26.30
-26.76
-25.56
-23.18
-20.16
-16.83
-13.21
-9.30
-5.25
-1.55
1.17
2.47
2.36
1.29
-0.15
-1.62
-3.20
-5.20
-7.84
-10.93
-13.86
-15.86
-16.33
-15.23
-13.02
-10.41
-8.15
-6.64
-5.91
-5.70
-5.60
-5.42
-5.17
-5.06
-5.36
-6.20
-7.51
-9.06
-10.66
-12.41
-14.61
-17.55
-21.22
-25.16
-28.55
-30.49
-30.32
-28.00
-23.92
-18.77
-13.16
-7.51
-2.06
2.98
7.36
10.58
12.22
12.10
10.48
7.99
5.52
3.81
3.24
3.66
4.61
5.59
6.29
6.70
6.95
7.22
7.60
7.98
8.20
8.16
7.86
7.41
6.93
6.47
5.97
5.17
3.73
1.35
-2.08
-6.26
-10.48
-13.72
-14.97
-13.62
-9.70
-3.90
2.67
8.92
14.13
18.13
21.26
24.01
26.66
29.19
31.21
32.30
32.21
31.11
29.47
27.88
26.74
26.06
25.48
24.49
22.70
20.08
17.02
14.19
12.28
11.81
12.98
15.69
19.56
23.99
28.24
31.56
33.27
32.97
30.58
26.42
21.07
15.17
9.32
3.96
-0.63
-4.27
-6.85
-8.36
-8.92
-8.75
-8.11
-7.20
-6.12
-4.89
-3.55
-2.23
-1.14
-0.48
-0.25
-0.21
-0.00
0.72
2.06
3.88
5.94
8.11
10.38
12.66
14.58
15.29
13.70
8.99
1.11
-8.98
-19.55
-28.80
-35.43
-39.12
-40.40
-40.29
-39.69
-39.04
-38.21
-36.76
-34.29
-30.72
-26.36
-21.77
-17.43
-13.53
-9.93
-6.26
-2.31
1.82
5.66
8.57
10.04
9.94
8.54
6.38
3.98
1.84
0.29
-0.35
0.08
1.63
4.13
7.11
9.83
11.40
10.90
7.75
1.95
-5.62
-13.23
-18.72
-20.28
-17.24
-10.55
-2.45
4.38
7.99
8.01
5.62
2.89
1.75
3.24
7.33
13.28
20.13
27.18
33.95
40.10
45.22
48.90
50.91
51.34
50.60
49.24
47.63
45.85
43.70
40.90
37.42
33.54
29.78
26.75
24.83
24.18
24.77
26.56
29.60
34.02
39.81
46.65
53.82
60.33
65.28
68.08
68.65
67.39
65.00
62.21
59.65
57.71
56.47
55.61
54.38
51.72
46.71
39.01
29.17
18.59
9.05
2.06
-1.49
-1.51
1.58
7.27
14.98
24.03
33.51
42.27
49.24
53.86
56.45
58.16
60.66
65.50
73.63
85.03
98.54
111.86
121.98
125.86
121.27
107.49
85.49
57.30
24.99
-10.20
-47.81
-87.28
-126.78
-162.75
-190.62
-206.45
-208.68
-198.83
-180.84
-159.41
-138.32
-119.56
-103.63
-90.42
-79.98
-72.74
-69.04
-68.67
-70.62
-73.44
-75.88
-77.32
-77.85
-77.95
-77.89
-77.56
-76.46
-74.17
-70.78
-66.90
-63.43
-61.02
-59.69
-58.99
-58.09
-56.33
-53.36
-49.12
-43.69
-37.32
-30.48
-24.29
-20.02
-18.68
-20.29
-23.58
-26.30
-26.38
-22.88
-16.78
-10.29
-5.75
-4.29
-5.34
-7.04
-7.62
-6.53
-5.09
-5.56
-9.76
-17.76
-27.58
-36.09
-40.75
-40.89
-38.37
-36.24
-37.16
-41.89
-48.99
-55.57
-58.72
-56.48
-48.37
-34.86
-16.76
4.97
29.08
53.65
76.08
93.59
103.89
105.97
100.43
89.15
74.68
59.62
46.10
35.69
29.05
26.13
26.07
27.40
28.41
27.57
24.05
18.13
11.01
4.47
0.22
-0.72
1.64
6.39
12.18
17.83
22.70
26.76
30.33
33.70
36.90
39.66
41.58
42.39
42.03
40.64
38.50
35.85
32.82
29.48
25.79
21.74
17.29
12.47
7.42
2.43
-1.97
-4.96
-5.59
-2.94
3.53
13.55
25.96
38.71
49.44
56.23
58.24
56.02
51.12
45.35
39.86
34.70
29.00
21.65
12.19
1.33
-9.23
-17.54
-22.34
-23.78
-23.33
-23.17
-25.13
-29.86
-36.70
-44.13
-50.66
-55.49
-58.67
-60.75
-62.15
-62.87
-62.58
-61.12
-58.90
-56.89
-56.16
-57.13
-59.11
-60.40
-58.90
-53.00
-42.19
-27.32
-10.26
6.50
20.36
29.05
30.96
25.47
13.24
-3.67
-22.10
-38.46
-49.64
-53.92
-51.38
-43.78
-33.88
-24.40
-17.31
-13.41
-12.49
-13.76
-16.48
-20.24
-25.02
-30.90
-37.71
-44.82
-51.17
-55.60
-57.27
-55.93
-51.94
-45.99
-38.74
-30.52
-21.38
-11.22
-0.30
10.73
20.79
28.71
33.69
35.47
34.40
31.22
26.70
21.50
16.03
10.64
5.65
1.51
-1.31
-2.38
-1.62
0.82
4.49
8.85
13.37
17.65
21.36
24.27
26.12
26.71
26.11
24.65
22.94
21.68
21.24
21.63
22.19
21.97
20.14
16.36
10.98
4.97
-0.44
-4.16
-5.67
-4.97
-2.44
1.44
6.29
11.75
17.33
22.29
25.65
26.50
24.43
19.85
13.94
8.29
4.27
2.71
3.57
6.23
9.76
13.33
16.39
18.74
20.36
21.43
22.03
22.17
21.74
20.51
18.27
14.85
10.20
4.52
-1.92
-8.74
-15.59
-22.15
-28.17
-33.49
-38.00
-41.63
-44.45
-46.64
-48.44
-50.06
-51.51
-52.50
-52.48
-50.82
-47.13
-41.41
-34.17
-26.25
-18.45
-11.33
-5.01
0.71
6.02
10.84
14.64
16.67
16.23
13.13
7.89
1.70
-3.89
-7.46
-8.14
-5.81
-1.08
4.96
10.88
15.30
17.07
15.61
11.12
4.68
-2.02
-7.16
-9.34
-8.07
-3.85
2.12
8.47
14.14
18.64
22.00
24.49
26.36
27.59
27.97
27.21
25.11
21.77
17.57
13.23
9.64
7.65
7.89
10.55
15.32
21.47
28.05
34.13
39.01
42.21
43.41
42.44
39.28
34.22
27.95
21.50
16.03
12.44
11.01
11.30
12.39
13.31
13.43
12.67
11.49
10.47
10.00
10.07
10.27
10.13
9.31
7.80
5.94
4.13
2.63
1.46
0.43
-0.56
-1.46
-2.01
-1.99
-1.48
-0.98
-1.28
-3.03
-6.34
-10.64
-14.73
-17.28
-17.27
-14.37
-8.98
-2.03
5.38
12.26
17.87
21.81
23.89
24.13
22.65
19.74
15.91
11.83
8.21
5.75
4.81
5.37
7.02
9.13
11.12
12.56
13.33
13.49
13.10
12.16
10.47
7.75
3.82
-1.25
-7.02
-12.68
-17.33
-20.30
-21.46
-21.28
-20.68
-20.53
-21.19
-22.24
-22.68
-21.45
-18.02
-12.71
-6.51
-0.61
4.21
7.83
10.62
12.95
14.79
15.69
15.08
12.68
8.77
4.15
-0.29
-3.93
-6.61
-8.52
-9.99
-11.22
-12.19
-12.68
-12.44
-11.34
-9.44
-6.99
-4.31
-1.62
1.03
3.70
6.40
8.88
10.58
10.81
9.11
5.52
0.65
-4.48
-8.99
-12.36
-14.53
-15.73
-16.08
-15.46
-13.57
-10.18
-5.32
0.64
7.15
13.74
20.11
26.10
31.47
35.77
38.32
38.46
35.91
31.01
24.83
18.83
14.49
12.53
12.80
14.22
15.21
14.43
11.28
6.04
-0.47
-7.51
-14.67
-21.85
-28.82
-34.81
-38.53
-38.76
-35.07
-28.57
-21.45
-16.18
-14.39
-16.03
-19.51
-22.66
-23.78
-22.69
-20.38
-18.37
-17.58
-17.78
-17.63
-15.66
-11.08
-4.79
1.30
5.10
5.51
3.01
-0.67
-3.64
-4.94
-5.27
-6.25
-9.28
-14.47
-20.28
-24.31
-24.74
-21.28
-15.87
-11.30
-9.85
-11.97
-16.14
-19.80
-21.04
-19.58
-17.25
-16.66
-19.69
-26.36
-34.77
-42.18
-46.46
-46.95
-44.78
-41.65
-38.73
-35.90
-31.94
-25.40
-15.65
-3.27
9.92
21.80
30.70
35.88
37.55
36.43
33.33
29.03
24.02
18.77
13.79
9.67
7.07
6.58
8.45
12.53
17.92
23.17
26.52
26.47
22.36
14.66
4.93
-4.77
-12.61
-17.64
-19.98
-20.60
-20.79
-21.50
-23.06
-25.10
-26.86
-27.57
-26.76
-24.40
-20.74
-16.17
-10.98
-5.25
0.99
7.62
14.33
20.74
26.57
31.96
37.38
43.53
50.77
58.85
66.76
73.08
76.47
76.22
72.38
65.71
57.28
48.17
39.27
31.29
24.76
20.00
16.98
15.19
13.70
11.42
7.51
1.74
-5.34
-12.63
-18.83
-22.83
-24.10
-22.85
-20.08
-17.57
-17.56
-22.12
-32.30
-47.39
-64.72
-80.39
-90.62
-93.39
-89.17
-80.70
-71.57
-64.54
-60.54
-58.56
-56.75
-53.62
-48.80
-43.06
-37.55
-32.99
-29.21
-25.29
-20.10
-12.93
-3.81
6.38
16.29
24.62
30.51
33.85
35.13
35.16
34.58
33.60
32.08
29.90
27.21
24.56
22.57
21.52
21.04
20.25
18.20
14.51
9.54
4.29
-0.08
-2.84
-3.86
-3.47
-2.19
-0.40
1.67
3.78
5.50
6.18
5.23
2.43
-1.88
-6.77
-11.23
-14.46
-16.15
-16.41
-15.50
-13.64
-10.90
-7.41
-3.69
-0.54
1.11
0.64
-1.87
-5.62
-9.44
-12.22
-13.57
-13.77
-13.60
-13.83
-14.66
-15.48
-15.01
-11.87
-5.29
4.51
16.36
28.67
40.11
50.02
58.33
65.22
70.50
73.57
73.75
70.76
65.13
58.07
50.97
44.80
39.72
35.26
30.93
26.63
22.89
20.59
20.39
22.44
26.12
30.37
34.08
36.57
37.65
37.61
36.88
35.87
34.71
33.35
31.51
28.86
25.09
20.04
13.85
7.07
0.51
-4.97
-8.72
-10.62
-10.98
-10.39
-9.45
-8.51
-7.78
-7.38
-7.52
-8.47
-10.34
-12.98
-15.82
-18.11
-19.14
-18.56
-16.46
-13.28
-9.52
-5.58
-1.57
2.59
6.97
11.47
15.70
19.03
20.63
19.71
15.60
8.03
-2.76
-15.97
-30.31
-44.30
-56.54
-66.11
-72.70
-76.49
-77.94
-77.49
-75.44
-71.82
-66.56
-59.47
-50.36
-39.08
-25.66
-10.51
5.44
20.76
33.77
42.94
47.31
46.79
42.11
34.60
25.82
17.23
9.97
4.74
1.87
1.37
2.90
5.87
9.38
12.46
14.27
14.45
13.29
11.64
10.51
10.60
12.02
14.20
16.31
17.55
17.57
16.52
14.90
13.22
11.82
10.71
9.70
8.49
6.88
4.96
3.05
1.64
1.18
1.85
3.56
6.02
8.84
11.80
14.74
17.39
19.30
19.85
18.53
15.29
10.72
5.94
2.05
-0.37
-1.57
-2.60
-4.62
-8.35
-13.59
-19.23
-23.78
-25.94
-25.20
-21.94
-17.14
-12.02
-7.58
-4.38
-2.62
-2.20
-2.95
-4.64
-6.97
-9.57
-12.03
-13.94
-15.11
-15.75
-16.48
-18.18
-21.62
-27.05
-33.93
-40.93
-46.29
-48.44
-46.48
-40.54
-31.60
-21.21
-10.97
-2.15
4.48
8.67
10.52
10.42
8.88
6.51
3.96
1.85
0.69
0.80
2.27
4.87
8.25
12.02
15.94
19.98
24.25
28.78
33.40
37.72
41.33
44.00
45.80
46.97
47.62
47.41
45.62
41.36
34.18
24.46
13.59
3.68
-3.06
-5.08
-1.98
5.33
14.88
24.25
31.26
34.48
33.42
28.44
20.44
10.54
-0.09
-10.36
-19.18
-25.69
-29.43
-30.51
-29.59
-27.54
-25.03
-22.29
-19.01
-14.72
-9.11
-2.32
5.04
12.15
18.26
22.91
26.02
27.67
27.99
27.08
25.03
21.97
18.16
14.00
9.86
6.04
2.51
-1.01
-4.88
-9.36
-14.20
-18.62
-21.35
-21.31
-17.97
-11.83
-4.38
2.53
7.40
9.56
9.31
7.14
3.59
-1.13
-6.88
-13.13
-18.82
-22.70
-23.96
-23.05
-21.42
-20.81
-22.27
-25.43
-28.64
-30.06
-28.64
-25.00
-20.80
-17.77
-16.54
-16.22
-14.99
-11.39
-5.26
1.53
6.31
6.88
2.80
-4.34
-11.69
-16.68
-18.13
-16.90
-14.76
-13.13
-12.16
-10.57
-6.70
0.23
9.45
18.58
25.02
27.15
25.25
21.17
17.36
15.62
16.48
18.89
21.03
21.12
18.14
12.24
4.63
-2.85
-8.28
-10.54
-9.55
-6.20
-1.89
2.13
5.22
7.37
8.96
10.16
10.81
10.37
8.25
4.07
-2.07
-9.61
-17.56
-24.78
-30.22
-33.22
-33.57
-31.50
-27.37
-21.57
-14.38
-6.25
2.01
9.20
13.95
15.30
13.14
8.37
2.59
-2.57
-5.99
-7.47
-7.58
-7.31
-7.50
-8.58
-10.36
-12.23
-13.47
-13.56
-12.45
-10.48
-8.28
-6.41
-5.16
-4.50
-4.13
-3.67
-2.90
-1.86
-0.88
-0.42
-0.95
-2.76
-5.89
-10.01
-14.50
-18.47
-20.94
-21.16
-18.74
-13.99
-7.88
-1.86
2.51
4.18
2.90
-0.52
-4.56
-7.45
-7.91
-5.51
-0.81
4.83
9.76
12.44
11.84
7.55
-0.09
-10.16
-21.27
-31.89
-40.80
-47.23
-50.92
-51.82
-49.77
-44.48
-35.84
-24.36
-11.50
0.47
9.14
12.63
10.07
1.58
-12.11
-29.98
-50.77
-72.65
-93.23
-109.99
-121.16
-126.59
-127.78
-127.10
-126.47
-126.32
-125.55
-122.62
-116.79
-108.95
-101.28
-95.80
-92.84
-90.60
-85.81
-75.63
-59.17
-37.98
-15.17
6.22
24.63
40.32
54.61
68.55
82.03
93.87
102.69
107.84
109.97
110.67
111.50
113.08
114.82
115.27
112.93
107.01
97.82
86.60
75.07
64.71
56.50
50.86
47.79
47.07
48.43
51.33
54.97
58.22
60.04
59.89
58.05
55.68
54.30
55.14
58.55
63.75
69.31
73.68
75.82
75.49
73.07
69.20
64.52
59.47
54.51
50.24
47.33
46.30
47.13
49.14
51.25
52.28
51.52
48.91
44.92
40.32
35.80
31.77
28.48
26.00
24.48
24.12
25.18
27.73
31.54
36.02
40.52
44.59
48.48
53.03
59.20
67.26
76.27
84.12
88.33
87.13
80.26
69.11
56.11
43.83
34.34
28.91
28.03
31.34
37.35
43.17
44.69
37.43
18.10
-13.77
-55.19
-100.31
-142.45
-176.28
-199.40
-212.24
-216.83
-215.19
-208.33
-196.48
-179.87
-159.50
-137.02
-113.94
-90.76
-66.82
-41.08
-13.22
15.46
42.30
64.16
78.43
83.75
80.09
68.86
52.53
34.13
16.68
2.19
-8.90
-17.87
-26.98
-38.21
-52.24
-68.03
-83.15
-94.72
-100.52
-99.65
-92.87
-82.22
-70.18
-58.69
-48.58
-39.65
-31.26
-23.32
-16.49
-11.82
-9.78
-9.67
-9.84
-8.56
-5.00
0.61
7.27
14.38
21.95
30.33
39.53
48.71
56.44
61.38
62.70
60.19
53.96
44.22
31.52
17.23
3.64
-6.65
-11.84
-11.84
-8.51
-4.71
-3.09
-4.99
-10.04
-16.76
-23.30
-28.22
-30.90
-31.46
-30.54
-28.93
-27.28
-25.85
-24.49
-22.84
-20.64
-18.09
-15.80
-14.54
-14.67
-15.79
-16.78
-16.26
-13.34
-8.01
-1.12
6.00
12.30
17.39
21.63
25.75
30.25
35.04
39.39
42.27
42.93
41.28
38.01
34.28
31.20
29.39
28.71
28.48
27.87
26.34
23.98
21.40
19.32
18.19
17.93
17.98
17.64
16.45
14.40
11.91
9.56
7.74
6.47
5.36
3.89
1.64
-1.36
-4.62
-7.36
-8.85
-8.76
-7.30
-4.98
-2.32
0.52
3.81
7.96
13.07
18.63
23.48
26.28
26.08
22.75
17.12
10.56
4.47
-0.17
-3.06
-4.38
-4.53
-3.79
-2.20
0.21
3.23
6.32
8.70
9.75
9.29
7.76
6.00
4.84
4.71
5.41
6.27
6.48
5.45
3.04
-0.52
-4.75
-9.12
-13.10
-16.20
-17.93
-17.82
-15.56
-11.16
-5.14
1.55
7.71
12.24
14.57
14.78
13.59
11.84
10.25
9.05
8.05
6.93
5.52
3.99
2.70
1.94
1.77
2.05
2.52
3.00
3.49
4.11
4.96
6.03
7.11
7.82
7.76
6.65
4.45
1.49
-1.56
-4.09
-5.74
-6.69
-7.55
-8.91
-10.86
-12.79
-13.52
-12.29
-8.99
-4.41
0.18
3.80
6.19
7.70
8.85
9.63
9.55
7.94
4.65
0.33
-3.68
-6.20
-6.75
-6.06
-5.39
-5.74
-7.14
-8.57
-8.50
-5.91
-0.90
5.01
9.84
12.13
11.71
9.80
8.17
8.08
9.61
11.44
11.79
9.43
4.41
-1.95
-7.81
-11.76
-13.32
-13.10
-12.12
-11.06
-9.90
-8.08
-4.91
-0.20
5.69
11.76
16.83
19.84
20.03
17.07
11.10
2.80
-6.57
-15.54
-22.80
-27.64
-30.19
-31.19
-31.52
-31.68
-31.56
-30.59
-28.22
-24.33
-19.39
-14.25
-9.72
-6.24
-3.75
-1.88
-0.30
1.11
2.18
2.59
2.20
1.12
-0.26
-1.47
-2.22
-2.53
-2.73
-3.20
-4.08
-5.15
-5.84
-5.46
-3.51
0.04
4.73
9.75
14.26
17.66
19.71
20.47
20.14
18.86
16.70
13.69
9.96
5.77
1.55
-2.28
-5.38
-7.61
-9.04
-9.90
-10.50
-11.08
-11.75
-12.45
-13.00
-13.27
-13.26
-13.16
-13.27
-13.77
-14.61
-15.44
-15.86
-15.59
-14.70
-13.57
-12.66
-12.35
-12.79
-14.10
-16.46
-20.20
-25.52
-32.18
-39.32
-45.52
-49.30
-49.73
-46.80
-41.37
-34.78
-28.24
-22.48
-17.68
-13.71
-10.43
-7.91
-6.29
-5.58
-5.53
-5.62
-5.16
-3.63
-0.82
3.04
7.41
11.64
15.18
17.73
19.30
20.08
20.33
20.22
19.79
18.99
17.80
16.34
14.89
13.82
13.35
13.46
13.84
14.05
13.77
12.98
11.98
11.25
11.15
11.77
12.96
14.46
16.15
18.14
20.67
23.93
27.77
31.74
35.20
37.58
38.68
38.68
38.03
37.17
36.30
35.34
34.02
32.12
29.64
26.82
24.04
21.71
19.89
18.43
17.05
15.53
13.86
12.24
10.93
10.08
9.49
8.71
7.25
4.88
1.77
-1.50
-4.33
-6.35
-7.73
-9.00
-10.70
-13.07
-15.78
-18.14
-19.39
-19.10
-17.46
-15.11
-12.84
-11.18
-10.18
-9.52
-8.75
-7.54
-5.98
-4.46
-3.49
-3.39
-4.15
-5.51
-6.98
-8.10
-8.59
-8.40
-7.64
-6.59
-5.50
-4.60
-3.96
-3.48
-3.02
-2.53
-2.08
-1.85
-2.02
-2.59
-3.32
-3.84
-3.86
-3.34
-2.55
-1.94
-1.84
-2.35
-3.23
-4.06
-4.43
-4.15
-3.27
-2.08
-0.93
-0.12
0.25
0.30
0.26
0.36
0.70
1.14
1.47
1.47
1.09
0.53
0.05
-0.15
-0.09
0.03
-0.05
-0.48
-1.20
-1.97
-2.55
-2.77
-2.64
-2.26
-1.79
-1.35
-0.99
-0.67
-0.34
0.01
0.29
0.29
-0.26
-1.62
-3.77
-6.34
-8.59
-9.62
-8.65
-5.32
0.23
7.42
15.41
23.39
30.69
36.83
41.49
44.47
45.72
45.31
43.56
40.90
37.80
34.67
31.75
29.21
27.22
25.94
25.54
26.03
27.19
28.58
29.62
29.78
28.77
26.54
23.27
19.32
15.15
11.21
7.92
5.59
4.37
4.21
4.97
6.44
8.45
10.86
13.50
16.17
18.63
20.59
21.86
22.33
21.97
20.77
18.63
15.33
10.63
4.39
-3.14
-11.28
-18.92
-24.82
-27.99
-28.04
-25.28
-20.68
-15.48
-10.82
-7.53
-6.08
-6.69
-9.40
-14.10
-20.40
-27.58
-34.64
-40.59
-44.73
-46.94
-47.65
-47.64
-47.62
-47.86
-47.99
-47.11
-44.22
-38.69
-30.69
-21.21
-11.85
-4.25
0.51
2.18
1.38
-0.79
-3.23
-5.18
-6.37
-6.87
-6.95
-6.89
-6.97
-7.43
-8.50
-10.32
-12.87
-15.90
-18.94
-21.49
-23.21
-24.04
-24.23
-24.09
-23.84
-23.35
-22.22
-19.87
-15.86
-10.09
-2.97
4.56
11.15
15.44
16.46
13.96
8.54
1.49
-5.63
-11.47
-15.29
-16.96
-16.88
-15.66
-13.94
-12.24
-10.95
-10.26
-10.19
-10.52
-10.95
-11.23
-11.25
-11.16
-11.10
-11.17
-11.19
-10.86
-9.88
-8.25
-6.36
-4.80
-4.09
-4.35
-5.19
-5.75
-5.12
-2.61
1.91
7.97
14.65
20.92
25.90
29.16
30.51
30.19
28.52
25.87
22.65
19.28
16.19
13.71
11.88
10.51
9.28
7.90
6.33
4.80
3.63
3.07
3.07
3.32
3.35
2.73
1.25
-1.03
-3.80
-6.57
-9.10
-11.27
-13.16
-14.93
-16.49
-17.48
-17.36
-15.65
-12.71
-9.33
-6.55
-4.96
-4.24
-3.33
-1.17
2.51
6.62
9.24
8.69
4.50
-2.19
-9.19
-14.40
-16.79
-16.89
-16.03
-15.48
-15.49
-15.28
-13.54
-9.53
-3.53
2.91
7.84
9.89
8.93
6.07
3.02
1.12
0.83
1.45
1.86
1.19
-0.60
-2.73
-4.05
-3.61
-1.00
3.35
8.61
13.76
17.95
20.65
21.67
21.20
19.75
17.94
16.44
15.66
15.72
16.31
16.94
17.07
16.45
15.14
13.51
12.01
10.95
10.42
10.29
10.39
10.59
10.83
10.98
10.81
10.02
8.45
6.24
3.80
1.72
0.30
-0.57
-1.48
-3.16
-5.97
-9.68
-13.39
-15.94
-16.27
-13.86
-8.83
-1.92
5.72
12.66
17.43
18.88
16.44
10.41
1.95
-7.27
-15.75
-22.54
-27.54
-31.10
-33.65
-35.22
-35.51
-34.14
-31.09
-26.82
-22.07
-17.46
-13.23
-9.29
-5.57
-2.24
0.18
1.21
0.81
-0.44
-1.55
-1.65
-0.52
1.26
2.57
2.40
0.34
-3.08
-6.65
-8.95
-8.90
-6.08
-0.88
5.74
12.51
18.17
21.79
22.90
21.62
18.54
14.54
10.42
6.70
3.50
0.62
-2.24
-5.24
-8.22
-10.76
-12.27
-12.23
-10.32
-6.67
-1.79
3.42
7.85
10.51
10.73
8.45
4.22
-0.93
-5.80
-9.39
-11.13
-10.97
-9.31
-6.83
-4.18
-1.87
-0.17
0.95
1.72
2.49
3.62
5.40
7.92
11.04
14.39
17.46
19.74
20.84
20.54
18.83
15.88
11.96
7.45
2.83
-1.39
-4.71
-6.80
-7.60
-7.31
-6.39
-5.27
-4.20
-3.07
-1.59
0.55
3.34
6.34
8.73
9.75
9.10
7.15
4.86
3.30
3.10
4.19
5.60
6.07
4.56
0.74
-4.92
-11.35
-17.33
-21.88
-24.55
-25.34
-24.48
-22.29
-19.04
-15.08
-10.89
-7.03
-4.15
-2.71
-2.74
-3.90
-5.53
-7.03
-8.04
-8.47
-8.53
-8.48
-8.46
-8.43
-8.27
-7.80
-6.85
-5.22
-2.85
0.16
3.42
6.30
8.11
8.33
6.94
4.45
1.70
-0.49
-1.63
-1.74
-1.19
-0.50
-0.04
0.11
0.06
-0.01
-0.02
0.04
0.11
0.24
0.54
1.20
2.26
3.55
4.73
5.39
5.27
4.35
2.82
1.08
-0.52
-1.70
-2.31
-2.42
-2.16
-1.79
-1.52
-1.38
-1.25
-0.88
-0.08
1.12
2.42
3.39
3.63
3.00
1.65
-0.10
-1.96
-3.78
-5.57
-7.43
-9.43
-11.56
-13.78
-16.03
-18.23
-20.16
-21.40
-21.31
-19.23
-14.67
-7.72
0.82
9.57
16.88
21.46
22.82
21.48
18.78
16.21
14.80
14.66
15.02
14.72
12.80
9.04
4.14
-0.62
-4.02
-5.39
-5.03
-3.86
-3.09
-3.49
-4.95
-6.65
-7.44
-6.53
-3.97
-0.65
2.14
3.39
2.82
0.94
-1.37
-3.37
-4.84
-5.94
-6.92
-7.70
-7.78
-6.54
-3.69
0.33
4.43
7.31
8.15
7.04
5.05
3.68
4.14
6.69
10.47
13.95
15.64
14.79
11.70
7.47
3.45
0.60
-0.85
-1.34
-1.56
-2.06
-2.92
-3.88
-4.59
-4.91
-5.00
-5.25
-5.95
-7.10
-8.33
-9.12
-9.16
-8.49
-7.55
-6.90
-6.92
-7.52
-8.24
-8.50
-7.96
-6.72
-5.29
-4.34
-4.37
-5.46
-7.16
-8.76
-9.50
-8.93
-7.00
-4.00
-0.42
3.22
6.55
9.21
10.86
11.18
9.97
7.31
3.68
-0.17
-3.41
-5.46
-6.25
-6.12
-5.72
-5.53
-5.71
-5.86
-5.27
-3.20
0.67
5.98
11.68
16.36
18.84
18.61
16.09
12.38
8.84
6.45
5.50
5.58
5.92
5.81
4.94
3.40
1.55
-0.26
-1.82
-3.11
-4.15
-4.90
-5.17
-4.69
-3.33
-1.15
1.41
3.75
5.25
5.62
4.93
3.60
2.13
0.87
-0.15
-1.13
-2.18
-3.17
-3.67
-3.26
-1.90
-0.10
1.24
1.31
-0.07
-2.19
-3.90
-4.11
-2.53
0.17
2.73
4.03
3.65
2.03
-0.14
-2.26
-4.20
-6.14
-8.11
-9.80
-10.68
-10.41
-9.41
-8.57
-8.84
-10.52
-12.92
-14.62
-14.30
-11.44
-6.79
-1.85
1.93
3.82
4.15
3.91
4.09
5.18
6.55
7.13
5.97
2.88
-1.29
-5.04
-7.08
-6.91
-5.42
-4.13
-4.33
-6.24
-8.87
-10.55
-10.09
-7.39
-3.83
-1.33
-1.28
-3.72
-7.29
-9.95
-10.09
-7.30
-2.73
1.66
3.97
3.27
-0.03
-4.46
-8.22
-9.86
-9.01
-6.24
-2.65
0.73
3.40
5.47
7.36
9.46
11.67
13.53
14.46
14.15
12.73
10.71
8.72
7.26
6.37
5.78
5.17
4.34
3.39
2.65
2.47
2.99
4.06
5.28
6.18
6.45
6.01
5.02
3.70
2.25
0.79
-0.64
-2.04
-3.47
-5.09
-7.10
-9.67
-12.77
-16.09
-19.01
-20.85
-21.05
-19.40
-16.04
-11.32
-5.65
0.57
6.87
12.61
17.06
19.55
19.84
18.27
15.78
13.52
12.36
12.53
13.57
14.53
14.61
13.46
11.45
9.45
8.35
8.59
9.94
11.69
12.96
13.19
12.37
10.99
9.68
8.88
8.57
8.28
7.40
5.47
2.49
-1.12
-4.68
-7.58
-9.47
-10.30
-10.17
-9.18
-7.32
-4.51
-0.78
3.59
8.06
11.89
14.43
15.34
14.67
12.81
10.37
7.94
5.93
4.51
3.65
3.17
2.94
2.87
2.89
2.95
2.88
2.48
1.57
0.16
-1.42
-2.64
-2.95
-2.11
-0.36
1.57
2.70
2.23
-0.15
-4.15
-9.01
-13.84
-17.92
-20.85
-22.47
-22.75
-21.60
-19.00
-15.08
-10.29
-5.40
-1.26
1.54
2.93
3.46
3.87
4.73
6.07
7.34
7.77
6.84
4.64
2.00
-0.05
-0.73
0.01
1.50
2.73
2.91
1.91
0.27
-1.30
-2.27
-2.68
-3.01
-3.82
-5.31
-7.26
-9.15
-10.66
-11.80
-12.86
-14.01
-14.96
-14.93
-13.13
-9.25
-3.97
1.36
5.31
7.14
7.21
6.70
6.83
8.24
10.49
12.49
13.17
12.11
9.67
6.71
3.98
1.84
0.08
-1.62
-3.35
-4.83
-5.57
-5.21
-3.83
-1.90
-0.13
0.96
1.26
1.03
0.69
0.45
0.29
0.01
-0.57
-1.40
-2.16
-2.53
-2.40
-1.99
-1.72
-1.94
-2.74
-3.85
-4.89
-5.57
-5.80
-5.69
-5.31
-4.51
-2.99
-0.49
2.92
6.73
10.14
12.40
13.14
12.57
11.28
9.87
8.65
7.49
6.09
4.25
2.22
0.64
0.24
1.35
3.66
6.31
8.26
8.86
8.12
6.71
5.47
5.00
5.34
6.03
6.38
5.84
4.30
2.08
-0.34
-2.50
-4.24
-5.74
-7.30
-9.15
-11.28
-13.32
-14.70
-14.88
-13.60
-11.03
-7.63
-4.02
-0.67
2.24
4.76
7.04
9.11
10.75
11.62
11.39
9.94
7.55
4.80
2.40
0.87
0.32
0.46
0.73
0.64
0.03
-0.86
-1.54
-1.56
-0.84
0.37
1.53
2.20
2.20
1.72
1.06
0.40
-0.40
-1.67
-3.65
-6.28
-8.97
-11.04
-11.93
-11.64
-10.75
-10.03
-10.00
-10.56
-10.95
-10.16
-7.50
-3.00
2.54
7.95
12.16
14.69
15.70
15.76
15.42
14.85
13.82
12.00
9.32
6.13
3.17
1.16
0.43
0.73
1.37
1.64
1.13
-0.02
-1.24
-1.86
-1.49
-0.16
1.63
3.18
3.88
3.46
2.07
0.22
-1.53
-2.74
-3.29
-3.42
-3.55
-4.06
-5.16
-6.82
-8.79
-10.75
-12.41
-13.47
-13.65
-12.64
-10.11
-5.89
-0.12
6.62
13.31
18.76
22.01
22.71
21.33
18.83
16.22
14.07
12.26
10.20
7.36
3.74
-0.01
-2.92
-4.26
-4.00
-2.86
-1.87
-1.77
-2.64
-3.90
-4.75
-4.74
-3.98
-3.10
-2.77
-3.26
-4.29
-5.17
-5.34
-4.68
-3.62
-2.89
-3.04
-4.07
-5.38
-6.14
-5.72
-4.10
-1.76
0.54
2.34
3.59
4.74
6.28
8.48
11.10
13.53
15.11
15.37
14.25
11.98
8.76
4.70
-0.27
-6.14
-12.57
-18.78
-23.72
-26.49
-26.83
-25.28
-22.93
-20.89
-19.80
-19.53
-19.38
-18.50
-16.42
-13.22
-9.46
-5.88
-3.18
-1.91
-2.47
-5.07
-9.82
-16.34
-23.83
-31.03
-36.52
-39.04
-37.95
-33.30
-26.14
-17.84
-9.72
-2.48
4.00
10.44
17.51
25.24
32.53
37.74
39.45
37.26
32.18
26.12
20.92
17.47
15.21
12.92
9.55
5.08
0.66
-2.08
-2.03
0.68
4.40
7.01
7.00
4.32
0.42
-2.58
-3.17
-1.20
1.77
3.57
2.62
-1.22
-6.59
-11.44
-14.20
-14.50
-13.36
-12.31
-12.44
-13.73
-15.08
-14.87
-11.85
-5.59
3.20
13.04
22.25
29.40
33.76
35.36
34.89
33.37
31.62
29.99
28.30
26.01
22.66
18.29
13.52
9.37
6.65
5.64
5.83
6.28
6.02
4.64
2.43
0.20
-1.20
-1.32
-0.38
0.81
1.33
0.57
-1.51
-4.36
-7.16
-9.27
-10.41
-10.68
-10.34
-9.50
-8.04
-5.70
-2.39
1.63
5.73
9.13
11.22
11.80
11.07
9.48
7.54
5.61
3.91
2.55
1.54
0.87
0.46
0.15
-0.21
-0.71
-1.35
-2.03
-2.72
-3.40
-4.12
-4.88
-5.61
-6.20
-6.61
-6.97
-7.51
-8.49
-10.03
-12.00
-14.05
-15.82
-17.03
-17.59
-17.52
-16.82
-15.41
-13.13
-9.91
-5.88
-1.48
2.62
5.75
7.44
7.64
6.73
5.38
4.20
3.51
3.20
2.86
2.11
0.89
-0.42
-1.19
-0.95
0.38
2.33
4.19
5.36
5.66
5.36
4.92
4.65
4.47
3.96
2.61
0.17
-3.16
-6.75
-9.85
-11.88
-12.68
-12.55
-12.01
-11.52
-11.16
-10.56
-9.08
-6.14
-1.46
4.66
11.47
17.98
23.29
26.87
28.64
28.85
27.89
26.12
23.74
20.89
17.77
14.70
12.01
9.96
8.51
7.34
5.99
4.12
1.68
-1.02
-3.60
-5.70
-7.18
-8.10
-8.61
-8.75
-8.53
-7.91
-7.11
-6.50
-6.54
-7.47
-9.09
-10.76
-11.65
-11.14
-9.32
-6.85
-4.71
-3.64
-3.71
-4.34
-4.67
-4.09
-2.81
-1.64
-1.50
-2.80
-5.09
-7.29
-8.23
-7.32
-4.95
-2.16
-0.10
0.64
0.26
-0.44
-0.57
0.41
2.36
4.70
6.72
7.85
7.87
6.84
5.05
2.93
0.88
-0.81
-2.03
-2.92
-3.82
-5.02
-6.65
-8.52
-10.27
-11.59
-12.46
-13.18
-14.20
-15.84
-18.04
-20.30
-21.86
-22.05
-20.67
-18.06
-15.06
-12.59
-11.25
-10.96
-11.12
-10.89
-9.66
-7.39
-4.57
-1.88
0.20
1.64
2.76
3.99
5.51
7.19
8.67
9.62
9.95
9.81
9.47
9.16
8.93
8.74
8.48
8.10
7.66
7.32
7.15
7.10
6.86
5.99
4.11
1.13
-2.66
-6.65
-10.18
-12.80
-14.44
-15.31
-15.66
-15.53
-14.68
-12.73
-9.43
-4.95
0.10
4.81
8.40
10.47
11.21
11.21
11.19
11.60
12.44
13.29
13.64
13.12
11.82
10.22
8.92
8.37
8.64
9.39
10.17
10.57
10.47
10.02
9.53
9.22
9.10
8.97
8.56
7.67
6.35
4.84
3.46
2.39
1.54
0.63
-0.67
-2.46
-4.47
-6.11
-6.76
-6.06
-4.15
-1.57
1.00
3.11
4.71
6.13
7.82
9.98
12.43
14.57
15.73
15.35
13.28
9.86
5.72
1.66
-1.65
-3.79
-4.64
-4.35
-3.23
-1.62
0.19
1.97
3.58
4.85
5.60
5.64
4.85
3.32
1.27
-0.93
-2.97
-4.70
-6.15
-7.42
-8.50
-9.22
-9.32
-8.60
-7.15
-5.24
-3.23
-1.27
0.73
3.04
5.72
8.47
10.67
11.62
10.97
8.87
5.96
3.04
0.72
-0.74
-1.45
-1.68
-1.65
-1.46
-1.13
-0.68
-0.21
0.16
0.27
0.07
-0.46
-1.25
-2.19
-3.15
-4.00
-4.67
-5.22
-5.80
-6.65
-7.88
-9.42
-11.00
-12.24
-12.85
-12.80
-12.20
-11.21
-9.84
-7.88
-5.10
-1.44
2.77
6.84
9.97
11.55
11.41
9.89
7.64
5.34
3.46
2.18
1.40
0.94
0.64
0.47
0.47
0.65
0.90
1.07
0.97
0.53
-0.09
-0.57
-0.61
-0.13
0.59
1.03
0.66
-0.79
-3.14
-5.85
-8.38
-10.39
-11.84
-12.88
-13.60
-13.80
-13.06
-10.94
-7.35
-2.74
2.05
6.09
8.76
9.93
9.96
9.47
9.00
8.79
8.75
8.58
7.99
6.90
5.55
4.47
4.02
4.40
5.36
6.33
6.73
6.28
5.13
3.84
2.72
1.83
0.90
-0.44
-2.16
-3.77
-4.65
-4.43
-3.63
-3.38
-4.83
-8.38
-13.28
-17.89
-20.48
-20.18
-17.42
-13.49
-9.74
-6.79
-4.33
-1.50
2.24
6.73
10.86
13.31
13.27
10.86
7.04
3.16
0.24
-1.23
-1.47
-0.99
-0.19
0.81
2.11
3.85
5.95
8.12
9.80
10.53
10.13
8.76
6.84
4.79
2.86
1.15
-0.48
-2.15
-3.97
-6.00
-8.30
-10.80
-13.30
-15.35
-16.44
-16.21
-14.70
-12.35
-9.80
-7.51
-5.58
-3.70
-1.42
1.51
4.92
8.38
11.34
13.41
14.47
14.58
13.88
12.47
10.40
7.76
4.79
1.92
-0.35
-1.53
-1.43
-0.22
1.54
3.17
4.06
4.00
3.19
2.13
1.35
1.11
1.32
1.60
1.50
0.76
-0.60
-2.35
-4.17
-5.86
-7.42
-8.95
-10.55
-12.14
-13.42
-13.96
-13.40
-11.60
-8.71
-5.13
-1.38
2.08
4.95
7.12
8.64
9.57
9.92
9.62
8.53
6.58
3.90
0.91
-1.82
-3.70
-4.45
-4.17
-3.33
-2.52
-2.15
-2.33
-2.87
-3.49
-4.03
-4.51
-5.09
-5.89
-6.86
-7.79
-8.46
-8.84
-9.16
-9.81
-11.16
-13.33
-16.05
-18.70
-20.62
-21.30
-20.57
-18.65
-15.89
-12.61
-8.91
-4.75
-0.11
4.73
9.22
12.65
14.45
14.54
13.35
11.70
10.32
9.59
9.37
9.18
8.52
7.22
5.51
4.00
3.22
3.41
4.40
5.68
6.72
7.23
7.25
7.07
6.90
6.78
6.47
5.71
4.33
2.50
0.52
-1.23
-2.69
-3.94
-5.11
-6.11
-6.60
-6.04
-4.10
-0.85
3.11
6.89
9.75
11.35
11.96
12.11
12.37
12.96
13.55
13.60
12.59
10.44
7.57
4.80
2.87
2.23
2.65
3.46
3.95
3.67
2.74
1.69
1.10
1.34
2.21
3.17
3.63
3.30
2.30
1.07
0.03
-0.63
-1.12
-1.84
-3.19
-5.22
-7.63
-9.90
-11.47
-11.99
-11.50
-10.33
-8.92
-7.64
-6.60
-5.68
-4.65
-3.24
-1.39
0.78
3.01
4.97
6.38
7.08
7.10
6.68
6.11
5.66
5.40
5.21
4.82
4.04
2.93
1.81
1.14
1.21
1.96
2.98
3.73
3.83
3.21
2.18
1.08
0.06
-0.99
-2.39
-4.37
-6.92
-9.63
-11.91
-13.20
-13.20
-11.95
-9.78
-7.09
-4.27
-1.57
0.86
2.91
4.49
5.44
5.61
4.95
3.51
1.58
-0.42
-2.01
-2.84
-2.82
-2.15
-1.23
-0.46
-0.09
-0.04
-0.08
0.01
0.33
0.68
0.78
0.35
-0.64
-1.95
-3.22
-4.14
-4.64
-4.94
-5.34
-6.14
-7.33
-8.59
-9.39
-9.22
-7.84
-5.40
-2.32
0.89
3.88
6.63
9.29
11.95
14.47
16.38
17.17
16.53
14.62
12.07
9.67
7.93
6.96
6.40
5.76
4.79
3.55
2.44
1.82
1.82
2.23
2.60
2.52
1.77
0.47
-1.08
-2.54
-3.73
-4.71
-5.73
-7.04
-8.71
-10.50
-11.88
-12.31
-11.38
-9.14
-6.08
-2.87
-0.04
2.20
4.08
5.90
7.82
9.61
10.76
10.74
9.34
6.83
3.86
1.15
-0.80
-1.82
-2.06
-1.78
-1.25
-0.62
0.02
0.59
1.00
1.15
1.00
0.56
-0.12
-1.03
-2.14
-3.47
-5.01
-6.71
-8.46
-10.17
-11.74
-13.10
-14.13
-14.75
-14.95
-14.78
-14.39
-13.88
-13.23
-12.24
-10.50
-7.68
-3.69
1.15
6.21
10.75
14.15
16.02
16.22
14.74
11.59
6.79
0.44
-7.24
-15.76
-24.44
-32.34
-38.50
-42.00
-42.25
-39.07
-32.79
-24.22
-14.49
-4.72
4.05
11.09
15.99
18.72
19.59
19.19
18.28
17.47
17.08
17.00
16.78
15.93
14.19
11.68
8.92
6.53
4.98
4.33
4.32
4.48
4.40
3.91
3.09
2.17
1.30
0.46
-0.52
-1.80
-3.42
-5.15
-6.55
-7.27
-7.21
-6.69
-6.36
-6.78
-8.09
-9.79
-10.91
-10.67
-8.81
-5.78
-2.53
0.18
2.15
3.67
5.17
6.49
6.90
5.43
1.60
-4.07
-10.16
-14.96
-17.37
-17.34
-15.71
-13.50
-11.33
-9.11
-6.29
-2.41
2.55
7.84
12.49
15.69
17.19
17.38
16.98
16.61
16.53
16.15
14.67
11.45
6.57
1.03
-3.59
-5.89
-5.32
-2.71
0.32
2.10
1.89
0.21
-1.53
-1.96
-0.55
1.95
4.10
4.60
3.11
0.39
-2.21
-3.66
-3.69
-3.11
-3.03
-4.14
-6.25
-8.30
-8.97
-7.35
-3.30
2.38
8.49
13.97
18.18
21.01
22.66
23.33
23.16
22.13
20.21
17.53
14.31
10.83
7.37
4.16
1.43
-0.62
-1.86
-2.30
-2.16
-1.80
-1.58
-1.69
-2.06
-2.44
-2.57
-2.34
-1.90
-1.51
-1.48
-1.98
-3.00
-4.42
-6.08
-7.80
-9.47
-10.96
-12.04
-12.44
-11.82
-9.91
-6.68
-2.44
2.16
6.31
9.27
10.69
10.75
10.00
9.10
8.46
8.02
7.38
6.05
3.87
1.12
-1.56
-3.48
-4.24
-3.92
-3.00
-2.10
-1.69
-1.89
-2.49
-3.22
-3.84
-4.33
-4.83
-5.51
-6.43
-7.52
-8.59
-9.51
-10.27
-11.00
-11.81
-12.72
-13.43
-13.45
-12.19
-9.34
-5.00
0.23
5.40
9.60
12.28
13.44
13.49
13.00
12.38
11.72
10.89
9.78
8.47
7.27
6.49
6.18
6.11
5.90
5.23
4.17
3.08
2.42
2.49
3.17
4.00
4.42
4.02
2.71
0.75
-1.39
-3.32
-4.82
-5.93
-6.92
-8.02
-9.31
-10.53
-11.22
-11.00
-9.71
-7.58
-5.08
-2.64
-0.47
1.53
3.60
5.88
8.15
9.89
10.55
9.80
7.82
5.21
2.88
1.47
1.21
1.82
2.72
3.42
3.75
3.97
4.52
5.54
6.77
7.54
7.20
5.49
2.76
-0.19
-2.51
-3.82
-4.30
-4.55
-5.08
-6.03
-7.09
-7.78
-7.85
-7.59
-7.66
-8.70
-10.87
-13.60
-15.79
-16.32
-14.57
-10.84
-6.07
-1.44
2.20
4.65
6.24
7.49
8.79
9.98
10.65
10.34
8.90
6.62
4.13
2.13
1.13
1.15
1.90
2.85
3.53
3.79
3.76
3.82
4.32
5.30
6.46
7.26
7.17
6.00
3.99
1.72
-0.16
-1.24
-1.59
-1.64
-1.97
-3.07
-5.04
-7.64
-10.29
-12.36
-13.36
-13.13
-11.86
-9.92
-7.74
-5.50
-3.13
-0.42
2.76
6.25
9.56
12.04
13.26
13.17
12.19
10.89
9.71
8.74
7.71
6.30
4.41
2.31
0.56
-0.32
-0.16
0.79
2.01
2.99
3.45
3.40
3.07
2.62
2.04
1.14
-0.30
-2.32
-4.69
-6.96
-8.68
-9.60
-9.84
-9.77
-9.88
-10.53
-11.83
-13.57
-15.33
-16.65
-17.12
-16.57
-14.97
-12.45
-9.21
-5.43
-1.25
3.13
7.49
11.45
14.57
16.46
16.89
15.91
13.89
11.38
8.88
6.77
5.15
3.90
2.78
1.62
0.44
-0.53
-0.99
-0.71
0.26
1.65
3.04
4.10
4.75
5.09
5.25
5.17
4.58
3.11
0.54
-2.96
-6.82
-10.41
-13.29
-15.49
-17.41
-19.51
-21.87
-24.09
-25.35
-24.90
-22.40
-18.15
-12.94
-7.69
-3.05
0.73
3.76
6.24
8.19
9.42
9.61
8.56
6.41
3.60
0.79
-1.45
-2.82
-3.37
-3.37
-3.16
-2.98
-2.89
-2.79
-2.53
-2.01
-1.22
-0.26
0.70
1.49
1.95
2.02
1.74
1.19
0.46
-0.40
-1.43
-2.70
-4.25
-5.98
-7.68
-9.07
-9.92
-10.14
-9.77
-8.96
-7.79
-6.20
-4.02
-1.11
2.48
6.42
10.20
13.28
15.39
16.59
17.17
17.44
17.46
17.03
15.84
13.75
10.95
8.02
5.64
4.29
4.00
4.44
5.05
5.37
5.28
4.95
4.70
4.80
5.24
5.82
6.20
6.08
5.38
4.22
2.82
1.39
0.06
-1.21
-2.50
-3.85
-5.13
-6.12
-6.53
-6.18
-5.06
-3.32
-1.19
1.16
3.63
6.18
8.73
11.05
12.78
13.55
13.15
11.68
9.50
7.08
4.82
2.92
1.36
0.05
-1.03
-1.78
-2.00
-1.52
-0.36
1.18
2.62
3.44
3.37
2.41
0.96
-0.54
-1.68
-2.36
-2.81
-3.37
-4.28
-5.55
-6.90
-8.19
-9.33
-10.41
-11.41
-12.00
-11.50
-9.27
-5.09
0.32
5.63
9.39
10.77
9.94
7.94
6.02
4.91
4.32
3.40
1.32
-2.08
-6.02
-9.16
-10.37
-9.30
-6.91
-4.70
-3.98
-5.10
-7.26
-8.92
-8.87
-6.83
-3.93
-1.92
-2.18
-4.95
-9.12
-12.92
-14.88
-14.60
-12.99
-11.47
-11.10
-11.83
-12.60
-11.98
-9.03
-3.79
2.64
8.81
13.57
16.48
17.84
18.20
18.02
17.51
16.54
14.96
12.76
10.14
7.40
4.84
2.67
1.09
0.10
-0.36
-0.49
-0.61
-1.00
-1.85
-3.14
-4.64
-6.02
-7.11
-7.88
-8.56
-9.41
-10.64
-12.23
-13.94
-15.46
-16.51
-16.97
-16.84
-16.20
-15.07
-13.30
-10.68
-7.06
-2.51
2.55
7.43
11.40
13.93
14.85
14.40
13.08
11.38
9.67
8.02
6.34
4.54
2.67
0.95
-0.29
-0.77
-0.47
0.38
1.33
1.94
1.94
1.36
0.43
-0.55
-1.45
-2.30
-3.30
-4.62
-6.29
-8.20
-10.20
-12.14
-13.97
-15.69
-17.25
-18.49
-19.10
-18.74
-17.11
-14.16
-10.08
-5.38
-0.68
3.42
6.49
8.42
9.33
9.46
9.02
8.15
6.96
5.55
4.07
2.71
1.64
0.88
0.37
-0.04
-0.44
-0.80
-1.00
-0.88
-0.32
0.63
1.72
2.63
2.97
2.54
1.35
-0.32
-2.06
-3.50
-4.49
-5.16
-5.82
-6.76
-8.05
-9.35
-10.14
-9.86
-8.20
-5.29
-1.60
2.31
6.00
9.36
12.37
15.05
17.20
18.48
18.61
17.52
15.53
13.20
11.03
9.35
8.14
7.22
6.44
5.89
5.80
6.47
7.85
9.61
11.20
12.08
12.05
11.33
10.38
9.71
9.38
9.13
8.51
7.19
5.21
2.94
0.89
-0.63
-1.71
-2.67
-3.79
-5.03
-5.95
-5.94
-4.57
-1.81
1.78
5.38
8.32
10.28
11.43
12.20
12.89
13.56
13.84
13.27
11.56
8.81
5.53
2.43
0.11
-1.11
-1.33
-0.96
-0.45
-0.13
-0.12
-0.33
-0.61
-0.78
-0.87
-1.03
-1.44
-2.28
-3.58
-5.24
-7.08
-8.87
-10.50
-11.91
-13.10
-14.03
-14.61
-14.65
-13.88
-12.03
-9.05
-5.11
-0.70
3.55
6.96
9.13
9.94
9.67
8.74
7.53
6.26
4.88
3.24
1.24
-0.99
-3.11
-4.66
-5.30
-4.92
-3.76
-2.26
-0.87
0.06
0.48
0.54
0.48
0.44
0.41
0.24
-0.31
-1.39
-2.98
-4.90
-6.87
-8.63
-10.03
-10.95
-11.33
-11.03
-9.83
-7.52
-4.08
0.25
4.91
9.25
12.64
14.75
15.58
15.35
14.33
12.69
10.50
7.79
4.68
1.53
-1.19
-3.01
-3.70
-3.40
-2.54
-1.63
-1.14
-1.23
-1.74
-2.39
-2.89
-3.11
-3.18
-3.26
-3.57
-4.14
-4.84
-5.54
-6.18
-6.90
-7.98
-9.65
-11.95
-14.60
-16.97
-18.36
-18.23
-16.37
-13.05
-8.84
-4.42
-0.30
3.31
6.47
9.27
11.62
13.14
13.33
11.88
8.93
5.15
1.51
-1.21
-2.67
-3.12
-3.08
-2.97
-2.89
-2.54
-1.56
0.13
2.21
4.01
4.87
4.42
2.73
0.28
-2.34
-4.64
-6.47
-7.93
-9.26
-10.71
-12.34
-14.04
-15.62
-16.88
-17.76
-18.28
-18.50
-18.35
-17.65
-16.03
-13.23
-9.20
-4.26
0.90
5.49
8.81
10.55
10.89
10.30
9.33
8.28
7.13
5.69
3.77
1.46
-0.87
-2.66
-3.47
-3.16
-2.00
-0.53
0.73
1.46
1.73
1.82
2.02
2.38
2.69
2.61
1.93
0.74
-0.53
-1.36
-1.50
-1.12
-0.75
-0.99
-2.18
-4.15
-6.30
-7.82
-8.10
-6.91
-4.47
-1.30
2.06
5.22
8.10
10.81
13.55
16.41
19.29
21.92
23.94
25.08
25.27
24.60
23.20
21.19
18.62
15.52
12.11
8.80
6.16
4.65
4.41
5.14
6.21
6.97
7.05
6.52
5.74
5.11
4.77
4.52
3.98
2.82
1.05
-1.10
-3.23
-5.10
-6.68
-8.06
-9.31
-10.29
-10.58
-9.71
-7.43
-3.84
0.48
4.74
8.15
10.27
11.10
11.06
10.64
10.14
9.52
8.44
6.58
3.97
1.05
-1.43
-2.99
-3.54
-3.53
-3.54
-3.92
-4.48
-4.71
-4.18
-3.13
-2.26
-2.40
-3.92
-6.34
-8.59
-9.67
-9.22
-8.03
-7.38
-8.35
-11.09
-14.61
-17.26
-17.61
-15.15
-10.68
-5.72
-1.68
0.86
2.40
4.01
6.53
10.00
13.26
14.84
13.71
10.06
5.28
1.27
-0.57
0.05
2.03
3.80
4.13
2.85
0.76
-0.89
-1.27
-0.24
1.45
2.75
2.91
1.80
-0.10
-2.06
-3.52
-4.30
-4.72
-5.33
-6.61
-8.74
-11.52
-14.47
-16.97
-18.42
-18.45
-16.93
-14.04
-10.19
-5.92
-1.69
2.16
5.48
8.20
10.22
11.31
11.22
9.81
7.26
4.06
0.94
-1.44
-2.70
-2.90
-2.42
-1.71
-1.10
-0.65
-0.15
0.60
1.63
2.69
3.32
3.10
1.93
0.13
-1.66
-2.81
-3.00
-2.46
-1.83
-1.89
-3.11
-5.39
-8.13
-10.41
-11.44
-10.84
-8.71
-5.52
-1.84
1.81
5.09
7.73
9.48
10.12
9.46
7.51
4.53
1.01
-2.41
-5.16
-6.86
-7.46
-7.23
-6.63
-6.09
-5.86
-5.84
-5.72
-5.15
-3.97
-2.39
-0.84
0.20
0.42
-0.18
-1.35
-2.74
-4.07
-5.25
-6.32
-7.44
-8.78
-10.35
-12.01
-13.46
-14.34
-14.40
-13.55
-11.86
-9.46
-6.43
-2.79
1.35
5.67
9.58
12.39
13.55
12.97
11.06
8.55
6.19
4.40
3.18
2.25
1.36
0.50
-0.05
0.10
1.18
3.05
5.19
6.95
7.85
7.78
7.09
6.27
5.75
5.64
5.71
5.59
4.99
3.89
2.51
1.03
-0.44
-1.97
-3.68
-5.49
-7.01
-7.65
-6.90
-4.68
-1.39
2.15
5.13
7.03
7.87
8.02
7.96
7.90
7.77
7.30
6.24
4.59
2.64
0.74
-0.77
-1.94
-3.00
-4.20
-5.52
-6.64
-7.02
-6.31
-4.56
-2.45
-0.92
-0.72
-1.99
-4.16
-6.26
-7.43
-7.40
-6.72
-6.33
-7.02
-8.96
-11.51
-13.62
-14.31
-13.09
-10.22
-6.31
-2.06
2.15
6.21
10.14
13.86
17.14
19.60
20.95
21.14
20.37
18.95
17.21
15.30
13.30
11.17
8.87
6.43
3.92
1.49
-0.68
-2.39
-3.43
-3.68
-3.14
-1.98
-0.52
0.82
1.67
1.79
1.19
0.08
-1.30
-2.75
-4.19
-5.63
-7.03
-8.15
-8.62
-8.04
-6.24
-3.43
-0.21
2.69
4.69
5.53
5.39
4.69
3.82
3.00
2.17
1.14
-0.20
-1.75
-3.14
-3.88
-3.66
-2.51
-0.90
0.52
1.15
0.80
-0.22
-1.34
-2.01
-2.05
-1.75
-1.64
-2.27
-3.82
-6.04
-8.46
-10.67
-12.55
-14.34
-16.40
-18.87
-21.49
-23.57
-24.28
-23.02
-19.70
-14.80
-9.14
-3.53
1.48
5.70
9.19
12.02
14.09
15.22
15.28
14.37
12.93
11.65
11.19
11.90
13.68
16.01
18.27
19.94
20.86
21.21
21.28
21.26
21.09
20.45
18.99
16.49
13.05
9.09
5.18
1.79
-0.90
-3.05
-5.07
-7.38
-10.13
-13.08
-15.72
-17.46
-17.93
-17.14
-15.35
-12.96
-10.23
-7.21
-3.80
-0.01
3.96
7.68
10.63
12.42
12.98
12.55
11.46
9.91
7.89
5.16
1.54
-2.89
-7.68
-12.05
-15.29
-17.04
-17.44
-17.10
-16.70
-16.66
-16.98
-17.24
-16.94
-15.79
-13.93
-11.84
-10.12
-9.14
-8.89
-8.97
-8.84
-8.17
-6.95
-5.51
-4.23
-3.30
-2.53
-1.38
0.70
4.03
8.40
13.10
17.19
19.85
20.67
19.76
17.54
14.52
11.15
7.67
4.26
1.16
-1.30
-2.77
-3.10
-2.43
-1.20
-0.01
0.69
0.70
0.23
-0.32
-0.53
-0.18
0.58
1.37
1.75
1.44
0.50
-0.69
-1.66
-2.13
-2.17
-2.18
-2.63
-3.78
-5.43
-6.97
-7.60
-6.72
-4.11
-0.08
4.75
9.66
14.07
17.57
19.89
20.75
19.89
17.14
12.66
7.02
1.21
-3.65
-6.67
-7.50
-6.39
-4.05
-1.22
1.65
4.50
7.47
10.70
14.04
17.00
19.06
19.90
19.58
18.56
17.29
16.07
14.88
13.49
11.76
9.75
7.72
5.96
4.50
3.07
1.37
-0.73
-2.88
-4.40
-4.62
-3.18
-0.46
2.63
4.98
5.76
4.77
2.46
-0.28
-2.54
-3.99
-4.75
-5.33
-6.23
-7.52
-8.83
-9.59
-9.41
-8.60
-7.95
-8.33
-10.13
-12.95
-15.77
-17.53
-17.74
-16.90
-15.98
-15.78
-16.34
-16.80
-15.95
-13.13
-8.69
-4.13
-1.21
-0.99
-3.19
-6.31
-8.43
-8.26
-5.67
-1.79
1.82
4.03
4.65
4.34
4.00
4.20
4.90
5.50
5.41
4.39
2.72
0.94
-0.48
-1.34
-1.73
-1.91
-2.09
-2.29
-2.38
-2.22
-1.73
-1.01
-0.18
0.51
0.89
0.76
0.01
-1.44
-3.56
-6.20
-9.12
-11.99
-14.54
-16.59
-18.00
-18.66
-18.39
-16.95
-14.12
-9.83
-4.33
1.77
7.62
12.34
15.31
16.28
15.47
13.40
10.72
7.99
5.55
3.53
1.95
0.80
0.11
-0.02
0.44
1.39
2.64
3.85
4.72
4.99
4.61
3.64
2.29
0.75
-0.83
-2.46
-4.19
-6.08
-8.10
-10.15
-12.03
-13.60
-14.79
-15.58
-15.91
-15.61
-14.38
-11.90
-8.04
-2.94
2.90
8.75
13.88
17.70
19.91
20.56
19.89
18.22
15.89
13.11
10.08
6.98
4.09
1.71
0.08
-0.73
-0.87
-0.60
-0.16
0.42
1.35
2.89
5.19
8.07
11.00
13.28
14.35
13.99
12.38
9.92
7.00
3.85
0.51
-3.02
-6.60
-9.85
-12.25
-13.34
-12.89
-11.01
-8.09
-4.58
-0.87
2.82
6.42
9.80
12.76
14.98
16.18
16.28
15.47
14.16
12.85
11.85
11.21
10.73
10.08
8.99
7.44
5.61
3.92
2.67
1.98
1.67
1.38
0.80
-0.11
-1.12
-1.83
-2.08
-2.05
-2.26
-3.24
-5.13
-7.49
-9.43
-10.04
-8.97
-6.49
-3.33
-0.23
2.44
4.77
7.00
9.20
10.99
11.74
10.92
8.47
4.92
1.19
-1.93
-4.05
-5.44
-6.63
-8.05
-9.71
-11.13
-11.64
-10.88
-8.93
-6.44
-4.27
-3.04
-2.96
-3.72
-4.82
-5.80
-6.48
-7.09
-8.03
-9.64
-12.03
-14.92
-17.79
-20.02
-21.06
-20.68
-18.96
-16.24
-12.92
-9.35
-5.73
-2.17
1.26
4.37
6.87
8.47
8.98
8.44
7.16
5.59
4.27
3.57
3.56
4.05
4.69
5.18
5.40
5.43
5.55
5.96
6.69
7.51
8.04
7.92
6.96
5.25
3.03
0.62
-1.83
-4.25
-6.69
-9.18
-11.62
-13.72
-15.06
-15.21
-13.91
-11.20
-7.49
-3.43
0.30
3.21
5.11
6.16
6.58
6.61
6.29
5.58
4.50
3.20
2.00
1.28
1.25
1.83
2.71
3.46
3.75
3.42
2.61
1.56
0.56
-0.22
-0.77
-1.17
-1.63
-2.36
-3.49
-5.08
-7.07
-9.27
-11.38
-13.01
-13.78
-13.36
-11.58
-8.54
-4.56
-0.14
4.17
7.92
10.86
12.99
14.49
15.58
16.39
16.86
16.73
15.72
13.69
10.82
7.66
4.88
3.00
2.15
2.08
2.30
2.41
2.24
1.90
1.61
1.48
1.38
1.03
0.12
-1.50
-3.75
-6.35
-8.96
-11.22
-12.85
-13.70
-13.67
-12.77
-11.02
-8.44
-5.10
-1.18
2.91
6.52
8.92
9.53
8.20
5.40
2.01
-0.98
-2.90
-3.67
-3.72
-3.66
-3.93
-4.51
-5.08
-5.24
-4.86
-4.15
-3.61
-3.63
-4.30
-5.33
-6.24
-6.71
-6.72
-6.59
-6.75
-7.44
-8.58
-9.79
-10.60
-10.73
-10.26
-9.55
-9.06
-9.04
-9.41
-9.68
-9.27
-7.77
-5.17
-1.89
1.42
4.18
6.17
7.59
8.86
10.29
11.90
13.42
14.46
14.83
14.63
14.29
14.21
14.59
15.26
15.81
15.80
14.99
13.50
11.62
9.66
7.69
5.49
2.72
-0.87
-5.17
-9.68
-13.63
-16.28
-17.25
-16.64
-14.93
-12.72
-10.43
-8.19
-5.87
-3.31
-0.56
2.06
4.05
5.01
4.81
3.65
1.97
0.17
-1.45
-2.78
-3.81
-4.46
-4.59
-4.00
-2.54
-0.26
2.54
5.40
7.76
9.25
9.79
9.63
9.24
9.00
9.00
8.95
8.36
6.92
4.77
2.61
1.28
1.40
2.91
5.11
7.07
8.14
8.26
7.87
7.27
6.41
4.82
2.03
-1.92
-6.23
-9.76
-11.60
-11.86
-11.54
-11.92
-13.80
-16.90
-19.95
-21.51
-20.77
-18.13
-14.84
-12.23
-10.94
-10.54
-9.95
-8.20
-4.99
-1.26
1.65
2.72
1.93
0.45
-0.02
1.87
6.40
12.38
18.06
21.99
23.80
24.37
25.16
27.21
30.48
33.60
34.71
32.56
27.21
20.11
13.30
8.39
5.85
4.83
3.93
2.08
-0.91
-4.34
-7.16
-8.71
-8.93
-8.50
-8.27
-8.77
-10.03
-11.64
-13.16
-14.34
-15.24
-16.19
-17.50
-19.25
-21.18
-22.81
-23.56
-23.01
-20.95
-17.47
-12.92
-7.80
-2.68
1.93
5.61
8.18
9.64
10.22
10.19
9.78
9.04
7.90
6.24
4.06
1.61
-0.65
-2.19
-2.65
-2.03
-0.71
0.74
1.85
2.40
2.55
2.63
2.90
3.34
3.63
3.32
2.09
-0.04
-2.68
-5.27
-7.32
-8.59
-9.15
-9.13
-8.62
-7.47
-5.48
-2.55
1.09
4.89
8.13
10.24
11.03
10.77
9.97
9.13
8.48
7.92
7.11
5.77
3.85
1.65
-0.36
-1.75
-2.30
-2.09
-1.43
-0.68
-0.08
0.34
0.66
0.93
1.11
1.03
0.49
-0.59
-2.12
-3.80
-5.28
-6.39
-7.19
-7.91
-8.81
-9.96
-11.05
-11.55
-10.89
-8.75
-5.31
-1.15
2.93
6.26
8.52
9.78
10.30
10.31
9.84
8.79
7.04
4.62
1.82
-0.89
-3.00
-4.18
-4.35
-3.68
-2.53
-1.21
0.03
1.16
2.17
3.06
3.69
3.84
3.30
2.05
0.30
-1.57
-3.26
-4.71
-6.08
-7.67
-9.68
-12.04
-14.43
-16.34
-17.34
-17.18
-15.81
-13.32
-9.87
-5.68
-1.00
3.82
8.25
11.79
14.04
14.85
14.45
13.29
11.82
10.41
8.94
7.15
4.78
1.84
-1.20
-3.52
-4.36
-3.33
-0.72
2.65
5.81
8.06
9.26
9.85
10.45
11.55
13.07
14.53
15.38
15.33
14.39
12.72
10.11
5.97
-0.66
-10.33
-22.59
-35.81
-47.52
-55.34
-57.88
-55.20
-48.66
-40.24
-31.73
-24.25
-18.24
-13.66
-10.31
-7.89
-6.05
-4.24
-1.84
1.66
6.35
11.80
17.11
21.35
23.81
24.27
23.02
20.69
17.98
15.46
13.53
12.39
12.04
12.31
12.91
13.45
13.56
12.97
11.59
9.56
7.19
4.80
2.71
1.05
-0.16
-0.95
-1.32
-1.21
-0.53
0.73
2.46
4.40
6.34
8.14
9.87
11.72
13.79
15.99
17.96
19.19
19.29
18.11
15.89
13.12
10.32
7.80
5.55
3.35
0.97
-1.64
-4.21
-6.25
-7.30
-7.19
-6.13
-4.65
-3.35
-2.61
-2.46
-2.64
-2.87
-3.02
-3.29
-4.07
-5.68
-8.16
-11.10
-13.76
-15.37
-15.38
-13.71
-10.72
-6.97
-3.03
0.71
4.14
7.26
10.01
12.21
13.53
13.70
12.64
10.56
7.95
5.38
3.29
1.90
1.15
