1553195630.00
64.000000
-0.00
-0.00
-0.00
-0.00
-0.00
-0.00
-0.00
-0.00
-0.00
-0.00
0.00
0.01
0.01
-0.00
-0.03
-0.05
-0.05
0.00
0.13
0.36
0.66
1.01
1.37
1.72
2.06
2.40
2.79
3.24
3.80
4.42
5.06
5.66
6.20
6.68
7.15
7.68
8.31
9.14
10.09
11.04
11.88
12.56
13.14
13.76
14.65
15.96
17.91
20.32
22.90
25.38
27.58
29.57
31.68
34.32
37.81
42.54
48.15
54.10
59.83
64.97
69.58
74.14
79.34
85.71
93.76
103.00
112.62
121.73
129.77
136.75
143.30
150.75
157.77
166.64
177.95
191.79
206.97
220.57
228.25
225.36
208.53
176.87
132.76
80.05
23.07
-34.94
-92.44
-149.16
-205.23
-260.37
-313.74
-363.87
-409.83
-450.91
-486.50
-515.74
-537.23
-549.22
-549.96
-538.37
-514.21
-478.67
-433.88
-382.45
-327.02
-269.84
-212.63
-156.66
-102.95
-52.37
-5.90
35.58
71.43
101.35
125.50
144.38
158.69
169.15
176.37
180.75
182.57
182.07
179.51
175.23
169.65
163.18
156.15
148.81
141.30
133.69
126.02
118.33
110.69
103.16
95.80
88.68
81.83
75.25
68.95
62.95
57.25
51.86
46.78
42.03
37.59
33.45
29.61
26.07
22.81
19.83
17.11
14.67
12.48
10.54
8.83
7.35
6.07
4.97
4.05
3.27
2.62
2.09
1.65
1.30
1.01
0.79
0.61
0.47
0.37
0.29
0.24
0.20
0.17
0.16
0.16
0.18
0.20
0.22
0.25
0.29
0.33
0.38
0.42
0.46
0.52
0.56
0.62
0.67
0.73
0.79
0.86
0.93
1.01
1.10
1.19
1.30
1.43
1.56
1.72
1.89
2.08
2.29
2.53
2.80
3.09
3.40
3.76
4.14
4.56
5.01
5.50
6.03
6.60
7.21
7.87
8.57
9.31
10.10
10.94
11.82
12.75
13.72
14.76
15.86
17.03
18.25
19.54
20.83
22.13
23.32
24.34
25.07
25.39
25.17
24.30
22.73
20.41
17.40
13.73
9.57
5.08
0.47
-4.03
-8.23
-11.95
-15.03
-17.38
-18.96
-19.77
-19.88
-19.40
-18.45
-17.18
-15.70
-14.10
-12.41
-10.64
-8.76
-6.81
-4.84
-2.91
-1.05
0.71
2.38
4.02
5.74
7.66
9.72
11.89
14.09
16.27
18.39
20.48
22.66
25.13
28.11
31.42
34.87
38.22
41.22
43.75
45.84
47.74
49.88
52.78
56.21
59.89
63.37
66.17
67.96
68.74
68.92
69.17
70.22
71.78
73.30
73.91
72.51
68.17
60.22
48.19
31.22
13.03
-5.30
-23.43
-41.68
-60.75
-81.54
-105.00
-131.70
-161.19
-191.43
-219.40
-240.79
-251.51
-249.31
-234.77
-211.15
-183.09
-154.85
-128.93
-106.49
-87.28
-70.77
-56.89
-45.98
-38.26
-33.31
-30.00
-26.88
-23.21
-18.82
-14.26
-10.41
-7.98
-7.30
-8.19
-10.16
-12.65
-15.31
-17.74
-19.41
-19.64
-17.57
-12.51
-4.18
7.06
20.25
33.92
46.59
56.97
64.25
68.11
68.67
66.37
61.91
56.23
50.38
45.38
42.02
40.64
41.06
42.59
44.37
45.56
45.63
44.41
42.09
38.99
35.45
31.58
27.30
22.41
16.75
10.42
3.76
-2.66
-8.30
-12.86
-16.42
-19.37
-22.29
-25.68
-29.80
-34.51
-39.28
-43.21
-45.15
-44.00
-38.99
-30.06
-17.94
-4.07
9.81
22.13
31.80
38.32
41.67
42.05
39.79
35.32
29.32
22.76
16.86
12.74
11.17
12.23
15.32
19.38
23.30
26.25
27.94
28.49
28.28
27.61
26.57
25.00
22.65
19.35
15.12
10.21
5.04
0.01
-4.52
-8.35
-11.47
-14.00
-16.24
-18.57
-21.49
-25.35
-30.18
-35.50
-40.26
-43.06
-42.50
-37.77
-28.90
-16.89
-3.38
9.85
21.32
30.15
36.00
38.92
39.15
36.97
32.83
27.36
21.45
16.11
12.29
10.57
11.04
13.26
16.46
19.73
22.34
23.82
24.08
23.30
21.84
20.02
18.05
15.92
13.51
10.59
7.06
2.96
-1.45
-5.81
-9.77
-13.14
-15.91
-18.24
-20.40
-22.65
-25.26
-28.42
-32.17
-36.26
-40.00
-42.31
-41.90
-37.75
-29.49
-17.76
-4.05
9.74
21.83
31.06
37.02
39.81
39.80
37.35
32.83
26.73
19.91
13.50
8.65
6.25
6.54
9.11
13.04
17.22
20.73
23.08
24.20
24.39
24.02
23.37
22.40
20.85
18.38
14.77
10.09
4.75
-0.71
-5.83
-10.43
-14.64
-18.74
-23.00
-27.52
-32.25
-37.00
-41.57
-45.71
-49.02
-50.87
-50.48
-47.08
-40.25
-30.25
-18.04
-5.15
6.83
16.59
23.46
27.36
28.65
27.77
25.14
21.11
16.16
10.96
6.34
3.06
1.54
1.74
3.11
4.97
6.69
7.93
8.68
9.10
9.34
9.43
9.21
8.49
7.13
5.17
2.81
0.36
-1.91
-3.84
-5.51
-7.21
-9.32
-12.21
-16.00
-20.40
-24.73
-27.97
-29.08
-27.29
-22.36
-14.72
-5.34
4.52
13.64
21.07
26.18
28.73
28.74
26.46
22.32
16.92
10.95
5.19
0.29
-3.26
-5.27
-5.81
-5.19
-3.77
-1.88
0.22
2.34
4.26
5.68
6.32
5.94
4.53
2.28
-0.47
-3.35
-6.10
-8.61
-10.99
-13.45
-16.31
-19.86
-24.22
-29.12
-33.81
-37.16
-37.96
-35.36
-29.19
-20.10
-9.26
1.97
12.41
21.25
28.01
32.44
34.37
33.82
30.98
26.32
20.58
14.58
9.08
4.65
1.59
-0.07
-0.46
0.14
1.43
3.07
4.75
6.18
7.10
7.27
6.52
4.84
2.37
-0.57
-3.63
-6.52
-9.16
-11.65
-14.27
-17.36
-21.21
-25.93
-31.34
-36.87
-41.55
-44.15
-43.57
-39.17
-31.08
-20.28
-8.24
3.44
13.55
21.37
26.69
29.52
29.93
28.02
23.99
18.33
11.81
5.40
-0.02
-3.82
-5.76
-5.94
-4.68
-2.38
0.55
3.69
6.62
8.94
10.33
10.59
9.69
7.85
5.39
2.68
0.02
-2.52
-5.09
-8.08
-11.91
-16.85
-22.79
-29.12
-34.74
-38.36
-38.78
-35.34
-28.15
-18.08
-6.54
4.90
14.89
22.55
27.45
29.56
29.10
26.44
22.11
16.72
10.96
5.46
0.72
-2.91
-5.28
-6.34
-6.12
-4.78
-2.61
-0.06
2.33
4.02
4.63
4.03
2.37
-0.05
-2.89
-5.88
-8.90
-12.05
-15.56
-19.76
-24.88
-30.89
-37.27
-43.03
-46.77
-47.07
-43.01
-34.45
-22.23
-7.97
6.44
19.31
29.47
36.38
40.01
40.60
38.53
34.19
28.10
20.91
13.44
6.55
1.02
-2.63
-4.23
-3.91
-2.09
0.73
4.02
7.28
10.07
12.00
12.77
12.20
10.28
7.16
3.19
-1.20
-5.67
-9.99
-14.23
-18.72
-23.86
-29.85
-36.41
-42.58
-46.90
-47.83
-44.33
-36.28
-24.57
-10.84
3.12
15.79
26.27
34.10
39.12
41.16
40.14
36.15
29.74
21.99
14.24
7.83
3.63
1.85
2.10
3.67
5.86
8.21
10.47
12.56
14.33
15.51
15.77
14.85
12.66
9.41
5.48
1.26
-2.97
-7.17
-11.44
-15.94
-20.85
-26.19
-31.89
-37.64
-42.84
-46.61
-47.88
-45.68
-39.48
-29.48
-16.64
-2.49
11.31
23.27
32.35
37.97
39.91
38.33
33.71
26.90
19.09
11.63
5.77
2.35
1.66
3.37
6.71
10.74
14.62
17.80
20.08
21.50
22.16
22.02
20.93
18.70
15.27
10.83
5.88
1.00
-3.33
-6.94
-10.02
-12.98
-16.30
-20.38
-25.33
-30.92
-36.51
-41.01
-43.14
-41.69
-35.97
-26.13
-13.28
0.88
14.47
25.97
34.51
39.77
41.78
40.62
36.43
29.54
20.73
11.35
3.09
-2.49
-4.43
-2.78
1.51
6.99
12.18
16.09
18.38
19.19
18.86
17.62
15.48
12.29
7.99
2.71
-3.11
-8.87
-14.02
-18.21
-21.47
-24.09
-26.55
-29.34
-32.83
-37.18
-42.26
-47.60
-52.35
-55.31
-55.20
-50.95
-42.17
-29.35
-13.84
2.49
17.81
30.67
40.20
46.10
48.30
46.93
42.30
35.03
26.24
17.46
10.35
6.30
5.93
8.95
14.18
20.11
25.26
28.75
30.36
30.39
29.29
27.42
24.83
21.43
17.12
12.01
6.39
0.72
-4.60
-9.30
-13.27
-16.58
-19.42
-21.99
-24.62
-27.63
-31.38
-36.11
-41.74
-47.61
-52.50
-54.74
-52.78
-45.71
-33.74
-18.25
-1.38
14.63
28.06
37.99
44.26
47.03
46.55
43.06
36.98
29.13
20.80
13.59
8.90
7.47
9.21
13.24
18.30
23.20
27.15
29.76
30.94
30.71
29.15
26.42
22.77
18.54
14.01
9.33
4.51
-0.54
-5.78
-10.96
-15.70
-19.63
-22.56
-24.65
-26.30
-28.05
-30.46
-33.96
-38.73
-44.51
-50.52
-55.36
-57.30
-54.76
-46.88
-33.94
-17.39
0.57
17.60
31.81
42.09
48.03
49.76
47.66
42.34
34.66
25.84
17.36
10.68
6.87
6.34
8.72
13.04
18.13
22.94
26.73
29.11
29.96
29.29
27.18
23.85
19.64
14.97
10.22
5.67
1.34
-2.86
-7.06
-11.32
-15.55
-19.54
-23.09
-26.00
-28.23
-29.88
-31.26
-32.81
-35.12
-38.74
-43.96
-50.55
-57.50
-63.06
-65.15
-62.04
-52.98
-38.59
-20.74
-1.91
15.50
29.77
40.02
46.04
47.96
46.07
40.87
33.20
24.43
16.18
10.04
7.11
7.65
11.09
16.33
22.07
27.28
31.28
33.81
34.81
34.29
32.29
28.89
24.32
19.05
13.63
8.55
4.07
0.11
-3.65
-7.58
-11.84
-16.29
-20.60
-24.40
-27.49
-30.02
-32.38
-35.13
-38.86
-44.01
-50.68
-58.43
-66.11
-71.91
-73.74
-69.78
-59.24
-42.76
-22.36
-0.84
19.09
35.42
47.22
54.37
57.15
55.93
51.13
43.41
33.96
24.44
16.73
12.33
11.88
14.95
20.32
26.46
32.10
36.61
39.93
42.28
43.87
44.61
44.10
41.90
37.71
31.63
24.15
16.06
8.18
1.14
-4.75
-9.54
-13.50
-17.00
-20.31
-23.49
-26.45
-29.00
-31.01
-32.54
-33.78
-35.11
-37.06
-40.23
-45.22
-52.39
-61.62
-71.94
-81.49
-87.78
-88.31
-81.45
-67.00
-46.45
-22.56
1.49
22.92
39.95
51.82
58.54
60.40
57.87
51.60
42.70
32.81
23.96
18.03
16.25
18.75
24.53
31.89
39.07
44.76
48.43
50.21
50.56
49.87
48.25
45.47
41.28
35.56
28.63
21.19
14.12
8.19
3.77
0.72
-1.53
-3.73
-6.49
-10.05
-14.23
-18.55
-22.48
-25.69
-28.15
-30.19
-32.28
-34.95
-38.64
-43.74
-50.39
-58.36
-66.78
-74.02
-77.88
-76.19
-67.62
-52.29
-31.93
-9.39
12.26
30.61
44.35
53.16
57.34
57.28
53.38
46.21
36.82
26.84
18.28
12.95
11.85
14.88
20.84
27.91
34.35
39.02
41.57
42.32
41.84
40.56
38.54
35.59
31.49
26.21
20.10
13.79
7.96
3.13
-0.55
-3.25
-5.37
-7.37
-9.59
-12.18
-15.07
-18.02
-20.75
-22.98
-24.62
-25.76
-26.71
-27.95
-30.09
-33.68
-39.12
-46.35
-54.67
-62.56
-67.92
-68.52
-62.81
-50.46
-32.69
-11.87
9.18
28.05
43.20
53.99
60.33
62.25
59.77
53.07
42.95
30.96
19.29
10.22
5.39
5.28
9.13
15.29
21.88
27.42
31.15
33.07
33.58
33.11
31.85
29.70
26.43
21.90
16.27
10.01
3.86
-1.39
-5.22
-7.52
-8.62
-9.19
-9.93
-11.32
-13.42
-15.94
-18.37
-20.34
-21.71
-22.73
-23.90
-25.82
-29.08
-34.07
-40.95
-49.47
-58.82
-67.52
-73.56
-74.80
-69.68
-57.81
-40.21
-19.19
2.44
22.10
38.03
49.48
56.35
58.88
57.27
51.86
43.27
32.77
22.14
13.43
8.22
7.21
9.95
15.13
21.07
26.41
30.45
33.20
35.02
36.19
36.62
35.86
33.42
29.10
23.24
16.63
10.26
4.92
0.93
-1.97
-4.37
-6.94
-10.06
-13.70
-17.44
-20.71
-23.04
-24.33
-24.90
-25.41
-26.66
-29.33
-33.84
-40.20
-47.98
-56.18
-63.25
-67.28
-66.38
-59.33
-46.06
-27.84
-7.04
13.56
31.57
45.48
54.77
59.55
60.15
56.81
49.76
39.57
27.44
15.19
4.88
-1.81
-4.11
-2.36
2.22
8.10
14.01
19.22
23.50
26.83
29.13
30.08
29.33
26.66
22.25
16.66
10.73
5.21
0.53
-3.37
-6.97
-10.88
-15.52
-20.89
-26.55
-31.77
-35.90
-38.60
-40.02
-40.81
-41.88
-44.17
-48.36
-54.56
-62.13
-69.61
-74.94
-75.94
-70.99
-59.56
-42.49
-21.79
-0.08
20.15
37.04
49.60
57.50
60.81
59.74
54.64
46.15
35.38
23.95
13.75
6.44
3.00
3.45
7.02
12.46
18.60
24.56
29.87
34.30
37.61
39.46
39.46
37.37
33.22
27.45
20.69
13.70
7.10
1.27
-3.72
-8.08
-12.14
-16.23
-20.41
-24.45
-27.86
-30.18
-31.16
-31.05
-30.55
-30.60
-32.14
-35.78
-41.59
-48.97
-56.67
-62.94
-65.87
-63.85
-56.13
-43.07
-26.11
-7.40
10.84
26.79
39.30
47.85
52.31
52.77
49.50
43.11
34.63
25.48
17.20
11.12
8.02
7.96
10.38
14.40
19.06
23.58
27.39
30.07
31.29
30.76
28.32
24.05
18.41
12.11
6.00
0.80
-3.14
-5.87
-7.82
-9.56
-11.58
-14.09
-17.03
-20.12
-23.08
-25.80
-28.44
-31.41
-35.23
-40.34
-46.89
-54.51
-62.30
-68.75
-72.08
-70.63
-63.42
-50.52
-33.16
-13.34
6.70
25.03
40.35
51.86
59.15
61.91
60.05
53.82
44.04
32.20
20.20
9.90
2.69
-0.82
-0.79
2.00
6.60
12.07
17.74
23.08
27.66
31.05
32.83
32.71
30.73
27.33
23.12
18.78
14.64
10.65
6.39
1.41
-4.50
-11.09
-17.73
-23.64
-28.21
-31.29
-33.27
-34.94
-37.21
-40.86
-46.17
-52.76
-59.51
-64.71
-66.46
-63.18
-54.12
-39.69
-21.40
-1.47
17.74
34.25
46.81
54.87
58.43
57.79
53.40
45.93
36.40
26.17
16.88
10.06
6.73
7.23
11.03
17.02
23.85
30.26
35.38
38.73
40.20
39.84
37.80
34.27
29.52
23.91
17.85
11.73
5.78
0.11
-5.34
-10.57
-15.51
-19.92
-23.54
-26.24
-28.18
-29.82
-31.82
-34.80
-39.16
-44.83
-51.19
-57.07
-60.89
-61.02
-56.24
-46.16
-31.45
-13.77
4.72
21.85
36.00
46.27
52.36
54.40
52.61
47.36
39.22
29.17
18.56
8.99
1.96
-1.55
-1.31
2.09
7.55
13.69
19.33
23.70
26.46
27.69
27.61
26.43
24.23
20.97
16.63
11.27
5.22
-0.99
-6.79
-11.76
-15.81
-19.20
-22.37
-25.74
-29.55
-33.94
-38.93
-44.56
-50.74
-56.96
-62.16
-64.71
-62.91
-55.65
-42.93
-26.01
-7.11
11.30
27.18
39.25
47.12
50.94
51.06
47.89
41.84
33.54
23.96
14.49
6.72
1.97
1.00
3.65
9.02
15.72
22.35
27.88
31.82
34.08
34.77
34.04
31.94
28.52
23.88
18.19
11.82
5.13
-1.48
-7.69
-13.25
-18.02
-22.02
-25.40
-28.49
-31.68
-35.39
-39.90
-45.28
-51.17
-56.73
-60.68
-61.47
-57.77
-48.93
-35.33
-18.42
-0.33
16.67
30.80
41.08
47.28
49.57
48.26
43.65
36.15
26.56
16.15
6.59
-0.52
-4.09
-3.87
-0.48
4.84
10.68
15.85
19.64
21.91
22.83
22.75
21.93
20.40
18.04
14.66
10.24
5.01
-0.57
-5.95
-10.76
-14.93
-18.75
-22.68
-27.22
-32.66
-39.09
-46.20
-53.36
-59.57
-63.51
-63.82
-59.42
-49.97
-36.01
-18.91
-0.55
17.13
32.51
44.42
52.21
55.55
54.39
49.02
40.10
28.79
16.70
5.59
-2.92
-7.75
-8.64
-6.15
-1.42
4.13
9.26
13.13
15.46
16.34
16.03
14.73
12.51
9.30
5.05
-0.17
-6.02
-12.00
-17.55
-22.28
-26.10
-29.30
-32.37
-35.84
-40.05
-45.10
-50.82
-56.83
-62.46
-66.76
-68.48
-66.35
-59.41
-47.47
-31.39
-12.91
5.66
22.22
35.28
44.22
49.11
50.38
48.55
44.09
37.56
29.80
22.04
15.64
11.82
11.19
13.54
17.90
22.95
27.43
30.59
32.22
32.55
31.92
30.53
28.37
25.23
21.01
15.77
9.90
4.00
-1.34
-5.77
-9.28
-12.21
-15.03
-18.19
-21.93
-26.30
-31.20
-36.40
-41.44
-45.58
-47.75
-46.79
-41.84
-32.74
-20.25
-5.88
8.57
21.48
31.76
38.83
42.48
42.67
39.47
33.22
24.76
15.42
6.89
0.72
-2.12
-1.50
1.84
6.66
11.69
15.98
19.07
20.91
21.62
21.27
19.78
17.00
12.86
7.58
1.63
-4.33
-9.71
-14.15
-17.61
-20.38
-22.92
-25.66
-28.96
-33.02
-37.88
-43.32
-48.74
-53.12
-55.14
-53.54
-47.52
-37.18
-23.51
-8.15
7.03
20.44
31.02
38.20
41.73
41.55
37.79
30.95
22.09
12.78
4.86
-0.13
-1.41
0.84
5.62
11.50
17.24
22.03
25.58
27.95
29.20
29.26
27.93
25.06
20.72
15.27
9.32
3.48
-1.80
-6.38
-10.48
-14.49
-18.84
-23.75
-29.30
-35.32
-41.41
-46.86
-50.71
-51.82
-49.21
-42.41
-31.75
-18.37
-3.87
10.04
22.08
31.46
37.86
41.17
41.28
38.22
32.35
24.54
16.17
8.91
4.21
2.85
4.70
8.81
13.84
18.51
22.04
24.23
25.26
25.38
24.63
22.83
19.71
15.16
9.42
3.04
-3.27
-8.86
-13.41
-16.93
-19.78
-22.47
-25.51
-29.29
-33.99
-39.52
-45.52
-51.24
-55.54
-57.09
-54.67
-47.61
-36.13
-21.41
-5.27
10.28
23.66
33.85
40.54
43.76
43.71
40.70
35.22
28.13
20.62
14.08
9.67
8.11
9.42
12.99
17.90
23.10
27.80
31.45
33.80
34.78
34.39
32.71
29.86
26.09
21.79
17.33
13.04
9.09
5.47
2.05
-1.27
-4.48
-7.44
-10.01
-12.17
-14.05
-16.01
-18.42
-21.63
-25.81
-30.94
-36.68
-42.36
-46.92
-49.10
-47.73
-42.13
-32.41
-19.57
-5.29
8.60
20.55
29.61
35.44
38.11
37.88
35.08
30.15
23.79
17.04
11.19
7.42
6.49
8.41
12.52
17.70
22.84
27.20
30.51
32.80
34.17
34.57
33.84
31.91
28.97
25.59
22.51
20.32
19.13
18.65
18.29
17.63
16.68
15.95
16.23
18.18
21.89
26.83
31.89
35.94
38.21
38.70
38.23
38.22
40.20
45.41
54.34
66.63
81.09
96.09
109.90
121.18
129.22
133.68
134.79
133.40
130.24
125.63
119.72
112.64
104.54
95.81
86.90
78.53
71.85
67.60
65.67
65.44
66.03
66.76
67.44
67.70
67.20
66.15
63.73
58.27
48.65
35.08
19.02
2.62
-13.93
-31.38
-48.96
-67.82
-91.08
-121.42
-160.60
-209.26
-266.15
-330.91
-399.90
-461.25
-504.38
-523.69
-516.50
-483.35
-427.45
-353.74
-273.50
-198.20
-130.46
-75.47
-41.42
-31.59
-43.23
-68.73
-98.83
-132.40
-170.67
-205.42
-233.53
-258.02
-279.54
-296.81
-308.19
-273.80
-173.57
-71.34
2.88
58.75
97.54
120.71
130.46
130.14
124.50
113.04
96.71
87.75
91.82
104.30
118.85
129.76
134.16
132.74
123.90
107.69
92.63
82.21
72.90
61.45
46.57
29.49
13.35
-1.46
-15.03
-23.16
-25.00
-23.37
-19.98
-14.96
-7.53
2.73
13.33
20.72
24.16
23.36
18.57
12.00
6.39
3.57
3.78
5.54
7.61
10.82
16.61
25.58
36.86
47.87
55.25
56.61
51.95
43.66
35.11
28.70
24.52
20.50
14.00
3.58
-9.97
-24.09
-35.94
-43.91
-48.17
-50.11
-51.14
-51.88
-51.96
-50.83
-48.40
-45.34
-42.52
-40.22
-37.75
-33.76
-27.12
-17.70
-6.62
4.15
12.59
17.41
18.52
16.88
14.02
11.22
8.88
6.31
2.13
-4.79
-14.33
-24.65
-32.57
-34.73
-28.92
-14.87
5.96
31.32
58.97
86.95
113.19
134.88
148.45
150.42
138.97
115.19
83.65
51.25
25.17
10.62
9.42
19.99
38.54
60.68
82.86
102.86
119.79
133.89
146.24
158.56
172.84
191.01
213.74
239.31
263.36
279.95
283.74
271.84
244.65
205.31
158.58
108.77
58.54
8.47
-42.39
-94.89
-149.02
-203.27
-254.86
-299.45
-332.55
-351.03
-354.51
-345.66
-328.31
-307.25
-286.92
-271.34
-260.52
-251.40
-239.10
-219.37
-189.95
-149.08
-97.93
-40.76
14.00
61.14
98.15
124.97
141.89
149.67
153.53
159.18
170.58
184.86
200.92
217.00
231.44
241.37
244.97
247.46
255.68
274.14
297.83
324.42
352.41
382.51
415.00
421.67
385.30
308.42
241.82
196.70
172.43
153.52
133.66
108.42
73.76
31.81
-13.53
-58.96
-107.72
-157.39
-203.05
-238.20
-259.84
-270.01
-270.50
-264.53
-256.23
-253.58
-257.51
-264.68
-269.14
-259.64
-231.22
-186.03
-132.92
-80.47
-36.16
-0.77
27.15
49.60
67.03
78.15
83.53
85.38
86.67
87.36
88.01
88.58
88.58
87.27
82.18
72.46
59.13
44.44
28.90
13.52
-1.14
-15.29
-29.83
-46.52
-66.65
-90.49
-108.79
-120.35
-125.64
-125.88
-122.58
-117.35
-112.03
-107.88
-105.22
-103.30
-102.13
-100.72
-98.16
-94.20
-89.43
-85.01
-82.04
-81.14
-82.43
-86.45
-92.32
-98.14
-101.33
-99.43
-91.04
-76.70
-59.06
-42.28
-31.19
-28.22
-32.56
-40.51
-47.09
-48.09
-41.89
-29.82
-15.32
-2.57
5.91
10.01
11.66
13.60
18.09
25.60
35.87
47.74
59.54
70.39
79.95
88.32
95.59
101.68
106.56
110.77
115.85
123.27
133.66
145.52
154.83
156.70
147.48
127.24
99.12
71.79
52.75
45.71
49.56
59.58
70.51
78.61
82.51
82.65
80.00
74.62
66.10
54.45
39.35
21.66
2.27
-17.97
-38.81
-60.46
-83.54
-108.11
-131.64
-151.91
-165.43
-169.48
-163.29
-148.86
-130.22
-112.22
-98.46
-90.00
-86.49
-84.65
-82.42
-79.63
-77.95
-79.26
-84.71
-93.56
-103.45
-111.61
-115.47
-113.98
-107.39
-96.78
-83.24
-67.95
-52.30
-37.73
-26.06
-18.51
-15.68
-17.04
-21.29
-26.43
-30.96
-34.33
-36.53
-38.48
-41.16
-45.59
-52.39
-61.71
-71.67
-80.30
-86.54
-90.26
-92.64
-95.10
-98.67
-103.50
-108.74
-109.68
-101.28
-84.44
-61.49
-36.49
-13.34
5.58
19.66
29.87
42.86
64.65
97.61
139.59
185.09
228.78
267.60
301.01
330.41
364.20
409.78
470.49
544.84
628.25
715.95
803.62
885.84
917.76
867.40
729.95
534.92
327.86
145.79
6.34
-89.88
-152.69
-195.26
-222.40
-235.99
-237.33
-230.35
-220.24
-214.05
-216.13
-227.87
-248.16
-270.20
-289.10
-304.25
-319.67
-341.00
-371.43
-409.24
-449.26
-485.82
-505.16
-501.21
-476.06
-438.38
-398.87
-365.58
-341.35
-324.84
-312.41
-299.34
-283.84
-266.32
-247.89
-229.37
-211.02
-192.65
-174.09
-154.22
-131.97
-107.87
-83.74
-59.86
-35.40
-9.10
19.75
51.24
86.96
127.17
169.35
207.68
239.38
263.74
281.36
292.36
297.28
300.35
304.62
309.38
309.03
302.68
292.54
282.20
273.77
269.40
274.80
292.59
318.25
340.17
352.43
353.81
345.84
329.46
277.99
180.64
45.78
-76.18
-172.93
-244.16
-300.08
-343.10
-374.28
-391.34
-387.19
-357.83
-309.42
-254.25
-198.49
-142.58
-85.21
-43.42
-31.01
-50.11
-64.67
-62.15
-43.24
-22.43
-4.69
8.12
14.23
14.90
14.13
14.35
10.49
-3.61
-29.76
-64.95
-105.30
-147.47
-186.38
-216.18
-232.91
-239.08
-238.23
-232.50
-221.77
-206.23
-186.51
-161.80
-130.67
-92.33
-49.68
-5.86
36.41
75.57
109.92
138.19
160.72
178.94
194.85
208.85
220.95
230.10
235.42
235.94
231.46
223.26
213.63
205.40
200.54
200.32
204.97
214.10
225.95
237.21
243.04
238.27
219.79
187.49
144.60
96.50
49.99
11.09
-16.09
-29.58
-28.77
-12.18
20.68
68.40
125.96
188.05
248.72
301.94
341.78
363.58
368.01
357.54
335.27
301.69
260.69
216.76
173.61
132.38
93.37
62.92
47.27
49.94
65.28
87.73
110.10
126.10
132.57
133.72
146.86
187.25
258.93
345.83
428.55
489.47
519.90
520.99
467.53
357.88
210.29
89.44
5.04
-52.10
-102.58
-153.57
-207.13
-262.78
-312.40
-352.92
-387.56
-428.60
-478.48
-529.20
-569.55
-594.52
-616.73
-635.16
-646.22
-648.48
-638.09
-612.51
-571.39
-517.83
-459.64
-404.53
-352.73
-303.37
-255.86
-213.28
-177.45
-148.94
-123.95
-101.80
-82.74
-64.56
-46.52
-29.29
-15.65
-7.92
-6.91
-12.14
-23.09
-37.92
-52.82
-65.21
-73.96
-80.17
-85.67
-91.74
-99.03
-108.04
-118.04
-127.35
-134.72
-139.59
-142.02
-142.72
-142.03
-139.76
-137.43
-135.31
-132.98
-130.01
-126.21
-121.64
-116.64
-111.53
-106.54
-102.01
-97.76
-93.61
-89.33
-84.79
-79.94
-74.77
-69.31
-63.61
-57.83
-51.89
-45.74
-39.35
-32.68
-25.73
-18.54
-11.18
-3.85
3.17
9.69
15.53
20.61
25.01
28.95
32.91
37.28
42.18
47.37
52.48
57.08
61.03
64.52
68.01
72.29
77.94
85.10
93.34
101.91
110.05
117.39
124.16
131.08
139.51
150.52
164.27
179.99
196.32
211.98
226.37
239.74
252.92
268.34
288.04
313.02
342.91
376.10
409.98
441.28
466.33
481.70
488.08
487.65
483.17
476.77
469.35
460.88
451.04
439.67
426.99
418.23
417.79
427.31
444.49
464.29
481.58
493.31
499.13
500.84
507.61
527.45
563.96
614.12
669.10
717.90
751.32
764.53
720.10
599.65
406.41
167.17
-79.58
-301.44
-481.77
-617.85
-714.43
-778.51
-811.08
-814.06
-792.23
-753.94
-709.11
-665.97
-628.96
-598.86
-574.47
-549.55
-519.33
-482.29
-440.71
-399.14
-361.81
-330.85
-306.25
-286.83
-268.28
-247.29
-222.61
-195.40
-168.27
-143.76
-123.11
-106.40
-93.00
-80.80
-68.17
-54.57
-40.66
-27.80
-17.47
-10.21
-5.95
-4.21
-3.83
-3.71
-3.11
-1.89
-0.15
1.90
4.22
6.82
9.82
13.29
17.31
21.97
26.99
32.23
37.59
43.01
48.47
54.00
59.68
65.67
72.20
79.04
86.12
93.38
100.88
108.60
116.54
124.78
133.39
142.52
151.64
160.39
168.45
175.45
180.96
184.33
184.65
180.30
174.13
166.84
158.87
150.47
141.83
133.09
124.36
115.77
107.46
99.66
91.95
84.14
76.17
68.13
60.13
52.33
44.94
38.12
32.11
26.58
21.35
16.35
11.58
7.06
2.87
-0.91
-4.24
-7.10
-9.78
-12.50
-15.34
-18.24
-21.09
-23.72
-26.00
-27.95
-29.68
-31.60
-33.96
-36.88
-40.21
-43.63
-46.79
-49.51
-51.99
-54.69
-58.35
-63.49
-70.27
-78.32
-86.82
-94.94
-102.19
-108.67
-115.14
-122.70
-132.35
-144.40
-158.48
-173.62
-188.73
-203.14
-216.74
-230.03
-243.89
-259.40
-277.73
-299.91
-326.27
-355.54
-384.26
-406.87
-417.31
-411.07
-387.17
-348.69
-301.75
-253.02
-207.67
-168.26
-135.23
-108.25
-87.27
-72.56
-64.05
-60.38
-58.82
-56.00
-49.25
-37.62
-21.98
-4.51
12.45
27.31
39.63
49.91
58.91
67.13
74.55
80.56
84.37
85.33
83.19
78.25
71.11
62.55
53.17
43.41
33.60
24.13
15.51
8.19
2.36
-2.22
-6.22
-10.61
-16.18
-23.19
-31.19
-38.91
-44.72
-47.00
-44.54
-36.94
-24.61
-8.83
8.61
25.76
40.82
52.43
59.71
62.22
60.13
54.09
45.26
35.25
25.77
18.42
14.40
14.34
18.24
25.53
35.25
46.22
57.10
66.62
73.69
77.49
77.64
74.20
67.71
59.08
49.47
39.85
30.92
22.91
15.82
9.66
4.65
1.32
0.16
1.32
4.29
7.83
10.50
11.32
10.44
9.24
9.94
14.70
24.63
39.44
57.60
77.02
95.92
113.36
129.13
143.31
155.69
165.38
171.18
171.99
167.35
157.95
145.55
132.58
121.54
114.36
111.78
113.14
116.46
118.72
116.56
107.09
88.75
61.90
29.09
-5.80
-38.54
-66.02
-87.10
-102.53
-114.02
-123.09
-130.17
-134.75
-136.47
-135.94
-135.25
-137.26
-144.38
-157.76
-176.93
-200.18
-225.02
-248.51
-267.18
-277.60
-277.48
-266.73
-248.13
-226.50
-206.88
-192.23
-182.40
-174.38
-164.33
-150.05
-132.02
-113.17
-96.97
-85.20
-76.70
-67.84
-54.33
-33.46
-5.75
25.27
54.45
77.46
92.37
100.06
102.93
103.14
101.37
96.69
87.85
74.47
57.97
41.24
27.45
18.78
15.64
16.71
19.57
21.76
21.58
18.43
12.97
6.48
0.30
-4.64
-8.02
-9.98
-10.58
-9.56
-6.17
0.45
10.76
24.30
39.63
54.75
67.68
76.95
81.93
82.63
79.56
73.45
65.26
56.07
47.01
39.20
33.44
30.05
28.83
29.08
29.82
30.13
29.37
27.38
24.39
21.03
17.83
15.06
12.63
10.14
7.17
3.52
-0.54
-4.51
-7.87
-10.37
-12.24
-13.90
-15.72
-17.86
-20.19
-22.50
-24.87
-27.68
-31.43
-36.25
-41.53
-45.72
-46.94
-43.60
-35.09
-22.10
-6.34
10.05
25.07
37.33
46.12
51.23
52.71
50.72
45.57
37.91
28.81
19.68
12.05
7.24
5.87
7.76
11.90
16.81
21.22
24.42
26.38
27.58
28.50
29.37
30.03
29.98
28.66
25.79
21.46
15.99
9.97
4.07
-1.11
-5.13
-7.89
-9.82
-11.82
-15.02
-20.36
-28.04
-37.21
-46.13
-52.80
-55.57
-53.80
-47.86
-38.96
-28.56
-17.80
-7.49
1.82
9.67
15.57
19.11
20.21
19.12
16.41
12.76
8.82
5.09
2.06
0.20
-0.12
1.40
4.84
9.96
16.26
23.08
29.60
35.08
38.90
40.78
40.97
40.20
39.40
39.28
39.94
40.91
41.31
40.13
36.73
30.93
23.16
14.17
4.75
-4.61
-13.76
-23.02
-32.80
-43.14
-53.38
-62.18
-67.94
-69.45
-66.43
-59.66
-50.67
-41.39
-33.68
-29.05
-28.50
-32.38
-40.22
-50.82
-62.50
-73.61
-82.97
-90.00
-94.59
-96.75
-96.43
-93.48
-88.03
-80.71
-72.52
-64.57
-57.71
-52.27
-48.00
-44.37
-40.75
-36.55
-31.31
-24.65
-16.35
-6.45
4.78
16.67
28.31
38.53
46.20
50.47
51.09
48.79
45.21
42.71
43.73
49.96
61.78
78.01
96.31
114.05
129.05
140.02
146.66
149.20
148.04
143.67
136.73
128.16
119.31
111.64
106.19
103.30
102.54
102.93
103.54
103.72
103.27
102.25
100.67
98.48
95.60
92.05
87.87
83.03
77.24
69.88
60.49
48.96
35.88
22.50
10.08
-0.62
-9.83
-18.59
-28.33
-39.94
-53.38
-67.54
-80.57
-90.65
-96.52
-97.74
-94.49
-87.44
-77.34
-64.99
-51.39
-37.74
-25.40
-15.65
-9.30
-6.55
-7.10
-10.32
-15.46
-21.64
-27.76
-32.67
-35.27
-34.81
-31.21
-24.95
-17.08
-8.63
-0.69
6.13
11.41
14.98
16.89
17.23
16.33
14.54
12.28
9.80
7.37
5.19
3.30
1.80
0.64
-0.30
-1.29
-2.89
-5.80
-10.56
-17.19
-24.96
-32.27
-37.15
-37.86
-33.46
-24.27
-11.62
2.54
16.31
28.15
37.17
42.93
45.34
44.59
41.02
35.24
28.18
20.97
14.84
10.93
9.78
11.36
15.02
19.72
24.44
28.50
31.62
33.94
35.66
36.82
37.12
36.27
34.14
31.01
27.48
24.33
22.08
20.96
20.81
21.26
21.96
22.47
22.42
21.30
18.73
14.77
10.06
5.80
3.53
4.62
9.68
18.47
29.82
42.18
54.11
64.56
73.08
79.59
84.26
87.05
87.78
86.23
82.37
76.74
70.54
65.29
62.32
62.24
64.46
67.47
69.45
68.82
64.90
57.88
48.69
38.57
29.01
21.62
18.12
19.59
25.65
33.85
39.98
39.71
30.18
11.69
-12.41
-37.06
-57.70
-72.07
-80.49
-84.90
-87.31
-88.57
-88.08
-84.34
-75.93
-62.45
-44.79
-24.80
-4.62
13.95
29.65
41.98
50.82
55.80
55.94
49.83
36.71
17.50
-5.02
-27.82
-47.93
-63.38
-73.51
-78.85
-80.73
-80.29
-78.19
-74.94
-73.26
-76.00
-84.68
-98.39
-114.22
-128.46
-137.73
-140.15
-135.89
-129.93
-127.76
-132.28
-142.46
-154.73
-165.10
-170.69
-170.42
-164.99
-160.43
-163.02
-176.34
-200.43
-233.07
-271.34
-312.03
-351.48
-361.54
-323.90
-239.05
-127.28
-14.80
80.23
151.07
198.37
225.99
238.67
237.41
222.06
197.30
170.39
148.05
134.22
129.20
130.85
136.40
140.68
140.13
134.47
128.36
125.70
128.36
135.56
145.11
154.56
160.36
160.37
154.59
144.34
130.61
113.72
93.66
71.28
48.79
28.25
11.36
-1.35
-10.95
-19.87
-30.60
-44.41
-60.57
-76.71
-90.31
-99.50
-103.44
-102.36
-97.13
-88.31
-76.03
-60.22
-41.14
-20.06
0.92
19.20
32.64
40.22
42.34
40.49
36.44
31.63
26.78
22.12
17.75
13.85
10.82
9.14
9.11
10.75
13.71
17.43
21.42
25.26
28.67
31.42
33.23
33.69
32.39
29.16
24.07
17.58
10.29
2.69
-5.01
-12.85
-20.94
-29.12
-36.89
-43.52
-48.33
-51.01
-51.77
-51.31
-50.49
-50.05
-50.20
-50.52
-50.11
-47.86
-42.95
-35.10
-24.75
-12.93
-1.01
9.70
18.24
23.92
26.42
25.55
21.35
14.18
4.83
-5.39
-14.92
-22.30
-26.68
-28.05
-27.25
-25.46
-23.75
-22.64
-21.93
-20.97
-19.06
-15.87
-11.68
-7.30
-3.81
-2.16
-2.90
-6.07
-11.37
-18.38
-26.73
-36.11
-46.20
-56.53
-66.55
-75.70
-83.58
-90.01
-95.08
-98.76
-100.75
-100.40
-96.89
-89.53
-78.18
-63.25
-45.74
-26.88
-7.77
10.71
28.04
43.87
57.94
70.11
80.64
90.23
100.14
111.88
126.65
144.94
166.33
189.63
213.46
236.92
259.98
283.16
306.93
330.86
353.16
371.19
382.13
384.07
376.50
360.23
336.75
307.63
274.04
236.75
196.26
152.75
106.26
56.85
5.21
-46.77
-95.79
-137.67
-168.57
-186.25
-191.05
-185.71
-174.43
-161.57
-150.55
-143.45
-141.15
-143.76
-150.74
-161.14
-173.43
-185.62
-195.53
-201.21
-201.39
-195.79
-185.13
-170.75
-154.29
-137.33
-121.32
-107.44
-96.38
-88.39
-83.15
-80.08
-78.55
-78.22
-79.02
-80.94
-83.91
-87.61
-91.71
-96.12
-101.09
-106.90
-113.32
-119.27
-122.87
-122.06
-115.48
-103.17
-86.64
-68.37
-50.99
-36.59
-26.26
-20.11
-17.50
-17.54
-19.42
-22.57
-26.56
-30.94
-34.91
-37.44
-37.39
-34.12
-27.69
-18.96
-9.21
0.51
9.77
18.89
28.52
39.08
50.31
61.36
71.21
79.16
85.12
89.53
92.91
95.50
97.10
97.33
96.10
94.12
92.89
94.40
100.35
111.37
126.68
144.30
161.75
176.77
188.11
195.52
199.59
201.07
200.39
197.28
190.89
180.21
164.65
144.55
121.33
96.97
73.20
50.78
29.58
9.08
-10.70
-29.07
-45.01
-58.47
-71.19
-86.56
-108.35
-139.03
-178.65
-225.07
-275.57
-328.61
-384.39
-443.53
-505.03
-564.88
-616.71
-654.19
-673.79
-676.16
-665.46
-647.00
-624.47
-598.89
-568.86
-532.42
-488.48
-437.34
-380.06
-317.48
-249.84
-176.98
-99.21
-18.22
62.80
139.66
208.03
264.59
308.00
338.86
359.41
372.43
380.38
384.90
386.96
387.17
385.88
383.07
378.09
369.70
356.79
339.10
317.80
295.20
273.89
255.74
241.33
229.96
220.34
211.25
202.27
193.79
186.73
182.01
180.10
180.79
183.28
186.33
188.73
189.58
188.47
185.37
180.38
173.57
164.97
154.46
142.08
128.16
113.26
98.15
83.63
70.45
59.10
49.92
42.90
37.84
34.27
31.47
28.60
24.88
19.92
13.84
7.27
1.04
-4.20
-8.40
-12.10
-16.26
-21.75
-28.96
-37.58
-46.61
-54.60
-60.18
-62.49
-61.42
-57.74
-52.86
-48.40
-45.77
-45.80
-48.63
-53.98
-61.35
-70.27
-80.42
-91.40
-102.76
-113.83
-123.87
-132.17
-138.31
-142.17
-143.98
-144.21
-143.48
-142.45
-141.69
-141.62
-142.45
-144.23
-146.89
-150.18
-153.72
-157.02
-159.45
-160.54
-159.95
-157.67
-153.82
-148.39
-141.16
-131.56
-118.82
-102.24
-81.37
-56.16
-27.13
4.79
38.21
71.33
102.14
128.59
149.10
162.77
169.72
170.99
168.32
163.62
158.40
153.50
149.08
144.85
140.46
135.70
130.60
125.14
119.19
112.33
104.19
94.64
83.93
72.62
61.30
50.32
39.69
29.12
18.25
6.94
-4.72
-16.38
-27.46
-37.27
-45.05
-50.05
-51.59
-49.36
-43.52
-34.85
-24.59
-14.08
-4.61
3.00
8.26
11.09
11.63
10.17
7.24
3.48
-0.13
-2.67
-3.39
-1.97
1.44
6.26
11.78
17.36
22.55
27.06
30.56
32.68
33.04
31.37
27.69
22.31
15.85
8.92
2.16
-3.97
-9.22
-13.57
-17.25
-20.64
-24.12
-27.67
-30.82
-32.62
-31.99
-28.24
-21.36
-12.19
-1.96
7.94
16.49
23.04
27.35
29.34
28.99
26.36
21.83
16.08
10.15
5.10
1.72
0.30
0.62
2.16
4.37
6.93
9.68
12.58
15.47
18.01
19.82
20.53
20.04
18.37
15.72
12.37
8.51
4.30
-0.20
-5.02
-10.34
-16.33
-22.96
-29.83
-35.98
-40.20
-41.26
-38.48
-31.88
-22.31
-11.05
0.49
11.10
19.87
26.21
29.81
30.55
28.66
24.66
19.40
13.83
8.81
4.96
2.56
1.58
1.76
2.70
4.00
5.36
6.44
7.04
7.01
6.29
4.94
3.07
0.90
-1.35
-3.49
-5.52
-7.59
-9.89
-12.71
-16.28
-20.74
-25.94
-31.55
-36.96
-41.27
-43.55
-43.09
-39.68
-33.64
-25.74
-16.87
-7.79
1.03
9.39
17.02
23.52
28.34
31.00
31.30
29.48
26.09
21.85
17.44
13.35
9.75
6.69
4.26
2.54
1.53
1.17
1.23
1.37
1.24
0.60
-0.59
-2.13
-3.65
-4.81
-5.48
-5.80
-6.15
-7.09
-9.13
-12.49
-17.00
-22.04
-26.65
-29.87
-30.78
-28.83
-23.90
-16.35
-6.95
3.16
12.86
21.13
27.24
30.84
31.88
30.62
27.41
22.76
17.15
11.17
5.45
0.56
-2.96
-4.83
-4.98
-3.67
-1.38
1.20
3.51
5.14
5.94
6.00
5.48
4.55
3.35
1.88
0.01
-2.36
-5.32
-8.99
-13.32
-18.28
-23.61
-28.76
-32.97
-35.37
-35.20
-32.01
-25.79
-17.01
-6.56
4.48
15.07
24.34
31.73
36.97
40.15
41.56
41.58
40.60
38.99
37.13
35.51
34.60
34.81
36.28
38.74
41.58
44.01
45.30
45.01
43.10
39.88
35.75
31.24
26.70
22.43
18.57
15.14
12.01
8.94
5.58
1.62
-3.03
-8.23
-13.44
-17.86
-20.62
-21.09
-18.94
-14.40
-8.09
-0.84
6.37
12.71
17.63
20.80
22.20
21.95
20.26
17.47
13.94
10.00
6.02
2.40
-0.55
-2.48
-3.22
-2.75
-1.26
0.94
3.36
5.57
7.30
8.33
8.74
8.66
8.27
7.69
6.92
5.78
4.06
1.60
-1.65
-5.54
-9.70
-13.54
-16.40
-17.68
-16.99
-14.37
-10.25
-5.39
-0.51
3.75
7.00
9.05
9.68
8.66
5.67
0.56
-6.59
-15.32
-24.89
-34.38
-42.89
-49.78
-54.63
-57.43
-58.37
-57.81
-56.23
-54.11
-51.94
-50.14
-48.98
-48.54
-48.81
-49.65
-50.88
-52.43
-54.25
-56.35
-58.78
-61.60
-64.87
-68.73
-73.17
-77.86
-82.16
-84.87
-84.67
-80.49
-71.85
-59.14
-43.55
-26.60
-9.70
6.05
20.08
32.02
41.63
48.69
53.17
55.25
55.45
54.44
52.80
50.93
48.99
46.98
45.02
43.36
42.40
42.45
43.57
45.32
46.88
47.17
45.17
40.38
32.73
22.83
11.65
0.25
-10.46
-19.83
-27.55
-33.64
-38.27
-41.80
-44.57
-46.80
-48.33
-48.68
-46.99
-42.38
-34.32
-22.75
-8.38
7.59
23.75
38.78
51.73
61.99
69.28
73.44
74.51
72.58
67.96
61.21
53.13
44.77
37.14
31.09
27.06
25.06
24.64
25.22
26.25
27.53
29.10
31.06
33.45
35.97
38.12
39.25
38.88
36.83
33.18
28.16
21.97
14.71
6.29
-3.42
-14.49
-26.86
-40.14
-53.69
-66.50
-77.45
-85.37
-89.54
-89.77
-86.39
-80.21
-72.16
-63.24
-54.27
-46.03
-39.12
-34.12
-31.39
-30.94
-32.33
-34.76
-37.26
-38.93
-39.22
-37.92
-35.32
-31.83
-27.92
-23.85
-19.70
-15.45
-11.16
-7.04
-3.44
-0.70
1.04
1.83
2.01
1.99
2.14
2.70
3.71
4.99
6.37
7.52
8.26
8.41
8.10
7.70
7.96
9.75
13.67
19.97
28.35
38.11
48.30
58.09
66.87
74.26
80.04
83.99
86.01
86.08
84.31
81.03
76.62
71.51
66.12
60.88
56.12
52.12
48.96
46.46
44.32
42.08
39.37
35.95
31.76
26.79
21.08
14.57
7.18
-1.02
-9.88
-18.94
-27.67
-35.45
-41.80
-46.43
-49.31
-50.65
-50.77
-50.04
-48.60
-46.30
-42.71
-37.20
-29.11
-18.04
-3.96
12.72
31.07
49.84
67.70
83.54
96.68
106.87
114.11
118.50
120.09
118.87
115.00
108.84
100.95
91.95
82.20
71.81
60.69
48.75
36.11
23.12
10.16
-2.45
-14.62
-26.37
-37.64
-48.17
-57.52
-65.16
-70.70
-74.11
-75.68
-75.90
-75.25
-74.05
-72.49
-70.72
-68.81
-66.70
-64.26
-61.13
-56.97
-51.54
-44.89
-37.54
-30.22
-23.75
-18.81
-15.86
-14.95
-15.85
-18.08
-20.92
-23.65
-25.58
-26.31
-25.74
-23.99
-21.29
-17.71
-13.19
-7.56
-0.80
6.91
15.22
23.69
32.07
40.31
48.46
56.37
63.70
69.74
73.85
75.71
75.59
74.22
72.41
70.76
69.37
68.05
66.61
65.14
64.18
64.38
66.26
69.75
74.27
78.81
82.26
83.60
81.99
76.84
67.71
54.53
37.69
18.06
-3.07
-24.28
-44.29
-62.18
-77.33
-89.45
-98.38
-104.17
-106.99
-107.36
-106.03
-103.80
-101.48
-99.50
-97.99
-96.81
-95.73
-94.51
-93.08
-91.45
-89.68
-87.93
-86.36
-85.19
-84.57
-84.53
-84.75
-84.60
-83.21
-79.75
-73.75
-65.31
-55.10
-44.20
-33.75
-24.70
-17.63
-12.77
-10.07
-9.36
-10.46
-13.08
-16.83
-21.10
-25.20
-28.42
-30.25
-30.48
-29.25
-26.94
-24.03
-20.97
-18.03
-15.38
-13.14
-11.46
-10.44
-10.20
-10.78
-12.04
-13.76
-15.68
-17.57
-19.41
-21.44
-23.97
-27.21
-31.08
-34.93
-37.79
-38.55
-36.35
-30.99
-23.02
-13.66
-4.32
3.66
9.46
12.77
13.71
12.61
9.81
5.56
-0.02
-6.72
-14.18
-21.74
-28.55
-33.82
-36.98
-37.81
-36.26
-32.38
-26.31
-18.36
-9.23
-0.19
7.25
11.94
13.55
12.78
11.10
9.98
10.20
11.63
13.50
14.91
15.46
15.49
15.86
17.55
21.24
26.96
34.13
41.83
49.07
55.09
59.47
62.04
62.72
61.34
57.61
51.42
43.00
33.11
22.93
13.71
6.52
1.94
-0.04
0.11
1.73
4.12
6.65
8.88
10.40
11.01
10.57
9.12
6.84
4.02
1.01
-1.94
-4.75
-7.65
-11.06
-15.43
-20.92
-27.17
-33.26
-37.91
-39.91
-38.44
-33.47
-25.64
-16.03
-5.87
3.81
12.19
18.72
23.06
25.09
24.80
22.46
18.56
13.68
8.60
4.01
0.49
-1.61
-2.27
-1.80
-0.70
0.51
1.32
1.45
0.83
-0.44
-2.18
-4.23
-6.49
-8.92
-11.50
-14.17
-16.91
-19.65
-22.46
-25.34
-28.18
-30.55
-31.69
-30.74
-26.99
-20.34
-11.36
-1.26
8.59
17.00
23.22
27.07
28.63
28.12
25.72
21.75
16.61
11.05
5.96
2.16
0.19
0.13
1.60
3.95
6.54
8.88
10.73
12.00
12.70
12.84
12.32
10.99
8.74
5.57
1.60
-2.91
-7.64
-12.38
-17.02
-21.51
-25.63
-28.85
-30.40
-29.46
-25.60
-18.90
-10.19
-0.73
8.09
15.13
19.69
21.45
20.43
16.75
10.83
3.28
-5.10
-13.38
-20.71
-26.60
-31.05
-34.43
-37.19
-39.61
-41.58
-42.70
-42.57
-41.21
-39.25
-37.83
-38.10
-40.71
-45.45
-51.29
-56.81
-60.68
-62.12
-60.97
-57.49
-52.09
-45.12
-36.74
-26.84
-15.17
-1.25
15.39
34.97
57.26
81.42
106.06
129.47
150.12
166.69
178.20
183.95
183.51
176.79
164.34
147.45
127.96
107.95
89.25
73.12
60.19
50.52
43.81
39.52
36.79
34.46
31.06
25.22
16.09
3.64
-11.16
-26.68
-41.10
-52.98
-61.63
-67.14
-70.14
-71.45
-71.69
-71.20
-70.05
-68.22
-65.79
-63.00
-60.00
-56.87
-53.47
-49.56
-44.94
-39.61
-33.85
-28.17
-23.23
-19.65
-17.83
-17.88
-19.53
-22.13
-24.76
-26.39
-26.11
-23.37
-18.07
-10.73
-2.22
6.38
14.02
19.93
23.61
24.87
23.79
20.73
16.29
11.18
6.33
2.54
0.40
0.12
1.51
4.13
7.39
10.77
13.73
16.01
17.50
18.31
18.63
18.69
18.67
18.56
18.25
17.59
16.52
15.10
13.50
11.81
9.98
7.92
5.43
2.46
-0.82
-4.05
-6.88
-9.08
-10.57
-11.55
-12.27
-12.95
-13.75
-14.66
-15.60
-16.55
-17.69
-19.23
-21.46
-24.38
-27.65
-30.47
-31.83
-30.86
-27.21
-21.33
-14.32
-7.61
-2.39
0.76
1.97
1.84
1.09
0.24
-0.45
-0.84
-0.78
0.06
2.01
5.19
9.39
14.12
18.72
22.73
25.92
28.31
30.14
31.58
32.68
33.33
33.43
32.89
31.80
30.32
28.73
27.27
26.17
25.53
25.29
25.26
25.23
25.02
24.53
23.74
22.65
21.21
19.33
16.96
14.08
10.83
7.39
3.94
0.49
-3.07
-6.91
-11.11
-15.59
-19.95
-23.61
-25.87
-26.13
-24.12
-19.88
-13.91
-7.03
-0.18
5.78
10.20
12.80
13.62
12.88
10.99
8.38
5.54
2.98
1.11
0.22
0.40
1.47
3.09
4.87
6.57
8.17
9.81
11.54
13.17
14.23
14.21
12.78
10.09
6.77
3.70
1.62
0.84
1.15
1.98
2.65
2.62
1.53
-0.80
-4.32
-8.62
-13.01
-16.53
-18.36
-18.23
-16.60
-14.67
-13.83
-15.19
-19.01
-24.70
-31.14
-36.95
-41.05
-42.71
-41.56
-37.31
-29.93
-19.57
-6.77
7.38
21.44
33.82
43.25
49.05
51.44
51.23
49.61
47.71
46.28
45.67
45.74
46.21
46.77
47.21
47.50
47.72
47.94
48.07
47.96
47.38
46.20
44.56
42.68
40.74
38.64
36.07
32.52
27.69
21.63
14.75
7.68
0.88
-5.42
-11.19
-16.35
-20.74
-24.06
-26.12
-27.02
-27.18
-27.17
-27.43
-28.11
-29.08
-30.15
-31.10
-31.77
-32.00
-31.48
-29.88
-26.86
-22.32
-16.60
-10.40
-4.66
-0.21
2.32
2.76
1.17
-2.10
-6.71
-12.27
-18.41
-24.60
-30.11
-34.12
-35.83
-34.75
-31.03
-25.44
-19.20
-13.46
-8.98
-5.74
-3.20
-0.60
2.52
6.13
9.82
13.14
16.16
19.39
23.61
29.32
36.30
43.43
48.99
51.19
48.77
41.51
30.30
16.93
3.49
-8.10
-16.70
-22.02
-24.51
-25.10
-24.82
-24.46
-24.52
-25.19
-26.33
-27.52
-28.21
-27.73
-25.50
-21.19
-14.98
-7.45
0.41
7.51
12.93
16.25
17.59
17.43
16.50
15.40
14.56
14.10
14.05
14.48
15.60
17.78
21.18
25.78
31.17
36.73
41.81
45.97
49.08
51.20
52.48
52.89
52.16
49.87
45.66
39.44
31.52
22.57
13.32
4.41
-3.85
-11.49
-18.87
-26.32
-34.07
-42.07
-50.03
-57.61
-64.48
-70.46
-75.49
-79.66
-83.11
-85.94
-88.23
-89.87
-90.62
-89.95
-87.33
-82.24
-74.43
-64.04
-51.59
-37.85
-23.63
-9.67
3.59
15.83
26.75
35.97
43.00
47.37
48.94
48.13
45.87
43.43
42.01
42.24
44.18
47.34
51.05
54.70
57.90
60.33
61.71
61.80
60.45
57.77
54.10
49.95
45.75
41.83
38.30
35.16
32.34
29.73
27.18
24.41
21.05
16.84
11.63
5.53
-1.18
-8.19
-15.20
-22.05
-28.76
-35.44
-42.24
-49.22
-56.23
-62.94
-68.79
-73.06
-75.11
-74.48
-71.19
-65.57
-58.28
-50.03
-41.46
-32.98
-25.03
-18.16
-13.10
-10.66
-11.32
-14.97
-20.81
-27.47
-33.53
-37.90
-40.09
-40.12
-38.36
-35.22
-31.02
-25.96
-20.22
-14.10
-8.08
-2.70
1.60
4.63
6.48
7.52
8.14
8.59
8.82
8.52
7.46
5.52
2.84
-0.25
-3.42
-6.44
-9.24
-11.81
-14.18
-16.32
-18.24
-20.06
-21.99
-24.17
-26.60
-28.91
-30.51
-30.72
-29.05
-25.39
-20.10
-13.76
-7.03
-0.45
5.71
11.44
16.71
21.43
25.30
27.97
29.16
28.80
27.14
24.63
21.85
19.27
17.23
15.88
15.27
15.37
16.06
17.23
18.69
20.31
21.89
23.29
24.36
24.93
24.88
24.19
23.05
21.81
20.93
20.71
21.26
22.34
23.47
24.25
24.47
24.26
24.03
24.33
25.73
28.68
33.52
40.38
49.15
59.37
70.17
80.36
88.68
94.17
96.37
95.43
91.92
86.56
79.84
72.03
63.19
53.36
42.75
31.78
21.01
10.93
1.89
-6.02
-12.83
-18.75
-23.99
-28.79
-33.38
-37.92
-42.52
-47.19
-51.92
-56.64
-61.37
-66.14
-70.97
-75.80
-80.45
-84.61
-87.99
-90.32
-91.56
-91.88
-91.51
-90.58
-89.01
-86.58
-82.93
-77.88
-71.41
-63.72
-55.25
-46.48
-37.78
-29.50
-21.88
-15.11
-9.47
-5.22
-2.46
-1.19
-1.16
-1.94
-3.04
-4.11
-4.93
-5.49
-5.84
-6.00
-5.92
-5.49
-4.62
-3.37
-1.84
-0.26
1.16
2.31
3.21
3.90
4.43
4.80
4.88
4.54
3.66
2.10
-0.23
-3.30
-6.95
-10.69
-13.78
-15.34
-14.48
-10.72
-4.28
4.03
12.95
21.20
27.90
32.76
35.96
38.03
39.49
40.63
41.57
42.34
42.90
43.22
43.20
42.65
41.40
39.38
36.75
33.98
31.64
30.15
29.56
29.51
29.35
28.57
26.93
24.64
22.09
19.68
17.53
15.61
13.72
11.77
9.97
8.77
8.69
10.19
13.43
18.21
24.11
30.58
37.09
43.25
48.70
53.05
55.78
56.35
54.29
49.49
42.26
33.32
23.66
14.24
5.77
-1.25
-6.77
-10.95
-14.16
-16.81
-19.35
-22.10
-25.35
-29.20
-33.56
-38.27
-43.12
-47.93
-52.64
-57.36
-62.22
-67.31
-72.50
-77.29
-80.96
-82.51
-81.03
-76.00
-67.49
-56.17
-43.22
-29.98
-17.63
-7.05
1.24
7.01
10.12
10.64
8.74
4.80
-0.64
-6.83
-13.02
-18.55
-22.91
-25.83
-27.15
-26.99
-25.55
-23.20
-20.31
-17.25
-14.32
-11.74
-9.65
-8.10
-7.12
-6.77
-7.12
-8.30
-10.41
-13.48
-17.27
-21.26
-24.63
-26.47
-25.99
-22.77
-16.98
-9.28
-0.71
7.68
14.98
20.61
24.33
26.13
26.13
24.47
21.40
17.18
12.22
7.07
2.37
-1.27
-3.40
-3.90
-2.99
-1.14
1.05
3.13
4.91
6.44
7.89
9.33
10.63
11.44
11.43
10.38
8.25
5.20
1.45
-2.67
-6.75
-10.14
-12.02
-11.54
-8.14
-1.81
6.86
16.80
26.81
35.92
43.44
49.03
52.58
54.06
53.51
51.16
47.40
42.86
38.27
34.28
31.36
29.72
29.28
29.73
30.74
31.94
33.08
33.98
34.50
34.36
33.24
30.73
26.57
20.79
13.61
5.39
-3.50
-12.82
-22.27
-31.33
-39.18
-44.83
-47.34
-46.33
-42.07
-35.52
-27.87
-20.19
-13.24
-7.35
-2.73
0.45
1.92
1.48
-0.94
-4.97
-9.86
-14.65
-18.43
-20.70
-21.43
-20.98
-19.82
-18.39
-16.92
-15.48
-14.08
-12.78
-11.65
-10.84
-10.43
-10.47
-10.96
-11.99
-13.75
-16.46
-20.25
-24.96
-30.02
-34.48
-37.24
-37.28
-34.08
-27.78
-19.13
-9.25
0.69
9.80
17.49
23.44
27.54
29.79
30.30
29.27
27.10
24.18
21.08
18.32
16.34
15.48
15.85
17.32
19.46
21.73
23.54
24.56
24.64
23.89
22.47
20.52
18.09
15.23
12.06
8.70
5.37
2.16
-0.96
-4.25
-8.00
-12.30
-16.80
-20.67
-22.81
-22.17
-18.26
-11.35
-2.44
7.09
15.98
23.30
28.59
31.71
32.64
31.39
28.10
23.11
17.09
10.96
5.56
1.52
-0.94
-1.95
-1.94
-1.31
-0.32
0.95
2.55
4.46
6.58
8.63
10.23
11.16
11.29
10.76
9.81
8.64
7.42
6.18
4.85
3.32
1.48
-0.80
-3.59
-6.74
-9.90
-12.43
-13.57
-12.80
-9.93
-5.26
0.48
6.34
11.42
15.09
17.08
17.47
16.43
14.25
11.25
7.74
4.13
0.96
-1.27
-2.18
-1.67
-0.03
2.25
4.60
6.60
8.08
8.99
9.35
9.17
8.49
7.40
6.07
4.71
3.42
2.17
0.72
-1.24
-4.02
-7.72
-12.19
-16.95
-21.32
-24.54
-25.93
-25.04
-21.81
-16.57
-9.95
-2.81
4.00
9.75
13.90
16.18
16.59
15.34
12.78
9.45
5.91
2.71
0.31
-1.00
-1.09
-0.07
1.79
4.03
6.25
8.09
9.35
10.04
10.21
9.92
9.15
7.82
5.89
3.43
0.71
-1.93
-4.19
-6.03
-7.62
-9.30
-11.32
-13.61
-15.74
-17.01
-16.69
-14.41
-10.26
-4.81
1.13
6.78
11.64
15.46
18.17
19.72
20.00
18.95
16.66
13.49
9.99
6.79
4.39
3.03
2.71
3.23
4.34
5.73
7.08
8.05
8.35
7.79
6.32
4.10
1.45
-1.25
-3.69
-5.72
-7.47
-9.14
-10.98
-13.07
-15.36
-17.70
-19.95
-22.09
-24.06
-25.76
-26.84
-26.83
-25.28
-21.98
-17.12
-11.28
-5.22
0.35
4.87
8.14
10.17
11.18
11.39
11.02
10.11
8.74
6.94
4.91
2.97
1.50
0.75
0.85
1.65
2.81
4.00
4.99
5.68
6.11
6.22
5.88
4.90
3.06
0.31
-3.20
-7.10
-10.90
-14.15
-16.58
-18.26
-19.46
-20.60
-22.03
-23.86
-25.83
-27.41
-27.88
-26.71
-23.65
-18.89
-12.92
-6.37
0.26
6.62
12.46
17.56
21.53
23.93
24.38
22.81
19.57
15.36
11.05
7.33
4.63
2.95
2.07
1.68
1.50
1.37
1.16
0.82
0.26
-0.55
-1.65
-2.96
-4.41
-5.88
-7.27
-8.52
-9.62
-10.63
-11.67
-12.87
-14.37
-16.21
-18.26
-20.22
-21.67
-22.08
-21.14
-18.69
-14.84
-9.93
-4.35
1.54
7.38
12.75
17.16
20.03
20.96
19.89
17.08
13.12
8.69
4.41
0.68
-2.23
-4.19
-5.21
-5.44
-5.23
-5.08
-5.43
-6.53
-8.32
-10.48
-12.58
-14.37
-15.76
-16.90
-18.04
-19.35
-20.94
-22.84
-25.01
-27.40
-29.85
-31.93
-32.96
-32.24
-29.25
-23.90
-16.65
-8.31
0.15
7.94
14.54
19.73
23.39
25.47
25.89
24.70
22.14
18.67
14.87
11.39
8.65
6.89
6.13
6.22
6.88
7.78
8.55
8.77
8.17
6.64
4.27
1.38
-1.70
-4.73
-7.64
-10.50
-13.52
-16.79
-20.38
-24.21
-27.99
-31.28
-33.49
-34.00
-32.28
-28.12
-21.74
-13.73
-5.01
3.47
10.88
16.72
20.78
23.03
23.58
22.50
19.94
16.21
11.82
7.45
3.83
1.47
0.59
1.00
2.29
4.01
5.77
7.35
8.63
9.49
9.76
9.22
7.79
5.51
2.61
-0.57
-3.75
-6.83
-9.92
-13.32
-17.44
-22.47
-28.27
-34.16
-39.05
-41.67
-41.00
-36.57
-28.71
-18.41
-7.01
4.06
13.72
21.27
26.43
29.23
29.77
28.37
25.41
21.42
17.04
13.00
9.97
8.38
8.37
9.68
11.75
13.97
15.80
16.95
17.37
17.24
16.65
15.64
14.00
11.51
8.04
3.75
-0.90
-5.28
-8.89
-11.53
-13.39
-15.03
-17.02
-19.80
-23.45
-27.68
-32.00
-35.77
-38.29
-38.89
-36.97
-32.24
-24.76
-15.11
-4.28
6.50
16.04
23.50
28.50
31.06
31.50
30.24
27.69
24.33
20.61
17.00
14.01
12.02
11.21
11.52
12.64
14.05
15.32
16.10
16.27
15.90
15.15
14.12
12.93
11.58
10.07
8.34
6.46
4.47
2.41
0.26
-2.11
-4.79
-7.79
-11.05
-14.40
-17.71
-20.97
-24.31
-27.89
-31.74
-35.52
-38.53
-39.81
-38.50
-34.09
-26.74
-17.19
-6.61
3.73
12.78
19.84
24.64
27.15
27.50
25.87
22.58
18.10
13.11
8.47
4.97
3.14
3.14
4.77
7.58
11.03
14.60
17.92
20.71
22.78
23.99
24.37
24.02
23.06
21.57
19.52
16.80
13.41
9.47
5.33
1.46
-1.76
-4.15
-5.85
-7.26
-8.83
-10.90
-13.64
-16.89
-20.32
-23.39
-25.47
-25.87
-24.11
-20.01
-13.87
-6.44
1.32
8.48
14.31
18.47
20.86
21.50
20.49
18.05
14.48
10.36
6.39
3.28
1.64
1.66
3.22
5.84
8.89
11.79
14.06
15.42
15.80
15.26
13.93
11.97
9.48
6.62
3.50
0.28
-2.92
-6.05
-9.09
-12.11
-15.14
-18.10
-20.89
-23.33
-25.37
-27.08
-28.69
-30.36
-32.11
-33.60
-34.20
-33.18
-29.84
-23.96
-15.77
-6.01
4.28
14.01
22.31
28.69
32.96
35.15
35.35
33.69
30.37
25.77
20.46
15.19
10.73
7.74
6.52
7.02
8.84
11.42
14.15
16.62
18.54
19.73
20.15
19.77
18.57
16.53
13.67
10.06
5.94
1.59
-2.66
-6.60
-10.05
-13.01
-15.55
-17.83
-19.96
-22.07
-24.26
-26.65
-29.26
-31.88
-33.95
-34.66
-33.20
-29.03
-22.19
-13.35
-3.62
5.90
14.24
20.85
25.54
28.21
28.83
27.42
24.10
19.31
13.82
8.58
4.55
2.40
2.28
3.85
6.43
9.26
11.80
13.77
15.19
16.15
16.70
16.71
16.02
14.45
11.99
8.83
5.25
1.63
-1.73
-4.62
-7.08
-9.25
-11.35
-13.68
-16.44
-19.75
-23.47
-27.23
-30.32
-31.90
-31.12
-27.40
-20.67
-11.49
-0.87
10.00
19.95
28.16
34.13
37.62
38.59
37.06
33.31
27.79
21.31
14.72
8.87
4.43
1.68
0.67
1.14
2.77
5.21
8.24
11.71
15.59
19.76
23.95
27.62
29.95
30.12
27.55
22.09
14.02
3.98
-7.20
-18.79
-30.07
-40.53
-49.77
-57.58
-63.89
-68.74
-72.12
-73.85
-73.52
-70.49
-64.29
-54.88
-42.75
-28.98
-14.86
-1.70
9.57
18.43
24.72
28.50
29.85
28.98
26.11
21.79
16.82
12.12
8.54
6.64
6.53
7.94
10.42
13.41
16.59
19.63
22.27
24.21
25.07
24.53
22.46
19.05
14.69
10.06
5.71
2.04
-0.78
-2.90
-4.53
-5.94
-7.36
-9.04
-11.11
-13.59
-16.28
-18.68
-20.19
-20.23
-18.42
-14.67
-9.33
-2.85
4.12
10.96
17.17
22.29
26.00
28.15
28.59
27.32
24.42
20.12
14.76
8.96
3.34
-1.33
-4.51
-5.91
-5.62
-4.01
-1.62
0.94
3.24
4.98
6.14
6.79
7.02
6.86
6.29
5.19
3.46
1.22
-1.33
-3.82
-6.01
-7.88
-9.64
-11.65
-14.28
-17.63
-21.49
-25.34
-28.49
-30.26
-30.10
-27.74
-23.21
-16.81
-9.10
-0.80
7.32
14.54
20.27
24.08
25.80
25.45
23.22
19.53
14.91
10.03
5.54
1.93
-0.54
-1.89
-2.35
-2.20
-1.59
-0.63
0.68
2.22
3.81
5.15
5.94
5.99
5.27
3.86
1.98
-0.11
-2.15
-3.97
-5.53
-6.89
-8.33
-10.10
-12.43
-15.35
-18.58
-21.50
-23.36
-23.41
-21.17
-16.54
-9.93
-2.04
6.27
14.18
21.08
26.52
30.22
31.94
31.61
29.28
25.32
20.31
15.01
10.13
6.19
3.43
1.79
1.02
0.77
0.80
0.95
1.21
1.54
1.87
2.07
1.93
1.29
0.14
-1.29
-2.65
-3.62
-4.11
-4.30
-4.66
-5.68
-7.80
-11.12
-15.44
-20.20
-24.58
-27.68
-28.68
-27.07
-22.79
-16.30
-8.38
-0.11
7.55
13.85
18.35
20.92
21.59
20.47
17.75
13.71
8.80
3.58
-1.25
-5.06
-7.40
-8.17
-7.54
-5.88
-3.66
-1.23
1.10
3.15
4.79
5.90
6.38
6.19
5.34
3.94
2.15
0.17
-1.93
-4.19
-6.73
-9.66
-12.88
-16.01
-18.43
-19.51
-18.69
-15.82
-11.15
-5.25
1.16
7.37
12.78
16.94
19.54
20.42
19.51
17.06
13.49
9.37
5.31
1.73
-1.16
-3.42
-5.20
-6.63
-7.72
-8.43
-8.78
-8.85
-8.81
-8.87
-9.09
-9.43
-9.79
-10.17
-10.75
-11.86
-13.84
-16.82
-20.62
-24.66
-28.17
-30.28
-30.25
-27.65
-22.39
-14.81
-5.66
4.11
13.48
21.54
27.64
31.47
32.98
32.31
29.70
25.43
19.87
13.49
6.91
0.75
-4.40
-8.21
-10.60
-11.82
-12.24
-12.21
-11.99
-11.61
-10.98
-10.04
-8.93
-7.98
-7.71
-8.68
-11.22
-15.45
-21.05
-27.39
-33.62
-38.84
-42.13
-42.75
-40.26
-34.65
-26.38
-16.32
-5.56
4.81
13.85
20.91
25.69
28.14
28.43
26.86
23.90
20.10
16.04
12.39
9.64
8.08
7.66
8.04
8.64
8.96
8.63
7.61
6.09
4.26
2.23
-0.05
-2.77
-6.05
-9.89
-14.18
-18.69
-23.18
-27.38
-30.87
-33.12
-33.46
-31.31
-26.45
-19.10
-10.06
-0.47
8.43
15.70
20.78
23.57
24.33
23.38
21.10
17.86
14.01
10.06
6.69
4.51
3.94
4.99
7.24
9.99
12.52
14.26
15.02
14.85
14.00
12.70
11.13
9.30
7.21
4.81
2.05
-1.11
-4.76
-8.89
-13.40
-17.82
-21.46
-23.42
-22.98
-19.76
-13.95
-6.23
2.42
11.00
18.62
24.62
28.66
30.50
30.19
27.99
24.35
19.90
15.33
11.24
8.03
5.92
4.93
5.00
5.97
7.52
9.23
10.57
11.02
10.20
8.11
5.09
1.73
-1.42
-4.03
-6.07
-7.82
-9.62
-11.83
-14.61
-17.99
-21.72
-25.40
-28.50
-30.33
-30.27
-27.95
-23.34
-16.82
-9.12
-1.09
6.48
12.97
17.96
21.24
22.68
22.36
20.43
17.19
13.14
8.88
5.08
2.34
1.00
1.13
2.50
4.64
7.02
9.20
10.85
11.79
11.90
11.12
9.54
7.35
4.79
2.22
-0.08
-2.00
-3.58
-4.99
-6.39
-7.90
-9.60
-11.52
-13.60
-15.70
-17.61
-18.87
-19.00
-17.52
-14.25
-9.31
-3.23
3.37
9.81
15.47
19.98
22.97
24.22
23.64
21.36
17.77
13.50
9.29
5.74
3.32
2.13
2.00
2.60
3.54
4.49
5.22
5.60
5.55
5.01
3.94
2.35
0.38
-1.69
-3.57
-4.99
-5.91
-6.50
-7.05
-7.90
-9.25
-11.11
-13.32
-15.63
-17.68
-19.18
-19.71
-18.94
-16.58
-12.64
-7.43
-1.51
4.37
9.56
13.58
16.16
17.21
16.75
14.93
12.05
8.63
5.24
2.56
1.06
0.97
2.21
4.38
7.00
9.52
11.52
12.74
13.12
12.74
11.70
10.13
8.07
5.64
2.92
0.17
-2.45
-4.80
-6.93
-9.05
-11.45
-14.37
-17.84
-21.61
-25.11
-27.63
-28.52
-27.36
-24.04
-18.86
-12.43
-5.40
1.51
7.74
12.85
16.48
18.35
18.29
16.38
12.94
8.62
4.22
0.52
-1.95
-2.92
-2.52
-1.07
1.07
3.47
5.84
7.90
9.40
10.08
9.84
8.62
6.59
4.02
1.29
-1.28
-3.48
-5.29
-6.87
-8.39
-10.16
-12.31
-14.85
-17.60
-20.17
-22.06
-22.74
-21.79
-18.99
-14.48
-8.62
-2.02
4.66
10.89
16.24
20.40
23.16
24.35
23.81
21.61
18.06
13.73
9.48
6.05
4.02
3.59
4.60
6.52
8.82
11.06
12.90
14.25
15.05
15.23
14.68
13.33
11.13
8.25
4.96
1.54
-1.66
-4.53
-7.09
-9.42
-11.72
-14.13
-16.76
-19.64
-22.72
-25.73
-28.27
-29.83
-29.85
-27.98
-24.14
-18.65
-12.12
-5.35
0.95
6.26
10.27
12.91
14.14
14.03
12.72
10.54
7.88
5.28
3.24
2.07
2.00
2.99
4.89
7.43
10.25
12.96
15.18
16.69
17.31
17.03
15.81
13.68
10.65
6.84
2.50
-2.01
-6.29
-10.07
-13.20
-15.69
-17.69
-19.36
-20.87
-22.35
-23.87
-25.38
-26.75
-27.57
-27.35
-25.51
-21.64
-15.72
-8.22
-0.02
7.88
14.58
19.61
22.80
24.25
24.09
22.38
19.25
14.92
9.97
5.20
1.41
-0.93
-1.74
-1.37
-0.35
0.84
1.86
2.64
3.11
3.35
3.33
3.07
2.62
1.98
1.23
0.35
-0.68
-1.85
-3.07
-4.22
-5.25
-6.17
-7.15
-8.42
-10.19
-12.58
-15.48
-18.54
-21.15
-22.68
-22.56
-20.45
-16.32
-10.51
-3.62
3.54
10.19
15.67
19.47
21.38
21.45
19.90
17.17
13.65
9.82
6.14
2.96
0.62
-0.74
-1.04
-0.40
0.99
2.80
4.72
6.50
7.97
9.05
9.68
9.80
9.30
8.11
6.32
4.11
1.81
-0.29
-2.07
-3.57
-5.04
-6.79
-9.05
-11.84
-15.08
-18.45
-21.58
-23.87
-24.75
-23.77
-20.73
-15.87
-9.78
-3.34
2.60
7.36
10.65
12.45
12.92
12.22
10.47
7.84
4.56
1.03
-2.33
-5.17
-7.25
-8.63
-9.42
-9.80
-9.76
-9.26
-8.21
-6.64
-4.78
-2.99
-1.68
-1.04
-1.10
-1.63
-2.30
-2.88
-3.31
-3.74
-4.50
-5.90
-8.08
-10.92
-14.07
-17.04
-19.33
-20.49
-20.20
-18.31
-14.75
-9.68
-3.43
3.39
10.06
15.78
19.91
22.11
22.30
20.75
17.89
14.19
10.11
6.05
2.34
-0.73
-2.97
-4.30
-4.71
-4.42
-3.69
-2.83
-2.07
-1.50
-1.12
-0.81
-0.54
-0.32
-0.35
-0.87
-2.13
-4.24
-7.15
-10.63
-14.26
-17.52
-19.73
-20.29
-18.87
-15.45
-10.40
-4.46
1.53
6.86
11.02
13.88
15.45
15.81
14.97
12.98
10.01
6.39
2.65
-0.62
-2.87
-3.82
-3.49
-2.27
-0.77
0.40
0.80
0.30
-0.88
-2.42
-3.94
-5.33
-6.69
-8.29
-10.39
-13.19
-16.78
-21.12
-25.97
-30.87
-35.11
-37.77
-38.00
-35.20
-29.32
-20.89
-10.87
-0.44
9.34
17.63
23.99
28.17
30.06
29.67
27.07
22.52
16.53
9.87
3.45
-1.82
-5.27
-6.68
-6.20
-4.37
-1.85
0.70
2.85
4.33
5.00
4.78
3.56
1.27
-2.03
-6.24
-11.15
-16.53
-22.13
-27.62
-32.49
-35.98
-37.21
-35.47
-30.50
-22.63
-12.77
-2.14
8.09
17.00
24.05
29.01
31.71
32.17
30.54
27.13
22.52
17.43
12.67
8.88
6.48
5.53
5.75
6.67
7.72
8.40
8.38
7.58
6.06
4.10
2.06
0.21
-1.30
-2.46
-3.54
-4.86
-6.80
-9.59
-13.19
-17.23
-21.03
-23.74
-24.49
-22.59
-17.78
-10.32
-1.05
8.91
18.28
25.99
31.32
34.01
34.15
32.05
28.19
23.11
17.55
12.27
8.06
5.51
4.81
5.71
7.62
9.84
11.67
12.78
12.97
12.30
10.93
9.03
6.83
4.44
2.00
-0.47
-2.95
-5.53
-8.27
-11.23
-14.46
-17.87
-21.19
-23.85
-25.05
-23.92
-19.93
-13.08
-4.01
6.11
15.97
24.46
30.81
34.74
36.22
35.38
32.45
27.80
22.00
15.84
10.17
5.72
2.92
1.80
2.08
3.24
4.77
6.23
7.35
8.03
8.14
7.64
6.48
4.71
2.49
0.03
-2.45
-4.83
-7.11
-9.43
-12.02
-15.01
-18.30
-21.50
-23.96
-24.95
-23.82
-20.26
-14.35
-6.65
1.96
10.48
18.00
23.82
27.54
29.01
28.23
25.40
20.88
15.26
9.26
3.68
-0.75
-3.53
-4.49
-3.80
-1.89
0.71
3.49
6.00
7.92
9.14
9.64
9.49
8.81
7.72
6.32
4.60
2.52
-0.07
-3.17
-6.81
-10.78
-14.82
-18.45
-21.21
-22.58
-22.07
-19.41
-14.57
-7.97
-0.37
7.20
13.71
18.41
20.86
21.12
19.49
16.46
12.48
8.15
3.98
0.53
-1.75
-2.62
-2.07
-0.40
1.93
4.30
6.25
7.43
7.65
6.96
5.53
3.68
1.62
-0.41
-2.39
-4.38
-6.55
-9.14
-12.26
-15.93
-19.85
-23.48
-26.03
-26.64
-24.72
-20.14
-13.38
-5.25
3.15
10.88
17.25
21.86
24.59
25.35
24.15
21.03
16.33
10.60
4.69
-0.51
-4.32
-6.36
-6.75
-5.86
-4.24
-2.36
-0.59
0.81
1.67
1.86
1.37
0.23
-1.39
-3.34
-5.49
-7.77
-10.18
-12.80
-15.67
-18.74
-21.86
-24.63
-26.44
-26.65
-24.69
-20.35
-13.92
-6.21
1.75
8.92
14.57
18.35
20.18
20.18
18.56
15.52
11.35
6.49
1.54
-2.83
-6.02
-7.68
-7.73
-6.43
-4.26
-1.80
0.42
2.02
2.94
3.21
2.92
2.02
0.41
-2.02
-5.23
-9.03
-13.22
-17.62
-22.23
-27.02
-31.77
-35.84
-38.20
-37.76
-33.78
-26.33
-16.32
-5.20
5.55
14.80
21.93
26.76
29.29
29.58
27.74
24.03
19.01
13.58
8.77
5.33
3.67
3.65
4.88
6.80
8.95
10.98
12.60
13.60
13.73
12.86
11.04
8.54
5.75
3.03
0.49
-1.98
-4.71
-8.07
-12.40
-17.86
-24.25
-30.98
-37.07
-41.35
-42.69
-40.45
-34.67
-26.11
-15.97
-5.54
4.12
12.32
18.71
23.12
25.43
25.66
23.94
20.76
16.79
12.93
9.98
8.51
8.66
10.13
12.28
14.39
15.84
16.32
15.89
14.79
13.30
11.59
9.62
7.28
4.52
1.39
-1.80
-4.72
-7.09
-8.83
-10.08
-11.20
-12.65
-14.80
-17.82
-21.53
-25.44
-28.78
-30.78
-30.64
-27.93
-22.56
-14.87
-5.67
4.09
13.33
21.12
26.82
30.09
30.90
29.51
26.39
22.15
17.63
13.61
10.82
9.70
10.29
12.29
15.12
18.12
20.66
22.35
23.00
22.63
21.38
19.45
17.00
14.18
11.13
7.92
4.65
1.39
-1.77
-4.76
-7.54
-10.06
-12.29
-14.23
-15.92
-17.51
-19.22
-21.34
-24.07
-27.48
-31.33
-35.05
-37.77
-38.50
-36.49
-31.43
-23.67
-14.13
-4.02
5.56
13.78
20.19
24.59
26.88
27.04
25.21
21.78
17.55
13.48
10.48
9.15
9.55
11.34
13.99
16.97
19.89
22.58
24.84
26.48
27.24
26.84
25.23
22.51
19.00
15.15
11.29
7.56
3.95
0.38
-3.22
-6.75
-10.03
-12.84
-15.06
-16.67
-17.79
-18.66
-19.49
-20.64
-22.39
-24.95
-28.30
-32.08
-35.57
-37.85
-37.94
-35.22
-29.61
-21.58
-12.05
-2.13
7.15
14.99
20.83
24.37
25.46
24.17
20.88
16.25
11.24
6.86
3.94
2.90
3.66
5.79
8.69
11.91
15.14
18.19
20.99
23.36
25.00
25.64
25.13
23.51
21.10
18.25
15.28
12.35
9.45
6.52
3.52
0.61
-2.06
-4.31
-6.13
-7.67
-9.18
-10.92
-13.05
-15.58
-18.48
-21.62
-24.74
-27.39
-28.91
-28.61
-25.98
-20.94
-13.91
-5.74
2.51
9.93
15.85
19.91
22.05
22.31
20.80
17.78
13.63
8.85
4.15
0.15
-2.64
-3.96
-3.92
-2.92
-1.46
-0.03
1.12
1.97
2.67
3.36
4.07
4.62
4.76
4.23
2.92
0.86
-1.80
-4.85
-8.08
-11.36
-14.57
-17.65
-20.54
-23.32
-26.18
-29.33
-32.86
-36.54
-39.81
-41.76
-41.44
-38.22
-31.98
-23.26
-13.01
-2.32
7.90
17.01
24.61
30.41
34.17
35.74
35.15
32.73
29.01
24.77
20.70
17.38
15.06
13.72
13.25
13.37
13.83
14.40
14.93
15.27
15.33
15.06
14.34
13.16
11.41
9.08
6.15
2.78
-0.78
-4.22
-7.25
-9.82
-12.04
-14.24
-16.70
-19.64
-23.01
-26.43
-29.36
-31.06
-30.90
-28.43
-23.55
-16.47
-7.77
1.76
11.21
19.67
26.40
30.91
32.96
32.55
29.94
25.59
20.15
14.36
8.96
4.55
1.43
-0.34
-0.98
-0.82
-0.21
0.59
1.42
2.12
2.63
2.79
2.51
1.72
0.44
-1.21
-3.00
-4.70
-6.12
-7.19
-8.07
-9.01
-10.27
-12.13
-14.70
-17.85
-21.27
-24.47
-26.69
-27.16
-25.24
-20.63
-13.58
-4.85
4.45
13.17
20.36
25.46
28.21
28.63
26.97
23.64
19.19
14.24
9.44
5.32
2.17
0.11
-0.99
-1.27
-0.94
-0.14
1.00
2.30
3.57
4.59
5.11
4.98
4.17
2.77
0.95
-1.13
-3.37
-5.73
-8.25
-10.96
-13.96
-17.27
-20.88
-24.50
-27.57
-29.30
-28.95
-26.05
-20.67
-13.41
-5.25
2.78
9.88
15.60
19.75
22.30
23.28
22.71
20.73
17.59
13.72
9.56
5.57
2.11
-0.62
-2.49
-3.48
-3.64
-3.10
-2.06
-0.79
0.41
1.23
1.44
0.95
-0.16
-1.71
-3.46
-5.28
-7.22
-9.45
-12.14
-15.22
-18.39
-21.05
-22.51
-22.13
-19.54
-14.73
-8.03
-0.02
8.48
16.68
23.86
29.47
33.21
34.97
34.79
32.80
29.21
24.25
18.37
12.12
6.11
0.91
-3.06
-5.63
-6.90
-7.17
-6.86
-6.34
-5.91
-5.76
-5.97
-6.59
-7.69
-9.26
-11.24
-13.52
-15.90
-18.25
-20.48
-22.56
-24.43
-25.91
-26.54
-25.70
-22.79
-17.58
-10.30
-1.70
7.20
15.29
21.68
25.89
27.80
27.52
25.39
21.85
17.38
12.53
7.84
3.77
0.68
-1.27
-2.12
-2.09
-1.53
-0.89
-0.49
-0.47
-0.80
-1.29
-1.73
-2.07
-2.37
-2.87
-3.89
-5.66
-8.32
-11.78
-15.81
-20.02
-23.85
-26.56
-27.54
-26.33
-22.85
-17.45
-10.84
-3.85
2.79
8.48
12.89
15.75
16.94
16.43
14.36
11.12
7.33
3.70
0.83
-0.83
-1.16
-0.29
1.39
3.48
5.65
7.69
9.50
11.02
12.18
12.80
12.62
11.50
9.37
6.32
2.60
-1.57
-5.96
-10.33
-14.33
-17.54
-19.41
-19.57
-17.87
-14.47
-9.84
-4.57
0.71
5.42
9.10
11.35
11.86
10.52
7.40
2.85
-2.67
-8.54
-14.18
-19.09
-22.89
-25.41
-26.69
-26.87
-26.21
-24.89
-23.05
-20.81
-18.24
-15.59
-13.19
-11.47
-10.83
-11.58
-13.73
-16.98
-20.73
-24.13
-26.25
-26.37
-24.13
-19.68
-13.55
-6.51
0.69
7.42
13.24
17.80
20.81
22.08
21.46
19.04
15.17
10.44
5.57
1.29
-1.89
-3.78
-4.36
-3.90
-2.69
-1.04
0.79
2.61
4.32
5.79
6.85
7.33
7.01
5.69
3.26
-0.19
-4.30
-8.45
-11.93
-14.07
-14.44
-12.92
-9.71
-5.20
0.06
5.54
10.79
15.32
18.76
20.82
21.35
20.39
18.19
15.05
11.38
7.53
3.86
0.65
-1.83
-3.43
-4.15
-4.09
-3.52
-2.70
-1.86
-1.18
-0.70
-0.47
-0.61
-1.28
-2.71
-5.05
-8.21
-11.72
-14.81
-16.51
-16.01
-12.99
-7.65
-0.70
6.90
14.28
20.78
25.97
29.48
31.02
30.40
27.65
23.16
17.64
12.07
7.37
4.05
2.16
1.38
1.21
1.24
1.24
1.24
1.32
1.51
1.69
1.65
1.15
-0.01
-1.94
-4.74
-8.49
-13.06
-17.97
-22.28
-24.80
-24.42
-20.61
-13.72
-4.93
4.11
11.85
17.31
20.24
20.87
19.62
16.83
12.84
8.12
3.28
-0.89
-3.72
-4.86
-4.48
-3.13
-1.56
-0.37
0.22
0.24
-0.08
-0.58
-1.27
-2.35
-4.10
-6.78
-10.36
-14.55
-18.74
-22.19
-24.13
-23.94
-21.25
-16.11
-9.07
-0.94
7.25
14.56
20.31
24.12
25.86
25.60
23.51
19.94
15.39
10.46
5.77
1.82
-1.13
-3.03
-3.99
-4.28
-4.13
-3.84
-3.64
-3.69
-4.02
-4.64
-5.60
-6.99
-9.03
-11.82
-15.28
-18.94
-21.99
-23.43
-22.49
-18.79
-12.52
-4.44
4.43
12.91
20.06
25.20
28.02
28.46
26.69
23.07
18.11
12.56
7.23
2.88
0.13
-0.82
-0.11
1.74
4.13
6.48
8.43
9.75
10.35
10.19
9.20
7.32
4.42
0.41
-4.70
-10.68
-16.96
-22.65
-26.65
-27.94
-25.84
-20.41
-12.31
-2.72
7.02
15.74
22.67
27.42
29.84
29.99
27.93
23.96
18.60
12.70
7.27
3.29
1.31
1.23
2.44
4.04
5.26
5.68
5.33
4.45
3.27
1.92
0.23
-1.91
-4.50
-7.36
-10.32
-13.28
-16.26
-19.32
-22.32
-24.75
-25.75
-24.41
-20.13
-13.06
-4.02
5.68
14.68
21.86
26.56
28.65
28.22
25.66
21.53
16.67
12.02
8.47
6.58
6.34
7.32
8.79
10.06
10.78
11.01
10.94
10.72
10.40
9.73
8.46
6.37
3.57
0.26
-3.15
-6.38
-9.25
-11.75
-14.06
-16.45
-19.26
-22.65
-26.57
-30.61
-34.09
-36.07
-35.61
-32.07
-25.36
-16.03
-5.11
6.03
16.09
24.05
29.27
31.55
30.94
27.80
22.84
17.03
11.57
7.55
5.73
6.21
8.60
12.08
15.75
18.93
21.27
22.67
23.21
23.04
22.24
20.89
18.99
16.62
13.85
10.85
7.76
4.74
1.96
-0.60
-3.00
-5.43
-8.00
-10.80
-13.71
-16.55
-19.08
-21.14
-22.74
-24.11
-25.53
-27.41
-30.02
-33.36
-37.04
-40.22
-41.78
-40.65
-36.20
-28.54
-18.55
-7.60
2.83
11.55
17.81
21.33
22.19
20.74
17.59
13.57
9.71
7.04
6.30
7.68
10.75
14.59
18.17
20.75
22.12
22.62
22.81
23.24
24.13
25.32
26.41
27.02
26.86
25.85
23.99
21.39
18.17
14.54
10.70
6.91
3.31
-0.02
-3.13
-6.08
-8.89
-11.53
-13.93
-16.06
-17.96
-19.77
-21.68
-23.89
-26.47
-29.39
-32.33
-34.76
-35.98
-35.23
-31.96
-26.05
-17.85
-8.20
1.81
11.13
18.79
24.14
26.81
26.73
24.17
19.80
14.60
9.74
6.25
4.79
5.47
7.96
11.64
15.86
20.09
23.89
26.94
28.96
29.67
29.00
27.08
24.18
20.67
16.83
12.79
8.68
4.62
0.86
-2.27
-4.53
-5.95
-6.72
-7.23
-7.91
-8.93
-10.34
-11.99
-13.63
-15.07
-16.26
-17.25
-18.14
-19.11
-20.30
-21.90
-24.15
-27.08
-30.48
-33.79
-36.06
-36.28
-33.72
-28.21
-20.28
-11.01
-1.55
7.03
14.06
19.16
22.14
22.94
21.67
18.65
14.54
10.24
6.66
4.60
4.38
5.92
8.65
11.90
15.02
17.60
19.52
20.78
21.41
21.38
20.64
19.08
16.77
13.94
10.88
7.83
4.91
2.10
-0.69
-3.51
-6.39
-9.21
-11.74
-13.76
-15.05
-15.59
-15.49
-15.04
-14.62
-14.58
-15.18
-16.50
-18.56
-21.27
-24.57
-28.40
-32.48
-36.24
-38.79
-39.13
-36.42
-30.48
-21.77
-11.54
-1.26
7.69
14.50
18.89
20.96
20.99
19.21
15.92
11.64
7.14
3.45
1.49
1.77
4.18
7.99
12.19
15.89
18.62
20.26
21.01
20.99
20.16
18.39
15.59
11.88
7.62
3.35
-0.48
-3.60
-6.08
-8.12
-9.98
-11.83
-13.66
-15.42
-16.97
-18.29
-19.40
-20.42
-21.38
-22.31
-23.23
-24.18
-25.30
-26.70
-28.33
-29.77
-30.35
-29.26
-25.85
-19.99
-12.15
-3.25
5.59
13.39
19.59
23.92
26.39
27.14
26.35
24.15
20.80
16.73
12.56
8.90
6.33
5.09
5.12
6.07
7.49
8.86
9.87
10.39
10.48
10.27
9.88
9.38
8.68
7.67
6.22
4.26
1.83
-0.92
-3.82
-6.69
-9.39
-11.91
-14.22
-16.40
-18.58
-21.01
-23.82
-27.12
-30.81
-34.54
-37.62
-39.29
-38.80
-35.69
-29.98
-22.16
-13.09
-3.81
4.73
11.85
17.17
20.63
22.28
22.28
20.85
18.31
15.12
11.91
9.30
7.76
7.40
7.94
8.88
9.70
10.08
9.96
9.49
8.88
8.20
7.34
6.10
4.28
1.87
-0.96
-3.94
-6.74
-9.22
-11.37
-13.30
-15.13
-17.02
-19.12
-21.53
-24.37
-27.57
-30.83
-33.45
-34.46
-32.98
-28.48
-21.08
-11.49
-0.82
9.77
19.28
26.98
32.37
35.11
35.03
32.30
27.42
21.21
14.69
8.76
4.04
0.83
-0.92
-1.37
-0.76
0.70
2.73
4.99
7.11
8.70
9.34
8.77
6.94
3.96
0.18
-3.97
-8.09
-11.99
-15.62
-19.16
-22.87
-26.91
-31.27
-35.67
-39.40
-41.56
-41.20
-37.58
-30.43
-20.17
-7.75
5.46
18.16
29.29
38.09
44.10
47.02
46.74
43.34
37.34
29.67
21.60
14.38
8.98
5.86
4.95
5.73
7.50
9.62
11.54
12.91
13.50
13.17
11.84
9.62
6.70
3.36
-0.11
-3.57
-7.03
-10.57
-14.33
-18.50
-23.18
-28.39
-33.92
-39.20
-43.27
-45.00
-43.35
-37.81
-28.72
-17.16
-4.67
7.26
17.50
25.40
30.74
33.57
34.04
32.43
29.08
24.43
19.06
13.66
8.90
5.37
3.48
3.25
4.47
6.72
9.42
12.10
14.49
16.40
17.63
18.00
17.26
15.32
12.32
8.60
4.61
0.72
-2.95
-6.56
-10.41
-14.80
-19.77
-25.02
-29.84
-33.22
-34.15
-31.88
-26.17
-17.44
-6.69
4.68
15.26
23.88
29.85
32.88
33.06
30.75
26.42
20.63
14.02
7.24
0.97
-4.17
-7.72
-9.47
-9.53
-8.29
-6.25
-3.97
-1.85
-0.16
0.94
1.34
1.03
0.01
-1.62
-3.65
-5.76
-7.65
-9.12
-10.20
-11.20
-12.57
-14.76
-17.96
-21.88
-25.77
-28.51
-28.98
-26.51
-21.03
-13.15
-3.89
5.56
14.19
21.33
26.53
29.66
30.67
29.67
26.90
22.79
17.95
13.03
8.67
5.24
3.00
1.87
1.66
2.06
2.68
3.22
3.44
3.21
2.48
1.34
-0.14
-1.82
-3.59
-5.44
-7.42
-9.62
-12.16
-15.22
-18.89
-23.19
-27.85
-32.17
-35.20
-35.92
-33.56
-27.94
-19.58
-9.52
0.99
10.80
19.12
25.45
29.58
31.36
30.74
27.83
22.95
16.71
9.90
3.42
-1.99
-5.84
-7.99
-8.58
-7.95
-6.45
-4.49
-2.39
-0.47
1.00
1.82
1.90
1.23
-0.10
-1.94
-4.16
-6.77
-9.81
-13.45
-17.67
-22.17
-26.35
-29.29
-30.03
-27.85
-22.58
-14.63
-4.97
5.23
14.89
23.15
29.51
33.72
35.70
35.45
33.18
29.19
23.99
18.25
12.66
7.84
4.23
1.97
0.90
0.73
1.00
1.30
1.34
0.95
0.15
-0.99
-2.38
-4.02
-5.90
-8.12
-10.85
-14.25
-18.50
-23.55
-29.07
-34.35
-38.32
-39.78
-37.80
-32.10
-23.15
-12.24
-0.95
9.20
17.19
22.56
25.35
25.77
24.06
20.45
15.23
8.98
2.60
-2.89
-6.60
-8.09
-7.53
-5.62
-3.21
-1.03
0.58
1.67
2.47
3.10
3.45
3.27
2.22
0.20
-2.66
-6.11
-9.89
-13.83
-17.75
-21.32
-23.89
-24.66
-22.89
-18.27
-11.14
-2.35
6.92
15.64
22.97
28.45
31.78
32.72
31.09
26.87
20.43
12.54
4.38
-2.85
-8.21
-11.25
-12.12
-11.39
-9.88
-8.21
-6.74
-5.59
-4.68
-4.04
-3.80
-4.21
-5.56
-8.04
-11.61
-16.11
-21.22
-26.44
-31.12
-34.44
-35.55
-33.71
-28.68
-20.78
-10.90
-0.27
9.95
18.86
25.82
30.42
32.36
31.48
27.93
22.26
15.46
8.80
3.41
-0.02
-1.35
-1.00
0.29
1.77
2.80
3.08
2.54
1.29
-0.51
-2.69
-5.15
-8.00
-11.40
-15.60
-20.65
-26.32
-31.87
-36.20
-38.04
-36.42
-31.00
-22.22
-11.24
0.51
11.59
20.94
27.96
32.32
33.91
32.73
29.00
23.19
16.20
9.13
3.12
-1.04
-3.10
-3.37
-2.55
-1.42
-0.55
-0.16
-0.21
-0.51
-0.98
-1.76
-3.18
-5.56
-9.12
-13.84
-19.48
-25.46
-30.89
-34.76
-36.03
-33.93
-28.15
-19.07
-7.53
5.20
17.78
28.98
37.87
43.78
46.40
45.67
41.90
35.77
28.23
20.42
13.40
7.91
4.25
2.18
1.15
0.54
-0.04
-0.64
-1.11
-1.24
-1.05
-0.74
-0.77
-1.68
-3.88
-7.60
-12.82
-19.15
-25.80
-31.70
-35.55
-36.21
-33.06
-26.16
-16.29
-4.70
7.21
18.15
27.09
33.26
36.19
35.71
32.09
26.00
18.53
11.07
4.93
1.10
-0.04
1.23
4.10
7.52
10.54
12.52
13.21
12.68
11.15
8.83
5.80
2.07
-2.44
-7.75
-13.87
-20.55
-27.26
-33.06
-36.76
-37.18
-33.55
-25.81
-14.80
-1.95
11.06
22.72
32.00
38.37
41.58
41.63
38.69
33.18
25.93
18.07
10.91
5.54
2.62
2.04
3.20
5.15
6.98
8.14
8.51
8.21
7.49
6.62
5.60
4.35
2.55
-0.09
-3.88
-8.99
-15.31
-22.29
-28.94
-33.92
-35.86
-33.80
-27.51
-17.60
-5.41
7.38
19.12
28.57
34.99
38.12
38.05
35.12
29.92
23.30
16.27
9.95
5.19
2.54
2.12
3.67
6.57
10.09
13.44
16.02
17.46
17.70
17.01
15.76
14.22
12.53
10.54
7.95
4.57
0.37
-4.52
-9.83
-15.32
-20.59
-25.03
-27.77
-27.85
-24.65
-18.12
-9.05
1.25
11.30
19.87
26.28
30.31
31.95
31.23
28.27
23.35
17.09
10.44
4.51
0.20
-2.05
-2.26
-0.88
1.43
4.10
6.70
8.96
10.68
11.65
11.52
10.11
7.25
3.11
-1.87
-7.08
-11.92
-15.95
-19.17
-21.92
-24.71
-28.05
-32.15
-36.80
-41.31
-44.60
-45.48
-43.01
-36.79
-27.12
-14.99
-1.81
10.93
22.08
30.86
36.85
39.82
39.69
36.56
30.84
23.40
15.48
8.45
3.52
1.27
1.67
4.03
7.38
10.77
13.53
15.37
16.24
16.26
15.48
13.91
11.62
8.73
5.52
2.35
-0.50
-2.94
-5.07
-7.19
-9.55
-12.41
-15.93
-20.12
-24.86
-29.87
-34.50
-37.88
-38.96
-36.88
-31.27
-22.48
-11.45
0.43
11.77
21.41
28.58
32.87
34.11
32.37
27.99
21.72
14.62
7.88
2.60
-0.53
-1.43
-0.47
1.62
4.10
6.39
8.15
9.24
9.62
9.31
8.26
6.53
4.17
1.33
-1.77
-4.87
-7.77
-10.36
-12.67
-14.98
-17.57
-20.85
-25.11
-30.38
-36.16
-41.53
-45.16
-45.77
-42.45
-34.96
-23.97
-10.84
2.80
15.41
25.84
33.47
38.04
39.51
38.05
33.98
27.86
20.57
13.20
6.76
2.05
-0.55
-1.21
-0.34
1.50
3.79
6.16
8.24
9.70
10.23
9.65
7.88
5.09
1.63
-2.05
-5.57
-8.77
-11.63
-14.40
-17.38
-20.93
-25.18
-30.05
-35.01
-39.13
-41.29
-40.36
-35.64
-27.09
-15.47
-2.09
11.43
23.58
33.31
40.01
43.43
43.58
40.66
35.08
27.56
19.09
10.77
3.67
-1.50
-4.43
-5.26
-4.41
-2.38
0.27
3.11
5.69
7.60
8.42
7.92
6.01
2.92
-0.93
-5.09
-9.09
-12.67
-15.80
-18.68
-21.75
-25.46
-30.18
-35.87
-41.89
-47.09
-49.90
-48.87
-43.14
-32.84
-19.08
-3.74
11.21
24.15
34.03
40.48
43.52
43.41
40.45
35.13
28.08
20.24
12.67
6.38
2.11
0.13
0.29
2.06
4.83
7.94
10.88
13.25
14.70
14.97
13.87
11.33
7.49
2.66
-2.71
-8.19
-13.50
-18.61
-23.68
-29.04
-34.88
-41.04
-46.91
-51.41
-53.24
-51.28
-44.99
-34.62
-21.27
-6.53
7.85
20.46
30.32
37.05
40.60
41.13
38.92
34.39
28.22
21.29
14.63
9.10
5.25
3.23
2.76
3.33
4.31
5.18
5.49
5.05
3.77
1.79
-0.70
-3.42
-6.24
-9.10
-12.08
-15.41
-19.29
-23.94
-29.40
-35.41
-41.18
-45.47
-46.85
-44.12
-36.84
-25.48
-11.39
3.58
17.60
29.25
37.71
42.69
44.25
42.69
38.40
31.99
24.23
16.08
8.60
2.77
-0.77
-1.81
-0.70
1.80
4.74
7.27
8.91
9.55
9.29
8.32
6.72
4.39
1.21
-2.89
-7.82
-13.38
-19.35
-25.56
-31.87
-37.89
-42.91
-45.80
-45.24
-40.29
-30.73
-17.37
-1.88
13.65
27.33
37.80
44.42
47.10
46.08
41.85
35.05
26.60
17.58
9.18
2.40
-2.01
-3.82
-3.27
-0.83
2.74
6.70
10.35
13.18
14.77
14.99
13.89
11.65
8.59
5.06
1.34
-2.37
-6.03
-9.81
-13.95
-18.78
-24.51
-31.05
-37.77
-43.49
-46.66
-45.82
-40.11
-29.72
-15.91
-0.72
13.72
25.67
34.22
39.20
40.84
39.62
36.01
30.56
24.03
17.42
11.85
8.32
7.34
8.78
11.93
15.72
19.06
21.23
22.01
21.62
20.56
19.16
17.58
15.70
13.28
10.21
6.58
2.66
-1.19
-4.73
-7.86
-10.66
-13.37
-16.30
-19.65
-23.59
-28.24
-33.56
-39.31
-44.94
-49.52
-51.79
-50.52
-44.84
-34.70
-21.02
-5.57
9.60
22.60
32.19
37.83
39.57
37.80
33.06
26.12
17.93
9.72
2.78
-1.73
-3.21
-1.73
1.99
6.88
11.87
16.21
19.51
21.73
22.99
23.36
22.89
21.66
19.76
17.32
14.52
11.48
8.23
4.77
1.11
-2.67
-6.41
-9.93
-13.13
-15.98
-18.53
-20.94
-23.42
-26.21
-29.46
-33.06
-36.48
-38.68
-38.44
-34.77
-27.33
-16.66
-4.12
8.58
19.82
28.46
33.95
36.16
35.26
31.63
25.84
18.77
11.52
5.33
1.29
0.01
1.56
5.31
10.25
15.25
19.38
22.11
23.37
23.38
22.46
20.85
18.66
15.87
12.52
8.73
4.70
0.68
-3.21
-6.86
-10.23
-13.31
-16.05
-18.42
-20.43
-22.27
-24.23
-26.73
-30.17
-34.71
-40.18
-45.91
-50.69
-53.06
-51.66
-45.74
-35.45
-21.98
-7.14
7.08
19.09
28.00
33.57
36.05
35.89
33.51
29.36
24.12
18.68
14.10
11.39
11.14
13.33
17.36
22.19
26.69
30.03
31.73
31.73
30.20
27.40
23.58
19.03
14.09
9.16
4.66
0.85
-2.27
-4.92
-7.48
-10.25
-13.27
-16.29
-18.96
-20.99
-22.32
-23.28
-24.40
-26.31
-29.52
-34.13
-39.75
-45.43
-49.78
-51.32
-48.84
-41.89
-30.90
-17.17
-2.46
11.41
23.07
31.71
37.06
39.18
38.40
35.15
30.09
24.02
17.96
12.85
9.54
8.39
9.35
11.94
15.45
19.09
22.21
24.44
25.62
25.79
25.02
23.42
21.01
17.88
14.14
9.96
5.56
1.11
-3.25
-7.44
-11.36
-14.89
-17.84
-20.09
-21.60
-22.50
-23.14
-23.97
-25.50
-28.07
-31.65
-35.81
-39.58
-41.70
-40.95
-36.56
-28.49
-17.53
-5.11
7.18
17.98
26.37
31.93
34.60
34.43
31.66
26.64
20.05
12.88
6.36
1.63
-0.52
0.10
3.05
7.48
12.39
16.90
20.45
22.81
23.96
24.05
23.17
21.46
19.09
16.24
13.10
9.81
6.47
3.10
-0.29
-3.72
-7.18
-10.55
-13.75
-16.71
-19.42
-22.01
-24.75
-27.92
-31.73
-36.12
-40.53
-44.06
-45.54
-43.92
-38.65
-29.92
-18.61
-6.11
6.08
16.67
24.76
29.96
32.16
31.51
28.31
23.06
16.43
9.44
3.19
-1.27
-3.24
-2.58
0.18
4.09
8.07
11.24
13.23
14.07
14.02
13.35
12.21
10.54
8.27
5.36
1.89
-1.87
-5.67
-9.22
-12.38
-15.05
-17.21
-18.89
-20.16
-21.20
-22.32
-23.98
-26.60
-30.35
-34.97
-39.57
-42.83
-43.36
-40.20
-33.13
-22.85
-10.70
1.81
13.22
22.55
29.25
33.15
34.28
32.87
29.34
24.32
18.69
13.33
9.13
6.68
6.18
7.34
9.60
12.24
14.57
16.18
16.90
16.79
16.03
14.79
13.08
10.83
7.90
4.25
0.02
-4.49
-8.86
-12.73
-15.95
-18.67
-21.23
-24.05
-27.47
-31.60
-36.35
-41.37
-46.03
-49.48
-50.70
-48.73
-42.97
-33.54
-21.27
-7.64
5.66
17.19
26.01
31.72
34.35
34.11
31.27
26.19
19.53
12.20
5.39
0.19
-2.62
-2.83
-0.88
2.42
6.13
9.57
12.40
14.63
16.35
17.56
18.11
17.63
15.86
12.74
8.54
3.76
-1.00
-5.32
-9.08
-12.45
-15.80
-19.49
-23.71
-28.38
-33.21
-37.64
-40.94
-42.34
-41.11
-36.80
-29.40
-19.45
-7.96
3.79
14.62
23.63
30.30
34.42
35.98
35.03
31.80
26.77
20.73
14.72
9.76
6.55
5.32
5.80
7.42
9.59
11.96
14.35
16.71
18.93
20.71
21.65
21.28
19.37
16.03
11.65
6.80
2.06
-2.14
-5.66
-8.57
-11.12
-13.59
-16.27
-19.35
-22.82
-26.35
-29.22
-30.45
-29.14
-24.74
-17.37
-7.83
2.57
12.48
20.82
26.95
30.63
31.82
30.56
27.00
21.45
14.55
7.27
0.68
-4.33
-7.24
-7.98
-6.91
-4.58
-1.50
1.93
5.44
8.76
11.64
13.75
14.86
14.89
13.92
12.17
9.90
7.34
4.61
1.76
-1.22
-4.44
-8.01
-11.93
-16.08
-19.98
-22.87
-23.88
-22.22
-17.57
-10.22
-1.01
8.88
18.22
26.04
31.72
34.93
35.57
33.67
29.46
23.50
16.63
9.86
4.14
0.15
-1.94
-2.35
-1.60
-0.25
1.22
2.54
3.53
4.15
4.31
3.84
2.58
0.42
-2.57
-6.10
-9.79
-13.26
-16.27
-18.75
-20.88
-22.92
-25.06
-27.37
-29.61
-31.34
-31.90
-30.62
-27.01
-20.96
-12.81
-3.31
6.49
15.63
23.17
28.52
31.31
31.43
28.97
24.24
17.78
10.33
2.86
-3.73
-8.67
-11.49
-12.18
-11.02
-8.54
-5.33
-1.85
1.68
5.12
8.36
11.18
13.29
14.38
14.26
12.93
10.64
7.64
4.20
0.42
-3.71
-8.32
-13.36
-18.70
-23.93
-28.41
-31.48
-32.44
-30.79
-26.41
-19.62
-11.15
-2.07
6.55
13.77
18.92
21.78
22.44
21.14
18.23
14.09
9.16
4.00
-0.78
-4.59
-6.97
-7.78
-7.25
-5.91
-4.37
-3.17
-2.60
-2.70
-3.42
-4.56
-6.07
-7.93
-10.09
-12.50
-15.09
-17.82
-20.80
-24.28
-28.41
-33.13
-37.87
-41.59
-43.11
-41.40
-36.06
-27.48
-16.74
-5.24
5.62
14.86
21.92
26.49
28.50
27.99
25.10
20.22
13.99
7.28
1.09
-3.69
-6.55
-7.35
-6.40
-4.27
-1.61
1.03
3.26
4.90
5.93
6.30
6.05
5.19
3.71
1.67
-0.89
-3.98
-7.67
-12.01
-16.99
-22.30
-27.24
-30.88
-32.15
-30.27
-25.01
-16.79
-6.63
4.19
14.37
22.88
29.03
32.49
33.19
31.23
26.97
20.92
13.87
6.74
0.43
-4.24
-6.80
-7.22
-5.93
-3.63
-1.20
0.68
1.60
1.48
0.48
-1.14
-3.13
-5.39
-7.91
-10.77
-14.03
-17.77
-22.04
-26.78
-31.76
-36.39
-39.80
-40.92
-38.88
-33.25
-24.36
-13.19
-1.14
10.31
20.00
27.21
31.60
33.10
31.85
28.16
22.56
15.93
9.26
3.54
-0.44
-2.26
-1.96
0.05
3.09
6.40
9.30
11.25
11.91
11.19
9.21
6.30
2.86
-0.63
-3.86
-6.68
-9.10
-11.28
-13.50
-16.08
-19.15
-22.59
-25.87
-28.13
-28.31
-25.57
-19.57
-10.71
-0.05
10.96
20.94
28.83
34.01
36.33
35.84
32.82
27.77
21.40
14.70
8.75
4.54
2.72
3.51
6.56
11.08
16.19
20.96
24.75
27.26
28.46
28.60
27.91
26.65
24.92
22.88
20.64
18.36
16.24
14.34
12.68
11.20
9.81
8.56
7.60
7.07
7.14
7.70
8.50
9.17
9.36
8.93
7.90
6.53
4.98
3.35
1.55
-0.62
-3.25
-6.27
-9.42
-12.36
-14.83
-16.74
-18.23
-19.50
-20.86
-22.42
-24.24
-26.22
-28.22
-30.02
-31.52
-32.71
-33.73
-34.96
-36.82
-39.72
-43.88
-49.14
-54.83
-59.77
-62.41
-61.16
-55.02
-43.89
-28.83
-11.83
4.77
18.95
29.45
35.80
38.20
37.02
32.80
26.22
18.18
9.94
2.89
-1.70
-3.10
-1.28
3.06
8.80
14.86
20.33
24.79
28.13
30.46
31.93
32.53
32.17
30.72
28.20
24.81
20.97
17.13
13.59
10.42
7.51
4.67
1.82
-0.94
-3.34
-5.09
-6.02
-6.25
-6.21
-6.46
-7.53
-9.67
-12.77
-16.32
-19.52
-21.46
-21.35
-18.71
-13.44
-5.93
3.01
12.26
20.68
27.24
31.26
32.46
30.98
27.29
22.10
16.30
10.82
6.58
4.21
3.99
5.72
8.86
12.58
16.09
18.79
20.35
20.73
20.07
18.54
16.41
13.92
11.35
8.86
6.51
4.25
1.94
-0.51
-3.15
-5.91
-8.73
-11.44
-13.91
-16.11
-18.02
-19.79
-21.66
-23.97
-27.02
-30.94
-35.43
-39.75
-42.79
-43.36
-40.64
-34.45
-25.39
-14.63
-3.63
6.31
14.30
19.89
22.98
23.56
21.76
17.89
12.53
6.64
1.33
-2.33
-3.73
-2.74
0.21
4.37
8.96
13.31
16.97
19.65
21.16
21.38
20.35
18.20
15.28
11.97
8.56
5.31
2.29
-0.43
-2.85
-4.97
-6.83
-8.52
-10.18
-11.98
-13.97
-16.12
-18.34
-20.62
-23.10
-25.98
-29.43
-33.30
-36.96
-39.42
-39.53
-36.45
-29.99
-20.74
-9.86
1.20
11.14
19.08
24.60
27.59
28.21
26.69
23.38
18.88
13.91
9.30
5.83
4.09
4.24
6.07
9.05
12.47
15.62
18.00
19.33
19.61
18.99
17.70
15.91
13.79
11.39
8.79
6.09
3.46
1.09
-0.91
-2.48
-3.66
-4.61
-5.49
-6.45
-7.60
-8.97
-10.59
-12.55
-15.02
-18.11
-21.88
-26.10
-30.12
-32.96
-33.59
-31.25
-25.77
-17.71
-8.15
1.58
10.29
17.12
21.60
23.51
22.92
20.04
15.44
9.97
4.74
0.86
-0.89
-0.22
2.61
6.91
11.82
16.59
20.73
23.85
25.77
26.39
25.68
23.79
21.04
17.86
14.71
11.86
9.38
7.14
5.00
2.83
0.67
-1.40
-3.34
-5.23
-7.23
-9.52
-12.19
-15.27
-18.76
-22.63
-26.80
-30.99
-34.62
-36.87
-36.82
-33.88
-28.11
-20.23
-11.40
-2.79
4.71
10.66
14.92
17.41
18.06
16.79
13.77
9.62
5.35
2.01
0.41
0.77
2.74
5.57
8.53
11.03
12.77
13.63
13.68
13.02
11.84
10.35
8.73
7.09
5.43
3.60
1.45
-1.04
-3.77
-6.44
-8.75
-10.50
-11.67
-12.46
-13.15
-14.11
-15.60
-17.78
-20.53
-23.49
-25.97
-27.13
-26.19
-22.67
-16.61
-8.57
0.41
9.22
16.87
22.68
26.25
27.48
26.44
23.30
18.46
12.51
6.27
0.65
-3.52
-5.66
-5.61
-3.68
-0.51
3.05
6.26
8.64
10.03
10.49
10.18
9.23
7.67
5.50
2.77
-0.43
-3.86
-7.31
-10.59
-13.50
-15.96
-17.86
-19.20
-20.12
-20.89
-21.86
-23.41
-25.81
-29.01
-32.62
-35.88
-37.75
-37.29
-33.88
-27.49
-18.75
-8.71
1.47
10.72
18.34
23.86
27.01
27.65
25.93
22.22
17.21
11.92
7.41
4.57
3.94
5.48
8.75
13.04
17.56
21.62
24.70
26.44
26.72
25.61
23.34
20.23
16.62
12.77
8.79
4.64
0.28
-4.16
-8.44
-12.22
-15.15
-17.14
-18.28
-18.91
-19.46
-20.39
-22.04
-24.53
-27.75
-31.24
-34.14
-35.46
-34.23
-29.94
-22.66
-13.14
-2.55
7.77
16.72
23.59
28.03
29.99
29.55
26.90
22.41
16.66
10.50
4.95
0.96
-0.78
-0.15
2.50
6.39
10.65
14.55
17.65
19.79
20.98
21.30
20.77
19.43
17.32
14.60
11.47
8.14
4.77
1.39
-1.97
-5.21
-8.21
-10.86
-13.08
-14.93
-16.59
-18.26
-20.24
-22.73
-25.82
-29.45
-33.18
-36.28
-37.67
-36.37
-31.69
-23.75
-13.34
-1.85
9.25
18.84
26.22
31.23
33.84
34.14
32.13
27.99
22.23
15.68
9.43
4.51
1.56
0.72
1.63
3.60
5.95
8.18
10.00
11.35
12.23
12.72
12.84
12.62
12.05
11.11
9.83
8.24
6.40
4.33
2.04
-0.49
-3.28
-6.27
-9.39
-12.55
-15.77
-19.08
-22.56
-26.07
-29.23
-31.38
-31.77
-29.88
-25.53
-18.94
-10.78
-1.81
7.08
15.17
21.80
26.51
28.95
28.95
26.59
22.24
16.61
10.64
5.31
1.40
-0.68
-1.09
-0.25
1.24
2.92
4.52
5.99
7.26
8.23
8.69
8.36
7.10
4.89
1.91
-1.55
-5.16
-8.63
-11.77
-14.57
-17.18
-19.87
-22.90
-26.36
-30.05
-33.41
-35.66
-36.02
-33.92
-29.15
-21.95
-12.93
-3.00
6.89
15.82
23.00
27.87
30.14
29.78
27.06
22.45
16.66
10.49
4.71
-0.00
-3.28
-4.99
-5.24
-4.26
-2.39
0.05
2.70
5.20
7.20
8.39
8.61
7.89
6.43
4.50
2.35
0.10
-2.25
-4.76
-7.54
-10.69
-14.22
-18.05
-21.92
-25.34
-27.64
-28.03
-25.90
-21.06
-13.85
-5.09
4.13
12.78
19.96
25.10
27.88
28.26
26.39
22.64
17.55
11.77
5.94
0.64
-3.70
-6.79
-8.42
-8.63
-7.61
-5.73
-3.46
-1.28
0.50
1.69
2.22
2.18
1.65
0.68
-0.73
-2.59
-4.94
-7.80
-11.22
-15.14
-19.34
-23.34
-26.38
-27.61
-26.31
-22.16
-15.34
-6.67
2.76
11.78
19.42
25.06
28.43
29.53
28.51
25.66
21.39
16.25
10.92
6.00
2.09
-0.52
-1.76
-1.83
-1.10
0.02
1.11
1.83
1.91
1.25
-0.23
-2.40
-5.06
-7.96
-10.84
-13.62
-16.36
-19.24
-22.36
-25.69
-28.86
-31.27
-32.14
-30.73
-26.67
-19.92
-10.95
-0.55
10.22
20.23
28.45
34.00
36.42
35.64
32.04
26.40
19.61
12.58
6.08
0.69
-3.29
-5.68
-6.57
-6.21
-5.05
-3.55
-2.14
-1.01
-0.28
0.04
-0.09
-0.69
-1.85
-3.71
-6.43
-10.17
-14.97
-20.64
-26.58
-31.82
-35.12
-35.34
-31.84
-24.72
-14.77
-3.27
8.38
18.99
27.69
33.92
37.36
37.88
35.62
30.91
24.41
16.99
9.61
3.12
-1.80
-4.80
-5.90
-5.41
-3.89
-2.00
-0.27
0.91
1.42
1.33
0.77
-0.23
-1.70
-3.82
-6.80
-10.77
-15.69
-21.25
-26.89
-31.73
-34.76
-35.00
-31.84
-25.24
-15.76
-4.53
7.09
17.77
26.49
32.58
35.80
36.17
33.89
29.37
23.17
16.10
9.05
2.94
-1.51
-3.93
-4.40
-3.42
-1.69
0.07
1.37
2.07
2.21
2.05
1.78
1.47
1.10
0.53
-0.41
-1.88
-4.03
-7.04
-10.96
-15.62
-20.46
-24.53
-26.70
-25.96
-21.74
-14.10
-3.79
7.97
19.73
29.97
37.48
41.40
41.42
37.74
31.13
22.70
13.78
5.54
-1.17
-5.82
-8.24
-8.61
-7.26
-4.72
-1.59
1.54
4.11
5.73
6.28
5.91
4.87
3.44
1.83
0.03
-2.05
-4.56
-7.62
-11.28
-15.53
-20.29
-25.39
-30.43
-34.76
-37.48
-37.56
-34.29
-27.47
-17.67
-6.06
5.79
16.37
24.56
29.80
31.99
31.32
28.15
22.97
16.54
9.82
3.91
-0.17
-1.84
-1.09
1.53
5.18
9.06
12.66
15.81
18.44
20.44
21.55
21.39
19.71
16.52
12.21
7.36
2.53
-1.87
-5.75
-9.26
-12.65
-16.22
-20.22
-24.64
-29.22
-33.37
-36.20
-36.78
-34.35
-28.61
-19.80
-8.80
3.24
15.03
25.37
33.36
38.43
40.37
39.34
35.73
30.14
23.41
16.39
9.97
4.90
1.62
0.23
0.49
1.82
3.67
5.57
7.21
8.49
9.36
9.63
9.09
7.59
5.04
1.64
-2.22
-6.18
-9.93
-13.37
-16.67
-20.08
-23.86
-28.13
-32.80
-37.50
-41.57
-44.03
-43.84
-40.15
-32.56
-21.44
-7.89
6.51
20.12
31.54
39.93
44.87
46.30
44.42
39.61
32.56
24.26
15.87
8.54
3.22
0.37
-0.15
1.15
3.49
6.21
8.76
10.86
12.34
13.04
12.83
11.56
9.28
6.15
2.57
-1.06
-4.39
-7.25
-9.64
-11.79
-14.02
-16.69
-20.13
-24.42
-29.31
-33.98
-37.30
-37.98
-35.12
-28.40
-18.30
-6.02
6.89
18.94
28.94
36.17
40.22
41.09
38.98
34.28
27.71
20.07
12.34
5.40
-0.09
-3.75
-5.55
-5.76
-4.79
-3.09
-1.07
0.85
2.38
3.25
3.33
2.63
1.26
-0.44
-2.17
-3.70
-5.11
-6.70
-8.89
-12.04
-16.26
-21.35
-26.78
-31.71
-35.12
-36.02
-33.65
-27.75
-18.66
-7.38
4.65
15.91
25.10
31.46
34.75
35.16
33.09
29.02
23.46
16.90
10.10
3.80
-1.23
-4.38
-5.49
-4.73
-2.65
0.10
2.89
5.26
6.84
7.41
6.94
5.47
3.20
0.41
-2.64
-5.76
-8.91
-12.26
-16.10
-20.67
-26.04
-31.82
-37.18
-41.00
-42.12
-39.71
-33.54
-24.06
-12.35
0.10
11.78
21.37
28.01
31.35
31.49
28.92
24.32
18.43
12.00
5.82
0.62
-2.95
-4.50
-3.96
-1.68
1.68
5.32
8.49
10.61
11.46
11.06
9.64
7.46
4.67
1.45
-2.12
-5.88
-9.68
-13.49
-17.40
-21.62
-26.32
-31.31
-35.87
-38.82
-38.81
-34.85
-26.73
-15.19
-1.74
11.78
23.70
32.81
38.50
40.65
39.49
35.48
29.26
21.62
13.54
6.03
0.07
-3.67
-4.93
-3.93
-1.27
2.18
5.56
8.14
9.53
9.64
8.66
6.86
4.49
1.69
-1.52
-5.16
-9.31
-14.03
-19.36
-25.36
-31.95
-38.77
-45.12
-49.87
-51.73
-49.56
-42.87
-32.02
-18.25
-3.36
10.85
22.88
31.87
37.54
39.93
39.22
35.70
29.89
22.62
15.01
8.32
3.59
1.43
1.83
4.27
7.93
11.94
15.62
18.44
20.14
20.50
19.40
16.80
12.79
7.68
1.94
-3.86
-9.28
-14.22
-18.83
-23.56
-28.76
-34.53
-40.38
-45.34
-48.16
-47.67
-43.22
-34.90
-23.48
-10.28
3.16
15.52
25.76
33.23
37.66
38.99
37.41
33.34
27.60
21.31
15.79
12.17
11.02
12.26
15.08
18.35
21.04
22.45
22.42
21.19
19.11
16.52
13.61
10.47
7.16
3.79
0.47
-2.65
-5.43
-7.84
-9.93
-11.82
-13.73
-15.91
-18.60
-21.96
-25.96
-30.24
-34.04
-36.29
-35.82
-31.82
-24.11
-13.30
-0.73
11.92
23.08
31.54
36.69
38.38
36.81
32.49
26.21
19.08
12.37
7.32
4.79
5.07
7.85
12.26
17.28
21.95
25.60
27.86
28.59
27.87
25.85
22.88
19.33
15.57
11.93
8.53
5.34
2.21
-1.00
-4.33
-7.71
-10.94
-13.83
-16.22
-18.11
-19.62
-21.00
-22.58
-24.72
-27.73
-31.74
-36.53
-41.41
-45.30
-46.90
-45.03
-39.09
-29.30
-16.74
-3.00
10.13
21.21
29.32
34.07
35.49
33.93
29.96
24.42
18.42
13.14
9.62
8.44
9.52
12.30
15.87
19.43
22.46
24.76
26.25
26.94
26.79
25.68
23.62
20.71
17.25
13.65
10.35
7.64
5.60
4.10
2.83
1.47
-0.22
-2.30
-4.69
-7.20
-9.71
-12.18
-14.80
-17.73
-21.19
-25.26
-29.87
-34.60
-38.80
-41.52
-41.78
-38.87
-32.57
-23.37
-12.29
-0.73
9.95
18.67
24.79
28.01
28.40
26.32
22.33
17.29
12.18
7.99
5.51
5.11
6.69
9.71
13.40
17.00
20.00
22.24
23.82
24.90
25.55
25.67
25.06
23.58
21.25
18.32
15.12
11.88
8.69
5.47
2.10
-1.45
-5.08
-8.65
-11.99
-14.99
-17.70
-20.20
-22.69
-25.42
-28.62
-32.33
-36.35
-40.09
-42.64
-43.06
-40.57
-34.90
-26.42
-16.01
-4.86
5.85
15.08
22.06
26.36
27.89
26.82
23.62
19.01
13.97
9.54
6.67
5.94
7.42
10.66
14.76
18.77
21.98
24.01
24.92
24.94
24.27
22.95
20.98
18.34
15.16
11.77
8.47
5.44
2.70
0.05
-2.66
-5.45
-8.13
-10.36
-11.81
-12.42
-12.46
-12.44
-12.99
-14.64
-17.69
-22.04
-27.22
-32.33
-36.16
-37.54
-35.65
-30.32
-22.05
-12.00
-1.60
7.89
15.56
20.95
23.97
24.73
23.40
20.28
15.85
10.80
6.00
2.32
0.41
0.54
2.48
5.65
9.20
12.41
14.82
16.26
16.84
16.73
16.07
14.89
13.23
11.05
8.42
5.49
2.42
-0.69
-3.78
-6.76
-9.60
-12.19
-14.46
-16.44
-18.26
-20.21
-22.58
-25.58
-29.13
-32.77
-35.72
-37.05
-35.98
-32.17
-25.84
-17.64
-8.54
0.47
8.55
15.10
19.74
22.24
22.59
20.87
17.50
13.11
8.49
4.41
1.55
0.29
0.63
2.34
4.86
7.67
10.28
12.37
13.78
14.52
14.63
14.16
13.13
11.44
9.10
6.11
2.61
-1.21
-5.13
-8.96
-12.64
-16.15
-19.66
-23.33
-27.31
-31.63
-36.09
-40.22
-43.34
-44.65
-43.42
-39.27
-32.27
-23.00
-12.43
-1.62
8.41
16.85
23.16
27.07
28.52
27.59
24.60
20.04
14.70
9.47
5.20
2.52
1.65
2.33
3.99
5.98
7.77
9.20
10.23
10.95
11.29
11.01
9.76
7.34
3.87
-0.26
-4.48
-8.35
-11.71
-14.76
-17.90
-21.55
-25.88
-30.76
-35.68
-39.86
-42.46
-42.72
-40.07
-34.40
-26.00
-15.59
-4.14
7.26
17.64
26.23
32.45
36.06
36.97
35.37
31.65
26.40
20.36
14.35
9.14
5.30
3.13
2.56
3.29
4.84
6.74
8.57
10.05
10.99
11.13
10.30
8.39
5.56
2.12
-1.42
-4.65
-7.36
-9.57
-11.58
-13.77
-16.46
-19.76
-23.45
-26.99
-29.61
-30.44
-28.80
-24.43
-17.54
-8.91
0.41
9.40
17.28
23.57
28.08
30.69
31.29
29.85
26.47
21.59
16.02
10.75
6.67
4.37
3.97
5.06
7.09
9.39
11.51
13.22
14.44
15.12
15.14
14.37
12.73
10.34
7.49
4.59
1.91
-0.52
-2.92
-5.64
-9.00
-13.11
-17.80
-22.59
-26.82
-29.79
-30.85
-29.57
-25.86
-20.02
-12.71
-4.76
2.96
9.76
15.11
18.70
20.39
20.19
18.25
14.87
10.52
5.76
1.22
-2.55
-5.08
-6.11
-5.64
-3.90
-1.36
1.44
3.94
5.73
6.57
6.46
5.54
4.04
2.18
0.19
-1.80
-3.72
-5.60
-7.56
-9.78
-12.55
-16.09
-20.37
-24.95
-29.00
-31.49
-31.48
-28.52
-22.75
-14.91
-6.09
2.63
10.34
16.47
20.72
23.00
23.37
22.03
19.30
15.61
11.41
7.17
3.31
0.16
-1.98
-3.05
-3.12
-2.43
-1.37
-0.32
0.41
0.71
0.56
0.07
-0.70
-1.74
-3.09
-4.76
-6.74
-8.96
-11.37
-13.95
-16.69
-19.46
-22.07
-23.98
-24.57
-23.23
-19.61
-13.81
-6.45
1.54
9.07
15.12
19.06
20.63
19.93
17.34
13.32
8.35
2.89
-2.59
-7.59
-11.56
-14.04
-14.91
-14.34
-12.81
-11.03
-9.65
-9.07
-9.32
-10.12
-11.13
-12.11
-12.95
-13.76
-14.76
-16.21
-18.36
-21.27
-24.77
-28.39
-31.36
-32.75
-31.72
-27.77
-20.90
-11.66
-1.11
9.51
19.00
26.47
31.36
33.50
33.02
30.23
25.52
19.32
12.25
5.02
-1.52
-6.58
-9.70
-10.79
-10.18
-8.50
-6.44
-4.53
-3.07
-2.13
-1.68
-1.69
-2.17
-3.22
-4.94
-7.48
-10.91
-15.20
-20.16
-25.33
-30.02
-33.31
-34.24
-32.12
-26.70
-18.30
-7.87
3.36
14.12
23.30
30.22
34.53
36.20
35.38
32.41
27.72
21.89
15.65
9.79
5.03
1.79
0.24
0.11
0.95
2.21
3.40
4.21
4.56
4.39
3.74
2.62
1.04
-0.99
-3.49
-6.51
-10.08
-14.30
-19.11
-24.21
-29.00
-32.62
-34.09
-32.54
-27.60
-19.52
-9.15
2.18
13.13
22.48
29.39
33.45
34.55
32.86
28.82
23.08
16.46
9.90
4.23
0.07
-2.23
-2.68
-1.55
0.70
3.46
6.10
8.09
9.06
8.92
7.85
6.22
4.41
2.75
1.33
-0.05
-1.68
-3.94
-7.12
-11.28
-16.26
-21.48
-26.13
-29.18
-29.68
-26.98
-21.05
-12.46
-2.30
8.04
17.24
24.31
28.66
30.09
28.74
24.97
19.38
12.78
6.08
0.14
-4.31
-6.82
-7.32
-6.06
-3.59
-0.58
2.34
4.76
6.54
7.71
8.40
8.69
8.51
7.74
6.25
3.97
0.93
-2.88
-7.50
-12.94
-19.00
-25.08
-30.20
-33.23
-33.15
-29.50
-22.47
-12.92
-2.15
8.51
17.91
25.25
30.07
32.25
31.83
29.04
24.41
18.59
12.47
6.92
2.77
0.53
0.30
1.80
4.48
7.67
10.73
13.12
14.48
14.59
13.39
10.96
7.58
3.58
-0.68
-4.99
-9.34
-13.87
-18.79
-24.16
-29.61
-34.36
-37.31
-37.38
-33.91
-26.84
-16.90
-5.38
6.27
16.67
24.84
30.25
32.77
32.54
29.90
25.30
19.40
12.97
6.87
1.86
-1.52
-3.03
-2.79
-1.16
1.33
4.15
6.75
8.65
9.45
8.94
7.14
4.30
0.85
-2.76
-6.20
-9.37
-12.36
-15.40
-18.75
-22.57
-26.75
-30.88
-34.23
-35.86
-34.83
-30.52
-22.89
-12.58
-0.79
11.00
21.34
29.18
33.98
35.66
34.48
30.97
25.74
19.51
13.02
7.02
2.18
-1.00
-2.32
-1.82
0.21
3.29
6.86
10.33
13.17
14.97
15.53
14.80
12.91
10.08
6.57
2.67
-1.37
-5.32
-9.15
-12.99
-17.04
-21.47
-26.22
-30.74
-34.10
-35.19
-33.07
-27.41
-18.66
-7.91
3.43
13.98
22.74
29.19
33.06
34.34
33.15
29.72
24.56
18.51
12.59
7.84
5.02
4.42
5.84
8.67
12.11
15.39
17.97
19.57
20.23
20.11
19.44
18.42
17.10
15.53
13.73
11.75
9.65
7.63
5.80
4.25
3.01
2.00
1.09
0.12
-1.05
-2.52
-4.27
-6.25
-8.36
-10.51
-12.60
-14.59
-16.39
-18.05
-19.66
-21.39
-23.46
-26.02
-29.01
-32.19
-35.18
-37.70
-39.68
-41.30
-43.01
-45.32
-48.67
-53.08
-58.05
-62.48
-64.85
-63.67
-57.93
-47.61
-33.69
-17.91
-2.24
11.61
22.53
29.99
33.96
34.57
32.16
27.22
20.56
13.36
6.93
2.42
0.59
1.53
4.75
9.41
14.59
19.53
23.80
27.16
29.45
30.50
30.10
28.16
24.81
20.47
15.67
10.93
6.54
2.57
-1.12
-4.80
-8.71
-13.01
-17.68
-22.46
-26.77
-29.73
-30.30
-27.64
-21.44
-12.20
-0.98
10.67
21.35
29.95
35.82
38.72
38.71
36.03
31.06
24.48
17.10
9.95
3.97
-0.10
-1.94
-1.63
0.33
3.23
6.38
9.15
11.14
12.07
11.84
10.52
8.23
5.21
1.74
-1.93
-5.70
-9.50
-13.42
-17.63
-22.28
-27.55
-33.34
-39.11
-43.90
-46.40
-45.33
-39.91
-30.20
-17.12
-2.31
12.41
25.39
35.45
41.96
44.72
43.96
40.14
34.03
26.58
18.92
12.19
7.30
4.77
4.57
6.19
8.79
11.57
13.85
15.33
16.03
16.01
15.33
13.91
11.65
8.48
4.57
0.23
-4.08
-7.95
-11.20
-13.93
-16.38
-18.96
-21.95
-25.37
-28.93
-32.00
-33.75
-33.33
-30.18
-24.03
-15.22
-4.56
6.76
17.45
26.29
32.39
35.28
34.89
31.57
25.90
18.79
11.32
4.71
-0.04
-2.24
-1.85
0.67
4.38
8.30
11.70
14.29
16.07
17.17
17.57
17.02
15.25
12.07
7.68
2.71
-2.08
-6.09
-9.06
-11.18
-12.92
-14.77
-17.04
-19.82
-23.03
-26.47
-29.83
-32.53
-33.74
-32.58
-28.37
-20.99
-11.05
0.24
11.39
21.04
28.24
32.51
33.80
32.34
28.55
23.03
16.63
10.36
5.26
2.15
1.36
2.65
5.31
8.42
11.12
12.92
13.69
13.61
12.95
11.83
10.25
8.12
5.43
2.27
-1.09
-4.32
-7.21
-9.74
-12.16
-14.81
-18.02
-22.00
-26.72
-31.89
-36.97
-41.14
-43.42
-42.82
-38.68
-30.87
-20.03
-7.33
5.65
17.51
27.13
33.93
37.63
38.20
35.88
31.21
25.19
19.10
14.33
11.85
12.05
14.57
18.49
22.67
26.12
28.22
28.79
27.96
26.02
23.27
19.96
16.22
12.12
7.72
3.03
-1.91
-7.05
-12.25
-17.34
-22.05
-26.19
-29.66
-32.54
-35.14
-37.83
-40.97
-44.62
-48.43
-51.59
-52.99
-51.55
-46.57
-37.98
-26.48
-13.29
0.12
12.39
22.48
29.82
34.16
35.55
34.30
31.01
26.56
22.03
18.50
16.71
16.93
18.82
21.68
24.70
27.23
28.99
29.89
30.06
29.62
28.60
26.93
24.62
21.76
18.60
15.56
12.95
10.94
9.46
8.12
6.38
3.81
0.19
-4.35
-9.35
-14.26
-18.66
-22.39
-25.60
-28.63
-31.85
-35.56
-39.91
-44.68
-49.33
-52.98
-54.48
-52.78
-47.23
-37.90
-25.70
-12.14
1.14
12.76
21.83
28.00
31.28
31.86
30.10
26.58
22.13
17.81
14.63
13.30
14.02
16.41
19.71
23.08
25.92
27.94
29.14
29.67
29.65
29.12
28.03
26.26
23.84
20.89
17.67
14.47
11.57
9.10
7.04
5.26
3.52
1.64
-0.53
-3.02
-5.74
-8.53
-11.28
-13.85
-16.25
-18.59
-21.10
-24.13
-27.89
-32.29
-36.83
-40.59
-42.39
-41.17
-36.40
-28.25
-17.63
-5.93
5.38
15.12
22.47
27.04
28.79
27.90
24.82
20.23
15.11
10.52
7.43
6.38
7.42
10.09
13.59
17.09
19.98
21.92
22.89
23.03
22.39
21.00
18.86
15.98
12.57
8.95
5.45
2.37
-0.18
-2.33
-4.22
-6.03
-7.88
-9.76
-11.57
-13.17
-14.47
-15.43
-16.17
-16.93
-18.09
-20.06
-23.11
-27.22
-32.00
-36.58
-39.76
-40.39
-37.61
-31.27
-21.96
-10.88
0.47
10.76
19.07
24.95
28.24
29.01
27.40
23.71
18.48
12.54
6.92
2.66
0.46
0.46
2.23
5.02
8.04
10.74
12.89
14.55
15.70
16.27
16.03
14.75
12.46
9.46
6.19
3.11
0.40
-2.02
-4.32
-6.63
-8.93
-11.04
-12.80
-14.17
-15.38
-16.82
-18.97
-22.16
-26.52
-31.91
-37.88
-43.71
-48.39
-50.78
-49.85
-45.08
-36.58
-25.23
-12.49
0.09
11.18
19.95
26.12
29.70
30.85
29.78
26.81
22.40
17.35
12.60
9.11
7.52
8.01
10.20
13.40
16.87
19.97
22.34
23.72
24.00
23.09
20.98
17.82
13.92
9.74
5.70
2.06
-1.26
-4.43
-7.67
-11.05
-14.48
-17.70
-20.43
-22.53
-23.96
-24.86
-25.49
-26.15
-27.25
-29.14
-31.94
-35.43
-38.86
-41.06
-40.75
-37.07
-29.86
-19.87
-8.45
2.89
12.94
20.95
26.69
30.17
31.41
30.46
27.51
23.00
17.73
12.65
8.60
6.15
5.40
6.09
7.81
10.12
12.72
15.40
17.89
19.86
20.95
20.83
19.32
16.50
12.64
8.12
3.34
-1.41
-5.92
-10.07
-13.82
-17.22
-20.25
-22.95
-25.33
-27.36
-29.03
-30.42
-31.74
-33.34
-35.50
-38.28
-41.34
-44.04
-45.43
-44.58
-40.90
-34.34
-25.41
-15.06
-4.43
5.48
13.86
20.21
24.21
25.67
24.47
20.69
14.72
7.30
-0.55
-7.75
-13.40
-17.01
-18.46
-17.86
-15.54
-11.87
-7.22
-1.87
3.90
9.73
15.21
19.75
22.83
24.00
23.09
20.36
16.51
12.51
9.19
7.12
6.29
6.31
6.56
6.47
5.65
3.97
1.46
-1.66
-4.91
-7.55
-8.57
-7.01
-2.25
5.64
15.90
27.27
38.46
48.39
56.25
61.47
63.53
62.08
57.03
48.83
38.47
27.27
16.43
6.68
-1.81
-9.17
-15.54
-20.80
-24.51
-26.13
-25.39
-22.39
-17.77
-12.41
-7.19
-2.82
0.20
1.69
1.70
0.64
-0.85
-2.03
-2.27
-1.52
-0.23
0.63
0.15
-2.26
-6.53
-11.99
-17.64
-22.39
-25.34
-25.89
-23.75
-18.98
-12.05
-3.83
4.55
11.83
17.02
19.55
19.30
16.64
12.27
6.89
1.19
-4.31
-9.23
-13.31
-16.32
-18.06
-18.34
-17.19
-14.71
-11.27
-7.26
-3.19
0.54
3.55
5.68
6.86
7.21
6.99
6.51
6.06
5.71
5.29
4.38
2.56
-0.30
-3.90
-7.37
-9.60
-9.54
-6.58
-0.79
7.18
16.38
25.76
34.48
41.98
47.84
51.88
54.01
54.28
52.97
50.52
47.46
44.10
40.47
36.25
31.23
25.44
19.47
14.25
10.59
8.77
8.31
8.20
7.36
5.14
1.45
-3.42
-9.11
-15.43
-22.46
-30.24
-38.53
-46.76
-54.04
-59.46
-62.32
-62.27
-59.46
-54.37
-47.67
-40.02
-32.00
-23.99
-16.29
-9.25
-3.24
1.34
4.21
5.30
4.87
3.38
1.32
-0.90
-3.16
-5.46
-7.88
-10.42
-12.96
-15.32
-17.39
-19.18
-20.76
-22.33
-23.95
-25.60
-27.19
-28.63
-29.87
-30.95
-31.92
-32.68
-32.98
-32.43
-30.60
-27.17
-22.12
-15.71
-8.52
-1.31
5.20
10.43
14.00
15.86
16.16
15.24
13.47
11.26
8.96
6.86
5.08
3.60
2.28
0.83
-1.03
-3.45
-6.43
-9.76
-13.12
-16.28
-19.03
-21.38
-23.52
-25.76
-28.38
-31.67
-35.64
-39.91
-43.73
-46.09
-45.97
-42.79
-36.57
-27.92
-17.86
-7.50
2.29
10.92
18.01
23.27
26.42
27.23
25.69
22.13
17.13
11.54
6.05
1.12
-3.12
-6.72
-9.72
-12.17
-13.96
-15.02
-15.41
-15.38
-15.29
-15.53
-16.38
-17.99
-20.48
-23.92
-28.24
-33.05
-37.60
-40.79
-41.48
-38.91
-32.91
-24.08
-13.50
-2.45
8.07
17.37
25.06
30.89
34.50
35.63
34.17
30.37
24.92
18.82
13.09
8.51
5.37
3.48
2.30
1.25
-0.06
-1.73
-3.63
-5.52
-7.24
-8.69
-10.01
-11.50
-13.58
-16.70
-21.06
-26.40
-31.85
-36.08
-37.54
-35.04
-28.13
-17.29
-3.71
11.09
25.57
38.61
49.40
57.44
62.47
64.31
63.10
59.30
53.79
47.74
42.43
38.91
37.76
38.96
41.99
46.09
50.57
54.91
58.86
62.26
64.99
66.86
67.67
67.16
65.15
61.41
55.70
47.81
37.78
26.04
13.54
1.71
-8.10
-14.81
-18.02
-18.09
-15.87
-12.41
-8.70
-5.43
-2.91
-1.34
-0.83
-1.49
-3.46
-6.62
-10.59
-14.74
-18.35
-20.82
-21.94
-21.95
-21.44
-21.10
-21.36
-22.34
-23.79
-25.31
-26.46
-27.05
-27.06
-26.69
-26.33
-26.38
-27.25
-29.23
-32.35
-36.12
-39.61
-41.52
-40.57
-35.92
-27.51
-16.13
-3.23
9.54
20.76
29.53
35.54
38.94
40.01
39.03
36.21
31.76
26.00
19.52
12.99
7.13
2.46
-0.79
-2.64
-3.35
-3.18
-2.41
-1.24
0.17
1.62
2.92
3.79
4.00
3.40
1.99
-0.17
-2.89
-5.98
-9.18
-12.07
-14.08
-14.52
-12.72
-8.36
-1.56
7.03
16.38
25.43
33.27
39.23
43.05
44.69
44.26
41.98
38.09
32.93
26.93
20.71
14.83
9.89
6.26
3.99
2.86
2.47
2.40
2.42
2.49
2.67
3.04
3.53
3.90
3.83
3.08
1.50
-0.92
-4.08
-7.85
-11.93
-15.89
-19.11
-20.85
-20.52
-17.87
-13.12
-6.95
-0.26
6.07
11.37
15.20
17.40
17.96
17.00
14.72
11.49
7.70
3.84
0.27
-2.72
-4.94
-6.32
-6.95
-6.93
-6.46
-5.76
-5.04
-4.47
-4.20
-4.36
-5.00
-6.12
-7.67
-9.49
-11.40
-13.27
-15.02
-16.57
-17.81
-18.48
-18.25
-16.75
-13.78
-9.45
-4.15
1.54
6.97
11.72
15.49
18.08
19.42
19.36
17.81
14.90
11.00
6.71
2.68
-0.42
-2.31
-2.90
-2.35
-0.99
0.88
3.02
5.25
7.36
9.18
10.48
11.12
11.11
10.41
9.07
7.06
4.28
0.67
-3.66
-8.36
-12.75
-15.98
-17.37
-16.49
-13.41
-8.60
-2.77
3.30
8.97
13.72
17.26
19.29
19.66
18.30
15.27
10.93
5.82
0.54
-4.33
-8.35
-11.32
-13.16
-13.99
-14.10
-13.83
-13.54
-13.55
-13.90
-14.45
-15.02
-15.38
-15.53
-15.68
-16.08
-16.96
-18.38
-20.09
-21.73
-22.84
-23.01
-21.95
-19.53
-15.77
-10.95
-5.54
-0.12
4.68
8.40
10.78
11.83
11.64
10.39
8.23
5.29
1.89
-1.57
-4.56
-6.63
-7.53
-7.36
-6.45
-5.21
-4.03
-3.07
-2.36
-1.85
-1.48
-1.36
-1.63
-2.47
-4.02
-6.33
-9.29
-12.74
-16.36
-19.71
-22.24
-23.30
-22.29
-18.84
-13.01
-5.33
3.27
11.72
19.06
24.63
28.18
29.77
29.66
28.11
25.36
21.63
17.23
12.60
8.26
4.72
2.26
0.93
0.49
0.51
0.59
0.55
0.35
0.17
0.13
0.22
0.30
0.17
-0.35
-1.36
-2.98
-5.33
-8.39
-11.90
-15.30
-17.72
-18.36
-16.80
-13.19
-8.28
-3.01
1.78
5.60
8.30
10.00
10.80
10.78
10.06
8.76
7.13
5.46
4.07
3.14
2.82
3.08
3.80
4.73
5.54
5.93
5.63
4.60
2.92
0.80
-1.54
-3.94
-6.34
-8.74
-11.17
-13.72
-16.46
-19.45
-22.62
-25.68
-28.08
-29.10
-28.18
-24.97
-19.71
-13.12
-6.11
0.41
5.85
9.95
12.72
14.21
14.49
13.54
11.50
8.66
5.56
2.82
0.93
0.11
0.21
0.82
1.43
1.57
1.00
-0.22
-1.83
-3.47
-4.82
-5.74
-6.26
-6.60
-7.00
-7.67
-8.74
-10.15
-11.73
-13.21
-14.23
-14.37
-13.31
-10.84
-7.02
-2.18
3.09
8.11
12.22
15.01
16.30
16.14
14.75
12.37
9.24
5.59
1.75
-1.84
-4.68
-6.30
-6.57
-5.71
-4.30
-3.02
-2.38
-2.55
-3.39
-4.54
-5.69
-6.76
-7.83
-9.06
-10.60
-12.48
-14.65
-16.96
-19.25
-21.22
-22.50
-22.59
-21.04
-17.65
-12.53
-6.18
0.66
7.18
12.72
16.78
19.18
19.84
18.85
16.50
13.22
9.60
6.31
3.94
2.89
3.27
4.86
7.21
9.74
11.94
13.42
14.11
14.07
13.44
12.36
10.83
8.78
6.18
3.03
-0.60
-4.63
-8.94
-13.41
-17.74
-21.40
-23.69
-23.91
-21.60
-16.80
-10.01
-2.08
6.07
13.59
19.83
24.34
26.79
27.01
25.12
21.58
17.20
12.88
9.40
7.18
6.32
6.56
7.48
8.67
9.78
10.52
10.73
10.33
9.35
7.90
6.11
4.20
2.32
0.60
-0.83
-1.90
-2.57
-2.96
-3.30
-3.98
-5.25
-7.18
-9.53
-11.67
-12.83
-12.28
-9.64
-5.00
1.07
7.76
14.27
19.98
24.48
27.55
29.01
28.72
26.66
23.00
18.27
13.17
8.51
4.99
3.02
2.62
3.50
5.18
7.11
8.81
9.98
10.55
10.59
10.21
9.47
8.33
6.71
4.61
2.10
-0.63
-3.37
-5.95
-8.35
-10.60
-12.79
-14.98
-17.14
-19.31
-21.47
-23.67
-26.01
-28.58
-31.31
-33.96
-35.95
-36.56
-34.96
-30.56
-23.28
-13.71
-2.95
7.63
16.82
23.85
28.44
30.73
31.03
29.67
27.00
23.46
19.58
16.08
13.58
12.49
12.81
14.19
16.01
17.67
18.82
19.37
19.43
19.14
18.53
17.45
15.73
13.33
10.50
7.65
5.25
3.64
2.83
2.61
2.58
2.39
1.78
0.66
-0.93
-2.95
-5.33
-8.10
-11.34
-15.18
-19.70
-24.87
-30.43
-35.87
-40.51
-43.60
-44.56
-43.08
-39.37
-33.98
-27.67
-21.25
-15.32
-10.27
-6.37
-3.72
-2.37
-2.28
-3.14
-4.41
-5.34
-5.22
-3.62
-0.55
3.60
8.27
12.94
17.29
21.11
24.25
26.54
27.79
27.94
27.07
25.50
23.55
21.60
19.84
18.34
17.12
16.04
14.95
13.66
11.98
9.88
7.48
4.95
2.45
0.08
-2.26
-4.72
-7.51
-10.79
-14.66
-19.16
-24.10
-29.08
-33.29
-35.88
-36.00
-33.30
-28.09
-21.21
-13.86
-7.08
-1.65
2.20
4.46
5.24
4.56
2.45
-0.98
-5.31
-9.79
-13.49
-15.56
-15.52
-13.27
-9.13
-3.61
2.61
9.03
15.22
20.96
26.12
30.74
34.90
38.70
42.11
44.96
46.94
47.72
47.01
44.63
40.68
35.48
29.55
23.46
17.69
12.45
7.71
3.17
-1.53
-6.76
-12.74
-19.45
-26.60
-33.51
-39.30
-42.99
-43.83
-41.50
-36.28
-28.99
-20.74
-12.62
-5.44
0.31
4.45
6.96
7.92
7.42
5.68
3.06
0.15
-2.38
-3.91
-4.09
-2.96
-0.89
1.55
3.83
5.61
6.78
7.42
7.60
7.36
6.72
5.68
4.37
2.90
1.35
-0.26
-1.99
-3.94
-6.09
-8.35
-10.67
-12.96
-15.22
-17.47
-19.67
-21.78
-23.76
-25.70
-27.70
-29.87
-31.92
-33.26
-33.02
-30.42
-25.07
-17.26
-7.88
1.84
10.76
18.03
23.26
26.33
27.33
26.32
23.51
19.26
14.17
9.06
4.79
1.95
0.80
1.18
2.63
4.63
6.72
8.66
10.35
11.78
12.99
13.95
14.59
14.75
14.26
12.92
10.66
7.58
3.91
0.06
-3.65
-7.08
-10.21
-13.23
-16.38
-19.82
-23.63
-27.71
-31.80
-35.35
-37.63
-37.75
-35.04
-29.21
-20.65
-10.28
0.55
10.52
18.69
24.60
28.24
29.78
29.45
27.47
24.13
19.77
14.96
10.44
6.90
4.85
4.45
5.49
7.46
9.80
11.94
13.61
14.71
15.29
15.45
15.26
14.77
13.98
12.94
11.71
10.26
8.54
6.33
3.53
0.12
-3.78
-7.89
-12.02
-16.00
-19.91
-23.92
-28.19
-32.54
-36.48
-39.26
-40.06
-38.27
-33.74
-26.90
-18.47
-9.43
-0.52
7.65
14.63
20.01
23.38
24.38
22.89
19.30
14.34
9.09
4.53
1.36
-0.15
-0.08
1.24
3.41
6.08
8.90
11.61
14.00
15.95
17.41
18.36
18.81
18.70
18.04
16.75
14.91
12.69
10.18
7.49
4.61
1.46
-2.00
-5.73
-9.61
-13.46
-17.04
-20.09
-22.23
-23.05
-22.18
-19.39
-14.74
-8.63
-1.77
5.11
11.26
16.21
19.68
21.54
21.72
20.28
17.37
13.30
8.59
3.81
-0.38
-3.47
-5.20
-5.59
-4.87
-3.44
-1.63
0.25
2.03
3.54
4.63
5.04
4.53
3.01
0.60
-2.37
-5.47
-8.44
-11.23
-14.02
-17.09
-20.61
-24.53
-28.52
-32.02
-34.35
-34.87
-33.08
-28.84
-22.44
-14.54
-6.01
2.19
9.31
14.86
18.62
20.50
20.53
18.85
15.72
11.59
7.03
2.68
-0.88
-3.28
-4.37
-4.18
-2.91
-0.76
1.94
4.88
7.69
10.02
11.58
12.20
11.95
10.99
9.57
7.87
5.98
3.83
1.24
-2.02
-6.15
-11.10
-16.55
-21.86
-26.13
-28.53
-28.45
-25.73
-20.74
-14.20
-6.96
0.11
6.31
11.16
14.40
15.89
15.68
13.91
10.88
7.04
2.98
-0.70
-3.33
-4.48
-4.00
-2.17
0.49
3.24
5.45
6.72
6.98
6.43
5.34
4.02
2.66
1.28
-0.13
-1.68
-3.49
-5.71
-8.52
-12.05
-16.14
-20.38
-24.04
-26.20
-26.08
-23.28
-17.95
-10.84
-3.00
4.54
11.01
15.95
19.16
20.52
20.01
17.61
13.57
8.39
2.87
-2.09
-5.74
-7.65
-7.89
-6.79
-4.89
-2.63
-0.37
1.73
3.62
5.24
6.58
7.46
7.82
7.56
6.63
5.02
2.77
-0.11
-3.50
-7.17
-10.74
-13.60
-15.07
-14.57
-11.83
-7.02
-0.74
6.08
12.46
17.57
20.88
22.17
21.44
18.88
14.83
9.80
4.33
-0.85
-5.18
-8.27
-9.99
-10.54
-10.23
-9.50
-8.71
-8.08
-7.67
-7.43
-7.23
-6.97
-6.61
-6.26
-6.18
-6.70
-8.09
-10.40
-13.42
-16.66
-19.40
-20.86
-20.37
-17.58
-12.60
-5.98
1.41
8.60
14.75
19.34
22.13
23.15
22.49
20.31
16.82
12.37
7.58
3.15
-0.27
-2.35
-3.21
-3.29
-3.18
-3.32
-3.79
-4.40
-4.90
-5.15
-5.30
-5.60
-6.37
-7.90
-10.29
-13.59
-17.67
-22.20
-26.56
-29.94
-31.43
-30.37
-26.60
-20.49
-12.88
-4.79
2.88
9.46
14.50
17.72
18.94
18.10
15.43
11.47
7.01
3.07
0.39
-0.61
-0.05
1.64
3.77
5.79
7.29
8.13
8.34
7.96
7.04
5.61
3.60
0.87
-2.76
-7.34
-12.73
-18.35
-23.33
-26.61
-27.27
-24.87
-19.56
-12.13
-3.64
4.79
12.26
18.13
22.02
23.68
23.00
20.15
15.59
10.15
4.85
0.66
-1.84
-2.59
-2.03
-0.93
-0.03
0.17
-0.47
-1.71
-3.19
-4.58
-5.76
-6.85
-8.13
-9.96
-12.57
-15.95
-19.74
-23.30
-25.73
-26.17
-24.01
-19.06
-11.68
-2.73
6.63
15.23
22.14
26.79
28.91
28.46
25.65
20.93
15.00
8.81
3.38
-0.40
-2.12
-1.90
-0.43
1.43
2.85
3.38
2.93
1.68
-0.10
-2.23
-4.58
-7.16
-10.04
-13.36
-17.20
-21.57
-26.23
-30.52
-33.41
-33.70
-30.51
-23.60
-13.63
-1.95
9.78
20.11
28.09
33.36
35.99
36.20
34.29
30.60
25.64
20.16
15.06
11.24
9.27
9.27
10.82
13.22
15.65
17.41
18.06
17.49
15.84
13.33
10.21
6.67
2.85
-1.13
-5.19
-9.25
-13.35
-17.66
-22.32
-27.31
-32.19
-36.09
-37.77
-36.08
-30.40
-21.00
-9.05
3.72
15.58
25.21
31.97
35.79
36.86
35.53
32.11
27.06
21.14
15.42
11.03
8.90
9.36
12.05
16.09
20.44
24.27
27.15
29.12
30.39
31.22
31.67
31.56
30.65
28.78
25.97
22.53
18.86
15.37
12.34
9.88
7.88
6.20
4.54
2.64
0.41
-2.28
-5.35
-8.63
-11.95
-15.13
-18.09
-20.96
-24.04
-27.74
-32.47
-38.33
-45.01
-51.58
-56.64
-58.55
-56.02
-48.63
-36.90
-22.31
-6.79
7.78
19.96
28.95
34.51
36.77
36.05
32.93
28.27
23.26
19.15
16.87
16.85
18.82
21.96
25.32
28.15
30.12
31.26
31.84
32.03
31.87
31.18
29.75
27.47
24.44
20.92
17.26
13.89
11.12
9.16
8.01
7.55
7.51
7.59
7.50
7.02
6.10
4.80
3.20
1.35
-0.72
-3.08
-5.75
-8.75
-12.13
-15.91
-20.04
-24.31
-28.22
-31.02
-31.85
-30.00
-25.32
-18.24
-9.70
-0.92
6.97
13.15
17.19
18.98
18.67
16.58
13.17
9.13
5.20
2.16
0.57
0.75
2.54
5.45
8.78
11.76
13.93
15.13
15.54
15.55
15.49
15.48
15.39
15.02
14.17
12.83
11.19
9.45
7.79
6.15
4.42
2.48
0.36
-1.80
-3.76
-5.35
-6.58
-7.55
-8.40
-9.24
-10.06
-10.87
-11.75
-12.95
-14.75
-17.33
-20.54
-23.87
-26.52
-27.70
-26.82
-23.73
-18.72
-12.43
-5.67
0.83
6.46
10.83
13.68
14.87
14.49
12.72
9.97
6.79
3.85
1.78
0.98
1.64
3.50
6.06
8.74
11.05
12.73
13.75
14.22
14.22
13.76
12.78
11.29
9.43
7.49
5.75
4.40
3.38
2.51
1.54
0.23
-1.48
-3.47
-5.49
-7.24
-8.50
-9.22
-9.56
-9.84
-10.45
-11.64
-13.56
-16.10
-19.01
-21.88
-24.17
-25.30
-24.71
-22.08
-17.45
-11.29
-4.41
2.22
7.75
11.65
13.76
14.21
13.25
11.21
8.42
5.22
1.98
-0.88
-2.99
-4.11
-4.22
-3.53
-2.33
-0.96
0.39
1.60
2.63
3.47
3.99
4.06
3.58
2.50
0.89
-1.12
-3.38
-5.78
-8.20
-10.53
-12.56
-14.10
-15.08
-15.53
-15.67
-15.85
-16.38
-17.42
-18.99
-20.92
-22.94
-24.70
-25.80
-25.75
-24.20
-20.91
-15.93
-9.67
-2.80
3.88
9.62
13.99
16.85
18.27
18.47
17.68
16.09
14.05
11.91
10.10
8.96
8.60
8.85
9.39
9.85
9.97
9.78
9.39
8.93
8.47
7.96
7.28
6.35
5.15
3.64
1.83
-0.31
-2.76
-5.36
-7.90
-10.12
-11.83
-13.02
-13.96
-15.01
-16.57
-18.94
-22.17
-26.01
-29.85
-32.82
-34.06
-32.92
-29.19
-23.21
-15.76
-7.83
-0.33
6.14
11.27
14.92
17.08
17.79
17.17
15.45
13.07
10.60
8.54
7.23
6.72
6.86
7.39
8.07
8.65
9.06
9.21
9.06
8.60
7.81
6.65
5.07
3.00
0.43
-2.58
-5.82
-9.08
-12.17
-14.97
-17.54
-20.01
-22.51
-25.08
-27.67
-30.28
-32.90
-35.50
-37.98
-39.92
-40.66
-39.47
-35.78
-29.54
-21.32
-12.11
-2.96
5.29
12.19
17.66
21.68
24.21
25.13
24.37
22.06
18.75
15.19
12.14
10.17
9.48
9.91
11.09
12.53
13.85
14.79
15.22
15.18
14.76
14.09
13.25
12.24
10.94
9.20
6.92
4.16
1.10
-2.06
-5.09
-7.94
-10.61
-13.26
-16.07
-19.22
-22.76
-26.44
-29.74
-31.90
-32.12
-29.83
-24.89
-17.75
-9.18
-0.22
8.27
15.58
21.30
25.14
26.95
26.69
24.45
20.65
15.89
11.02
6.91
4.23
3.26
3.84
5.42
7.31
8.99
10.19
10.95
11.48
11.86
12.01
11.63
10.49
8.45
5.68
2.49
-0.78
-3.85
-6.61
-9.05
-11.17
-13.00
-14.64
-16.24
-17.93
-19.67
-21.17
-21.91
-21.27
-18.79
-14.34
-8.27
-1.22
6.00
12.62
18.02
21.79
23.76
23.88
22.29
19.24
15.12
10.45
5.81
1.82
-1.11
-2.81
-3.37
-3.13
-2.47
-1.64
-0.79
0.08
1.00
1.90
2.65
3.07
3.04
2.55
1.68
0.51
-0.91
-2.54
-4.44
-6.69
-9.38
-12.52
-16.05
-19.69
-22.93
-25.06
-25.31
-23.13
-18.37
-11.40
-3.02
5.79
14.06
21.09
26.45
29.98
31.68
31.65
30.05
27.21
23.55
19.62
15.93
12.88
10.62
9.07
7.95
6.96
5.86
4.58
3.17
1.75
0.44
-0.73
-1.80
-2.91
-4.16
-5.68
-7.49
-9.59
-12.00
-14.72
-17.80
-21.17
-24.74
-28.10
-30.61
-31.54
-30.23
-26.42
-20.37
-12.81
-4.76
2.78
9.08
13.80
16.83
18.26
18.09
16.36
13.17
8.84
3.91
-0.92
-4.92
-7.56
-8.68
-8.52
-7.55
-6.41
-5.59
-5.37
-5.79
-6.68
-7.82
-8.97
-10.05
-11.08
-12.24
-13.80
-16.05
-19.26
-23.49
-28.51
-33.63
-37.81
-39.89
-38.97
-34.73
-27.47
-18.07
-7.67
2.61
11.94
19.72
25.52
29.00
29.97
28.49
24.89
19.87
14.23
8.82
4.29
1.09
-0.74
-1.36
-1.20
-0.79
-0.53
-0.71
-1.32
-2.25
-3.29
-4.41
-5.67
-7.33
-9.68
-12.92
-17.10
-22.04
-27.31
-32.09
-35.39
-36.19
-33.78
-27.99
-19.30
-8.77
2.36
12.73
21.30
27.38
30.69
31.28
29.49
25.81
20.82
15.20
9.63
4.79
1.31
-0.42
-0.29
1.37
3.88
6.42
8.30
9.07
8.69
7.34
5.29
2.78
-0.14
-3.47
-7.25
-11.48
-16.12
-21.10
-26.28
-31.43
-36.06
-39.40
-40.52
-38.56
-33.12
-24.38
-13.23
-0.94
11.09
21.67
29.94
35.37
37.75
37.03
33.44
27.62
20.50
13.26
7.09
2.83
0.88
1.15
3.14
6.18
9.63
12.93
15.65
17.50
18.23
17.67
15.87
13.07
9.61
5.93
2.36
-0.90
-3.84
-6.63
-9.52
-12.83
-16.73
-21.10
-25.46
-28.95
-30.42
-28.83
-23.61
-14.95
-3.79
8.44
20.25
30.42
38.13
43.03
44.99
44.07
40.47
34.63
27.19
19.17
11.65
5.63
1.74
0.09
0.35
1.87
3.91
5.88
7.48
8.66
9.51
10.01
10.03
9.38
7.97
5.86
3.30
0.62
-1.96
-4.37
-6.75
-9.33
-12.35
-15.94
-20.14
-24.78
-29.49
-33.60
-36.22
-36.44
-33.53
-27.30
-18.15
-7.03
4.81
16.10
25.80
33.24
38.06
40.15
39.59
36.72
32.09
26.49
20.82
15.94
12.47
10.69
10.49
11.46
13.03
14.65
15.87
16.48
16.40
15.68
14.35
12.45
9.93
6.80
3.18
-0.67
-4.39
-7.73
-10.66
-13.41
-16.28
-19.53
-23.16
-26.85
-30.06
-32.02
-32.01
-29.47
-24.14
-16.24
-6.51
3.95
13.90
22.19
28.10
31.32
31.87
30.01
26.14
20.77
14.55
8.28
2.76
-1.36
-3.75
-4.50
-4.00
-2.83
-1.53
-0.48
0.15
0.34
0.18
-0.31
-1.08
-2.12
-3.42
-4.92
-6.48
-8.05
-9.64
-11.40
-13.59
-16.43
-19.91
-23.75
-27.23
-29.38
-29.21
-26.12
-20.05
-11.58
-1.74
8.25
17.25
24.42
29.27
31.59
31.44
29.06
24.87
19.47
13.61
8.03
3.44
0.34
-1.09
-0.98
0.25
1.96
3.58
4.69
5.09
4.77
3.82
2.31
0.31
-2.10
-4.74
-7.40
-9.85
-12.00
-13.96
-16.11
-18.86
-22.52
-26.94
-31.45
-34.97
-36.29
-34.44
-28.99
-20.38
-9.65
1.77
12.46
21.38
27.94
31.92
33.32
32.33
29.19
24.37
18.57
12.62
7.42
3.60
1.50
1.04
1.83
3.36
5.10
6.59
7.38
7.25
6.06
4.01
1.42
-1.26
-3.63
-5.46
-6.79
-7.87
-9.04
-10.72
-13.18
-16.63
-20.99
-25.86
-30.40
-33.47
-33.98
-31.17
-25.07
-16.41
-6.47
3.37
12.02
18.89
23.78
26.69
27.64
26.67
23.93
19.98
15.64
11.91
9.53
8.82
9.50
10.97
12.56
13.83
14.62
14.96
14.89
14.29
12.99
10.81
7.81
4.21
0.36
-3.35
-6.68
-9.46
-11.74
-13.70
-15.65
-17.97
-20.95
-24.71
-28.87
-32.65
-34.92
-34.65
-31.20
-24.62
-15.65
-5.45
4.67
13.67
20.85
25.85
28.48
28.72
26.74
22.94
18.07
13.09
9.04
6.68
6.36
7.90
10.67
13.91
16.81
18.90
20.03
20.25
19.77
18.72
17.13
14.95
12.13
8.74
4.98
1.19
-2.34
-5.38
-7.86
-9.85
-11.53
-13.11
-14.91
-17.16
-19.98
-23.29
-26.65
-29.30
-30.29
-28.88
-24.69
-17.97
-9.54
-0.47
8.11
15.31
20.56
23.63
24.47
23.27
20.37
16.28
11.72
7.44
4.17
2.38
2.17
3.30
5.26
7.46
9.37
10.71
11.40
11.60
11.46
11.11
10.59
9.95
9.13
8.12
7.00
5.78
4.56
3.41
2.41
1.52
0.68
-0.30
-1.66
-3.55
-6.04
-9.07
-12.35
-15.42
-17.70
-18.55
-17.50
-14.40
-9.49
-3.40
3.05
9.06
14.00
17.48
19.31
19.45
17.93
15.01
11.07
6.75
2.81
-0.14
-1.69
-1.76
-0.60
1.34
3.59
5.70
7.43
8.68
9.43
9.71
9.57
9.01
8.00
6.58
4.75
2.61
0.27
-2.09
-4.32
-6.34
-8.21
-10.05
-12.09
-14.44
-17.14
-20.00
-22.70
-24.78
-25.85
-25.55
-23.68
-20.19
-15.21
-9.06
-2.24
4.53
10.58
15.30
18.22
19.14
18.11
15.43
11.61
7.35
3.34
0.19
-1.76
-2.46
-2.12
-1.12
0.22
1.67
3.10
4.43
5.51
6.19
6.33
5.83
4.77
3.34
1.72
0.11
-1.39
-2.75
-4.01
-5.26
-6.66
-8.40
-10.63
-13.39
-16.49
-19.51
-21.83
-22.78
-21.83
-18.80
-13.83
-7.47
-0.54
6.14
11.86
16.09
18.61
19.38
18.52
16.29
13.08
9.32
5.50
2.11
-0.50
-2.09
-2.61
-2.20
-1.10
0.40
1.96
3.39
4.57
5.39
5.92
6.13
6.00
5.53
4.71
3.55
2.11
0.39
-1.70
-4.28
-7.46
-11.22
-15.27
-19.08
-21.94
-23.18
-22.31
-19.23
-14.21
-7.82
-0.81
6.09
12.21
17.06
20.35
21.97
21.87
20.22
17.25
13.29
8.85
4.45
0.62
-2.24
-3.95
-4.63
-4.54
-4.09
-3.63
-3.36
-3.37
-3.65
-4.13
-4.69
-5.27
-5.84
-6.42
-7.22
-8.51
-10.57
-13.58
-17.42
-21.67
-25.60
-28.39
-29.26
-27.81
-24.04
-18.44
-11.83
-5.12
0.85
5.50
8.55
9.93
9.71
8.11
5.41
2.00
-1.51
-4.50
-6.48
-7.17
-6.60
-5.15
-3.23
-1.26
0.46
1.81
2.79
3.38
3.61
3.55
3.26
2.88
2.45
1.87
0.94
-0.50
-2.55
-5.02
-7.47
-9.31
-9.98
-9.10
-6.61
-2.79
1.82
6.54
10.74
13.91
15.74
16.15
15.21
13.02
9.77
5.69
1.10
-3.53
-7.73
-11.08
-13.32
-14.54
-15.01
-15.18
-15.51
-16.22
-17.33
-18.64
-19.93
-21.11
-22.23
-23.50
-25.21
-27.47
-30.21
-33.11
-35.60
-37.02
-36.85
-34.73
-30.67
-24.98
-18.22
-11.09
-4.25
1.77
6.61
10.06
11.98
12.34
11.21
8.84
5.69
2.35
-0.54
-2.44
-3.11
-2.64
-1.44
-0.04
1.07
1.66
1.67
1.30
0.74
0.05
-0.87
-2.14
-3.98
-6.38
-9.24
-12.35
-15.38
-17.94
-19.57
-19.79
-18.25
-14.84
-9.82
-3.70
2.81
8.95
14.08
17.71
19.54
19.43
17.46
13.94
9.42
4.63
0.36
-2.73
-4.32
-4.47
-3.56
-2.21
-0.96
-0.19
-0.05
-0.40
-1.09
-1.97
-3.09
-4.59
-6.74
-9.73
-13.61
-18.18
-22.98
-27.32
-30.43
-31.63
-30.49
-26.99
-21.43
-14.46
-6.81
0.73
7.48
12.97
16.83
18.87
19.03
17.56
14.95
11.95
9.29
7.56
6.98
7.32
8.04
8.53
8.34
7.35
5.81
4.10
2.58
1.37
0.33
-0.89
-2.66
-5.31
-8.88
-13.13
-17.49
-21.22
-23.44
-23.42
-20.71
-15.33
-7.85
0.76
9.41
17.03
22.85
26.47
27.76
26.84
24.04
19.93
15.29
11.04
8.06
6.84
7.47
9.41
11.82
13.80
14.78
14.62
13.46
11.64
9.40
6.87
3.92
0.44
-3.70
-8.56
-14.09
-20.09
-26.07
-31.23
-34.55
-35.01
-31.99
-25.51
-16.34
-5.70
5.02
14.67
22.51
28.13
31.48
32.56
31.54
28.78
24.93
20.87
17.49
15.45
14.94
15.74
17.26
18.91
20.20
20.89
20.90
20.21
18.81
16.68
13.98
10.91
7.77
4.78
1.99
-0.75
-3.69
-7.01
-10.82
-14.95
-19.11
-22.82
-25.45
-26.33
-24.86
-20.68
-13.91
-5.23
4.33
13.49
21.14
26.51
29.27
29.47
27.43
23.76
19.19
14.63
10.96
8.92
8.84
10.53
13.37
16.61
19.57
21.81
23.23
23.88
23.87
23.18
21.82
19.78
17.18
14.26
11.30
8.51
5.95
3.52
1.01
-1.75
-4.79
-8.02
-11.23
-14.12
-16.48
-18.25
-19.57
-20.74
-22.18
-24.18
-26.98
-30.49
-34.20
-37.23
-38.48
-36.89
-31.78
-23.19
-11.99
0.35
12.12
21.85
28.65
32.26
32.90
31.07
27.35
22.39
16.99
12.16
8.85
7.74
8.98
12.15
16.28
20.30
23.35
25.01
25.35
24.76
23.59
22.08
20.27
18.01
15.16
11.77
8.07
4.47
1.39
-0.92
-2.43
-3.32
-3.89
-4.41
-5.02
-5.77
-6.63
-7.59
-8.66
-9.90
-11.39
-13.14
-15.17
-17.53
-20.32
-23.63
-27.45
-31.46
-34.94
-36.91
-36.32
-32.44
-25.21
-15.29
-3.98
7.23
16.95
24.27
28.73
30.32
29.30
26.16
21.59
16.46
11.83
8.71
7.84
9.40
13.02
17.84
22.81
27.02
29.89
31.23
31.17
29.93
27.70
24.60
20.78
16.39
11.77
7.28
3.25
-0.15
-2.94
-5.28
-7.40
-9.41
-11.33
-13.08
-14.57
-15.75
-16.70
-17.56
-18.55
-19.94
-21.90
-24.58
-27.93
-31.79
-35.74
-39.13
-41.09
-40.76
-37.55
-31.28
-22.42
-11.89
-0.98
9.11
17.46
23.55
27.19
28.44
27.48
24.57
20.21
15.13
10.22
6.39
4.28
4.11
5.59
8.14
11.05
13.75
15.97
17.64
18.80
19.38
19.21
18.11
15.96
12.90
9.24
5.47
1.97
-1.06
-3.66
-5.95
-8.06
-10.00
-11.73
-13.15
-14.27
-15.15
-15.93
-16.79
-17.88
-19.35
-21.34
-23.95
-27.08
-30.41
-33.30
-34.91
-34.41
-31.29
-25.52
-17.58
-8.40
0.91
9.30
16.04
20.71
23.21
23.61
22.14
19.23
15.45
11.55
8.33
6.49
6.33
7.86
10.65
14.05
17.40
20.15
21.94
22.66
22.32
21.03
19.02
16.48
13.63
10.66
7.71
4.81
1.90
-1.09
-4.24
-7.47
-10.56
-13.25
-15.37
-16.98
-18.28
-19.64
-21.40
-23.79
-26.78
-30.16
-33.52
-36.25
-37.64
-37.03
-33.92
-28.26
-20.54
-11.63
-2.60
5.54
12.09
16.63
19.11
19.61
18.38
15.70
12.06
8.15
4.76
2.65
2.24
3.61
6.40
9.94
13.48
16.37
18.25
19.02
18.83
17.89
16.41
14.55
12.35
9.82
6.91
3.54
-0.32
-4.54
-8.92
-13.09
-16.69
-19.46
-21.35
-22.58
-23.54
-24.76
-26.53
-28.94
-31.69
-34.13
-35.43
-34.76
-31.60
-25.91
-18.23
-9.41
-0.54
7.41
13.75
18.06
20.16
20.01
17.82
13.89
8.84
3.43
-1.48
-5.09
-6.88
-6.71
-4.84
-1.77
1.93
5.76
9.33
12.43
14.91
16.56
17.23
16.73
15.03
12.18
8.43
4.10
-0.46
-4.89
-8.95
-12.54
-15.74
-18.80
-22.08
-25.86
-30.19
-34.74
-38.79
-41.34
-41.43
-38.42
-32.23
-23.44
-13.11
-2.50
7.17
15.00
20.51
23.58
24.30
22.96
19.91
15.65
10.88
6.37
2.95
1.26
1.57
3.69
6.99
10.61
13.72
15.74
16.47
16.05
14.75
12.80
10.39
7.60
4.47
1.17
-2.13
-5.25
-8.24
-11.37
-15.03
-19.45
-24.34
-28.93
-32.04
-32.55
-29.84
-24.03
-15.90
-6.67
2.42
10.43
16.83
21.40
24.08
24.81
23.62
20.63
16.27
11.27
6.56
3.01
1.20
1.17
2.45
4.28
5.90
6.73
6.58
5.52
3.78
1.63
-0.75
-3.29
-6.03
-9.05
-12.47
-16.42
-20.96
-26.04
-31.40
-36.47
-40.42
-42.21
-40.94
-36.19
-28.20
-17.97
-6.94
3.48
12.23
18.79
23.17
25.48
25.87
24.39
21.17
16.61
11.47
6.72
3.23
1.50
1.48
2.66
4.20
5.37
5.75
5.25
4.13
2.67
1.01
-0.87
-3.10
-5.80
-9.02
-12.69
-16.74
-21.14
-25.81
-30.52
-34.67
-37.29
-37.28
-33.89
-26.94
-17.08
-5.60
5.97
16.24
24.27
29.53
31.82
31.16
27.76
22.16
15.21
8.10
2.05
-1.95
-3.46
-2.62
-0.09
3.22
6.43
8.88
10.31
10.74
10.38
9.40
7.83
5.64
2.69
-1.06
-5.59
-10.72
-16.34
-22.23
-27.94
-32.76
-35.65
-35.51
-31.56
-23.70
-12.70
-0.01
12.62
23.63
31.98
37.18
39.12
38.02
34.26
28.40
21.28
13.90
7.41
2.74
0.42
0.41
2.13
4.75
7.37
9.36
10.38
10.41
9.59
8.14
6.29
4.20
2.02
-0.19
-2.44
-4.86
-7.60
-10.90
-14.89
-19.58
-24.57
-29.07
-31.98
-32.12
-28.67
-21.47
-11.24
0.73
12.87
23.74
32.31
38.02
40.59
40.01
36.48
30.55
23.20
15.74
9.53
5.55
4.21
5.18
7.67
10.75
13.69
16.17
18.20
19.90
21.23
21.97
21.76
20.33
17.67
14.08
10.07
6.10
2.49
-0.76
-3.83
-6.96
-10.33
-14.04
-18.06
-22.22
-26.11
-29.02
-30.06
-28.35
-23.45
-15.52
-5.38
5.58
15.96
24.57
30.68
34.01
34.56
32.53
28.28
22.43
15.82
9.58
4.79
2.23
2.16
4.18
7.45
10.91
13.75
15.51
16.25
16.27
15.88
15.25
14.24
12.57
9.99
6.50
2.45
-1.64
-5.20
-7.92
-9.80
-11.15
-12.50
-14.30
-16.86
-20.19
-24.05
-27.95
-31.19
-32.93
-32.35
-28.90
-22.52
-13.70
-3.42
7.12
16.76
24.62
30.11
32.93
32.97
30.42
25.78
19.88
13.83
8.66
5.23
3.85
4.36
6.23
8.82
11.49
13.75
15.33
16.10
16.09
15.36
14.01
12.07
9.62
6.75
3.66
0.61
-2.17
-4.51
-6.51
-8.39
-10.46
-13.01
-16.16
-19.80
-23.56
-26.84
-28.90
-29.01
-26.69
-21.83
-14.79
-6.31
2.67
11.14
18.29
23.47
26.29
26.60
24.49
20.37
14.91
9.00
3.51
-0.87
-3.74
-5.13
-5.33
-4.72
-3.72
-2.67
-1.82
-1.40
-1.57
-2.44
-4.10
-6.45
-9.23
-12.09
-14.69
-16.87
-18.66
-20.30
-22.07
-24.29
-27.15
-30.61
-34.39
-37.80
-39.94
-39.73
-36.31
-29.31
-19.10
-6.73
6.33
18.52
28.69
36.12
40.54
42.04
40.90
37.43
32.00
25.12
17.48
10.04
3.82
-0.36
-2.06
-1.35
1.07
4.30
7.38
9.61
10.65
10.51
9.25
7.08
4.14
0.68
-3.00
-6.56
-9.75
-12.63
-15.45
-18.64
-22.55
-27.19
-32.04
-36.05
-38.03
-36.89
-32.10
-23.90
-13.23
-1.46
9.97
19.89
27.61
32.77
35.30
35.33
33.11
28.98
23.50
17.39
11.41
6.29
2.60
0.58
0.23
1.28
3.26
5.55
7.58
8.78
8.80
7.53
5.13
2.00
-1.38
-4.59
-7.42
-10.02
-12.72
-15.91
-19.95
-24.88
-30.34
-35.63
-39.74
-41.56
-40.25
-35.40
-27.18
-16.40
-4.29
7.74
18.34
26.45
31.51
33.41
32.46
29.28
24.56
19.01
13.33
8.11
3.94
1.30
0.49
1.51
4.04
7.46
11.05
14.15
16.32
17.42
17.50
16.66
15.07
12.83
10.09
7.06
3.92
0.77
-2.41
-5.85
-9.88
-14.67
-20.09
-25.47
-29.72
-31.58
-30.16
-25.22
-17.32
-7.76
1.96
10.40
16.62
20.23
21.24
19.91
16.58
11.66
5.67
-0.65
-6.48
-10.98
-13.60
-14.11
-12.70
-9.88
-6.38
-2.85
0.19
2.37
3.56
3.74
2.98
1.43
-0.66
-3.06
-5.58
-8.12
-10.77
-13.75
-17.34
-21.74
-26.86
-32.17
-36.78
-39.50
-39.26
-35.43
-28.13
-18.14
-6.79
4.53
14.60
22.69
28.39
31.58
32.26
30.54
26.67
21.22
15.03
9.04
4.16
0.94
-0.48
-0.38
0.79
2.54
4.52
6.52
8.32
9.64
10.24
9.90
8.58
6.54
4.18
1.90
-0.12
-1.94
-3.96
-6.58
-10.12
-14.63
-19.81
-24.99
-29.26
-31.60
-31.09
-27.25
-20.26
-10.96
-0.69
9.02
16.95
22.31
24.97
25.24
23.59
20.52
16.43
11.77
7.01
2.74
-0.45
-2.10
-2.07
-0.63
1.67
4.18
6.34
7.81
8.43
8.19
7.09
5.20
2.53
-0.78
-4.58
-8.69
-13.00
-17.52
-22.40
-27.77
-33.45
-38.96
-43.34
-45.47
-44.38
-39.62
-31.43
-20.73
-8.85
2.92
13.42
21.96
28.06
31.52
32.24
30.35
26.25
20.62
14.37
8.46
3.77
0.79
-0.33
0.11
1.55
3.28
4.74
5.54
5.66
5.27
4.59
3.76
2.81
1.64
0.09
-2.00
-4.82
-8.57
-13.40
-19.26
-25.74
-32.00
-36.79
-38.81
-37.09
-31.41
-22.40
-11.31
0.32
11.07
19.95
26.31
29.88
30.55
28.44
23.91
17.67
10.68
4.07
-1.20
-4.55
-5.83
-5.35
-3.69
-1.63
0.17
1.22
1.37
0.74
-0.32
-1.48
-2.59
-3.72
-5.24
-7.65
-11.35
-16.54
-22.92
-29.75
-35.89
-40.04
-40.95
-37.90
-30.81
-20.41
-8.02
4.77
16.41
25.75
32.05
35.03
34.73
31.47
25.83
18.62
10.90
3.75
-1.84
-5.27
-6.35
-5.44
-3.21
-0.43
2.17
4.15
5.37
5.90
5.98
5.76
5.17
4.05
2.08
-1.06
-5.49
-11.14
-17.61
-24.14
-29.76
-33.36
-33.91
-30.77
-23.90
-13.94
-2.11
10.06
21.10
29.93
35.97
39.05
39.28
36.92
32.40
26.31
19.49
12.91
7.55
4.10
2.79
3.36
5.06
7.06
8.66
9.46
9.43
8.77
7.70
6.34
4.59
2.26
-0.80
-4.64
-9.25
-14.59
-20.57
-26.92
-32.94
-37.48
-39.16
-36.79
-29.91
-18.99
-5.50
8.69
21.74
32.28
39.55
43.27
43.50
40.50
34.84
27.33
19.19
11.75
6.16
3.15
2.81
4.69
7.97
11.81
15.49
18.48
20.46
21.19
20.62
18.79
15.94
12.37
8.39
4.21
-0.10
-4.60
-9.47
-14.81
-20.68
-26.97
-33.22
-38.62
-42.07
-42.35
-38.67
-30.93
-19.85
-6.82
6.41
18.24
27.55
33.72
36.61
36.28
33.03
27.40
20.28
12.89
6.61
2.63
1.52
3.14
6.64
10.86
14.79
17.86
19.93
21.20
21.88
21.97
21.30
19.62
16.83
13.08
8.76
4.31
0.17
-3.43
-6.48
-9.11
-11.58
-14.17
-17.13
-20.61
-24.53
-28.51
-31.84
-33.62
-32.95
-29.29
-22.69
-13.79
-3.75
6.22
14.93
21.62
25.88
27.60
26.88
24.04
19.58
14.24
9.01
4.83
2.54
2.53
4.67
8.37
12.80
17.06
20.45
22.58
23.36
22.97
21.64
19.68
17.31
14.71
12.00
9.22
6.45
3.75
1.22
-1.05
-3.00
-4.62
-6.07
-7.54
-9.30
-11.63
-14.73
-18.66
-23.21
-27.89
-31.84
-34.16
-33.99
-30.85
-24.75
-16.27
-6.44
3.51
12.36
19.18
23.32
24.66
23.34
19.84
14.85
9.19
3.78
-0.46
-2.76
-2.75
-0.47
3.44
8.10
12.58
16.16
18.54
19.77
20.03
19.54
18.41
16.73
14.61
12.17
9.58
6.98
4.34
1.62
-1.25
-4.26
-7.24
-10.07
-12.68
-15.16
-17.72
-20.58
-23.74
-26.93
-29.55
-30.89
-30.35
-27.53
-22.49
-15.60
-7.55
0.82
8.68
15.24
19.91
22.28
22.25
20.02
16.07
11.10
5.95
1.48
-1.64
-3.05
-2.82
-1.33
0.85
3.10
5.05
6.53
7.62
8.43
9.04
9.31
9.07
8.13
6.43
4.12
1.50
-1.20
-3.85
-6.50
-9.36
-12.64
-16.52
-20.94
-25.61
-30.11
-33.87
-36.18
-36.43
-34.14
-29.21
-22.04
-13.42
-4.45
3.77
10.34
14.79
17.01
17.16
15.58
12.63
8.77
4.55
0.58
-2.61
-4.58
-5.23
-4.76
-3.56
-2.08
-0.65
0.54
1.48
2.22
2.77
3.11
3.20
2.97
2.42
1.59
0.49
-0.94
-2.87
-5.55
-9.18
-13.81
-19.20
-24.71
-29.40
-32.21
-32.29
-29.21
-23.20
-15.03
-5.83
3.21
11.11
17.22
21.20
22.95
22.50
20.00
15.75
10.25
4.17
-1.65
-6.42
-9.64
-11.07
-10.95
-9.69
-7.79
-5.70
-3.69
-1.93
-0.61
0.05
-0.11
-1.17
-3.02
-5.43
-8.16
-11.07
-14.26
-17.97
-22.45
-27.68
-33.35
-38.70
-42.66
-44.12
-42.26
-36.70
-27.74
-16.30
-3.67
8.65
19.32
27.42
32.45
34.34
33.36
30.02
24.95
18.96
12.78
7.17
2.73
-0.12
-1.20
-0.62
1.30
4.08
7.21
10.20
12.63
14.22
14.79
14.31
12.83
10.53
7.62
4.40
1.01
-2.50
-6.25
-10.52
-15.52
-21.31
-27.61
-33.75
-38.65
-41.22
-40.56
-36.28
-28.74
-18.92
-8.11
2.39
11.52
18.65
23.44
25.79
25.75
23.48
19.35
14.04
8.44
3.51
0.13
-1.20
-0.50
1.83
5.01
8.31
11.12
13.11
14.21
14.48
14.01
12.83
10.98
8.47
5.48
2.19
-1.22
-4.64
-8.06
-11.59
-15.37
-19.51
-23.98
-28.47
-32.39
-35.01
-35.49
-33.19
-27.95
-20.05
-10.29
0.27
10.54
19.61
26.78
31.56
33.68
33.06
29.90
24.75
18.55
12.42
7.50
4.55
3.89
5.25
8.03
11.49
14.98
18.04
20.37
21.71
21.89
20.81
18.51
15.19
11.21
6.95
2.72
-1.22
-4.78
-7.93
-10.78
-13.53
-16.51
-19.98
-23.95
-28.13
-31.73
-33.76
-33.23
-29.58
-22.81
-13.57
-2.93
7.89
17.76
25.80
31.44
34.38
34.53
32.07
27.43
21.28
14.51
8.00
2.56
-1.23
-3.12
-3.17
-1.78
0.56
3.29
5.96
8.26
10.05
11.28
11.86
11.73
10.80
9.10
6.79
4.14
1.41
-1.19
-3.72
-6.40
-9.56
-13.44
-18.05
-23.05
-27.74
-31.16
-32.34
-30.61
-25.74
-18.14
-8.75
1.23
10.60
18.40
24.07
27.41
28.42
27.32
24.40
20.08
14.90
9.49
4.48
0.47
-2.23
-3.50
-3.47
-2.45
-0.80
1.19
3.27
5.21
6.82
7.82
7.98
7.23
5.62
3.36
0.74
-2.07
-5.01
-8.13
-11.64
-15.65
-20.14
-24.88
-29.33
-32.74
-34.31
-33.36
-29.54
-23.04
-14.51
-4.91
4.56
12.92
19.41
23.68
25.63
25.48
23.47
19.99
15.48
10.43
5.51
1.37
-1.44
-2.58
-2.07
-0.31
2.12
4.55
6.44
7.53
7.77
7.28
6.26
4.90
3.28
1.53
-0.27
-2.12
-4.08
-6.40
-9.44
-13.51
-18.62
-24.28
-29.52
-33.08
-33.90
-31.36
-25.70
-17.75
-8.72
0.21
8.14
14.56
19.11
21.59
21.93
20.18
16.68
12.06
7.11
2.59
-0.87
-2.94
-3.56
-2.89
-1.24
0.99
3.37
5.51
7.08
7.90
7.91
7.23
5.99
4.32
2.24
-0.31
-3.53
-7.60
-12.61
-18.46
-24.72
-30.55
-34.96
-36.90
-35.64
-30.99
-23.40
-13.87
-3.66
6.05
14.29
20.50
24.33
25.67
24.59
21.25
16.10
9.86
3.41
-2.29
-6.43
-8.49
-8.42
-6.55
-3.52
-0.05
3.24
5.95
7.89
9.07
9.58
9.51
8.83
7.52
5.51
2.72
-0.98
-5.71
-11.52
-18.15
-24.97
-30.88
-34.60
-35.00
-31.53
-24.45
-14.71
-3.79
6.79
15.84
22.64
26.92
28.69
28.03
25.15
20.35
14.17
7.49
1.27
-3.51
-6.15
-6.44
-4.68
-1.49
2.37
6.14
9.25
11.26
12.01
11.48
9.84
7.33
4.19
0.60
-3.41
-7.81
-12.63
-17.88
-23.40
-28.86
-33.62
-36.78
-37.31
-34.41
-27.78
-17.92
-5.94
6.61
18.19
27.69
34.43
38.23
39.08
37.24
33.06
27.15
20.33
13.59
7.89
3.86
1.82
1.64
2.88
4.97
7.31
9.38
10.82
11.44
11.22
10.26
8.72
6.81
4.71
2.48
0.15
-2.40
-5.34
-8.87
-13.14
-18.09
-23.28
-27.90
-30.90
-31.21
-28.12
-21.60
-12.35
-1.63
9.10
18.53
25.77
30.35
32.15
31.29
28.06
22.97
16.76
10.37
4.75
0.68
-1.40
-1.52
-0.01
2.55
5.61
8.67
11.42
13.67
15.27
16.11
16.02
14.91
12.83
9.99
6.76
3.54
0.58
-2.03
-4.46
-7.00
-9.92
-13.35
-17.14
-20.81
-23.60
-24.67
-23.30
-19.16
-12.43
-3.86
5.57
14.72
22.68
28.76
32.47
33.56
31.98
27.90
21.83
14.59
7.12
0.41
-4.80
-8.15
-9.56
-9.26
-7.65
-5.16
-2.23
0.73
3.31
5.19
6.04
5.75
4.35
2.02
-0.88
-3.97
-6.90
-9.42
-11.38
-12.88
-14.11
-15.39
-17.04
-19.27
-22.04
-25.00
-27.50
-28.67
-27.76
-24.25
-18.14
-9.96
-0.62
8.76
17.15
23.72
27.95
29.58
28.56
25.14
19.84
13.54
7.26
2.06
-1.29
-2.44
-1.57
0.82
4.08
7.58
10.86
13.62
15.68
16.88
17.12
16.37
14.65
12.14
9.07
5.75
2.47
-0.49
-3.06
-5.26
-7.30
-9.44
-11.91
-14.78
-17.85
-20.61
-22.38
-22.52
-20.54
-16.38
-10.37
-3.23
4.09
10.59
15.47
18.26
18.81
17.31
14.20
10.05
5.44
0.96
-2.90
-5.75
-7.39
-7.81
-7.22
-5.91
-4.23
-2.50
-0.93
0.26
0.91
0.94
0.29
-0.96
-2.70
-4.70
-6.77
-8.78
-10.75
-12.87
-15.41
-18.68
-22.72
-27.26
-31.60
-34.61
-35.17
-32.46
-26.29
-17.30
-6.67
4.15
13.90
21.72
27.18
30.16
30.71
28.95
25.22
19.99
14.00
8.10
3.03
-0.65
-2.68
-3.12
-2.25
-0.55
1.43
3.21
4.37
4.67
4.03
2.48
0.18
-2.69
-5.94
-9.36
-12.77
-16.07
-19.29
-22.51
-25.83
-29.19
-32.22
-34.25
-34.48
-32.16
-26.98
-19.19
-9.53
0.89
10.88
19.47
25.98
30.04
31.55
30.57
27.30
22.16
15.77
8.93
2.58
-2.52
-5.85
-7.27
-7.02
-5.61
-3.60
-1.51
0.24
1.40
1.75
1.28
0.10
-1.53
-3.36
-5.13
-6.80
-8.50
-10.49
-13.02
-16.22
-19.90
-23.61
-26.64
-28.10
-27.28
-23.78
-17.65
-9.48
-0.23
9.01
17.28
23.84
28.23
30.22
29.78
27.11
22.64
17.05
11.17
5.89
1.95
-0.20
-0.44
0.98
3.57
6.66
9.62
11.94
13.29
13.53
12.65
10.69
7.79
4.16
0.09
-4.05
-7.98
-11.59
-15.02
-18.52
-22.27
-26.15
-29.65
-31.90
-31.96
-29.16
-23.40
-15.21
-5.63
4.08
12.74
19.47
23.79
25.53
24.75
21.73
16.93
11.05
4.94
-0.51
-4.54
-6.69
-6.96
-5.69
-3.51
-1.10
0.95
2.27
2.76
2.50
1.65
0.34
-1.36
-3.49
-6.09
-9.27
-13.10
-17.53
-22.43
-27.54
-32.42
-36.44
-38.90
-39.08
-36.47
-30.90
-22.61
-12.37
-1.27
9.44
18.68
25.63
29.90
31.44
30.46
27.38
22.72
17.22
11.63
6.74
3.16
1.21
0.82
1.59
2.95
4.33
5.44
6.14
6.52
6.66
6.61
6.22
5.30
3.61
1.04
-2.45
-6.82
-11.99
-17.79
-23.84
-29.45
-33.63
-35.27
-33.48
-27.94
-19.08
-7.96
3.96
15.21
24.65
31.50
35.40
36.21
34.08
29.37
22.79
15.31
8.03
2.03
-1.92
-3.52
-3.04
-1.13
1.31
3.42
4.65
4.77
3.84
2.10
-0.22
-2.95
-5.92
-9.12
-12.50
-16.13
-20.10
-24.57
-29.59
-34.80
-39.43
-42.26
-42.02
-37.85
-29.63
-18.22
-5.14
7.84
19.17
27.88
33.55
36.14
35.78
32.70
27.34
20.42
13.01
6.34
1.49
-0.88
-0.71
1.52
4.95
8.64
11.85
14.13
15.26
15.22
14.11
12.08
9.32
6.08
2.61
-0.84
-4.14
-7.39
-10.84
-14.81
-19.44
-24.45
-29.12
-32.38
-33.10
-30.50
-24.39
-15.24
-4.09
7.68
18.72
27.83
34.21
37.50
37.71
35.25
30.76
24.99
18.73
12.74
7.57
3.73
1.47
0.83
1.65
3.57
6.06
8.60
10.75
12.15
12.54
11.80
9.96
7.17
3.71
-0.11
-3.98
-7.62
-10.91
-13.85
-16.61
-19.42
-22.48
-25.69
-28.62
-30.38
-29.99
-26.67
-20.26
-11.35
-1.05
9.32
18.62
26.09
31.31
34.01
34.03
31.32
26.19
19.41
12.16
5.75
1.19
-0.94
-0.69
1.44
4.75
8.61
12.44
15.83
18.46
20.12
20.67
20.02
18.18
15.22
11.32
6.76
1.89
-2.84
-7.05
-10.51
-13.26
-15.59
-17.94
-20.72
-24.06
-27.82
-31.44
-34.22
-35.32
-34.03
-29.88
-22.78
-13.18
-1.93
9.74
20.49
29.11
34.75
36.98
35.82
31.70
25.34
17.76
10.06
3.29
-1.70
-4.43
-4.85
-3.21
-0.04
3.91
7.99
11.61
14.43
16.34
17.29
17.31
16.34
14.37
11.41
7.67
3.48
-0.75
-4.74
-8.41
-11.89
-15.42
-19.21
-23.32
-27.63
-31.80
-35.27
-37.38
-37.41
-34.78
-29.27
-21.14
-11.12
-0.23
10.34
19.45
26.27
30.25
31.23
29.42
25.36
19.91
14.10
8.91
5.18
3.37
3.46
5.06
7.47
9.92
11.78
12.67
12.47
11.23
9.16
6.42
3.20
-0.34
-3.98
-7.55
-10.86
-13.82
-16.43
-18.76
-21.01
-23.46
-26.28
-29.49
-32.78
-35.45
-36.60
-35.31
-30.97
-23.51
-13.50
-2.02
9.57
19.96
28.16
33.51
35.80
35.10
31.70
26.12
19.07
11.45
4.26
-1.48
-5.04
-6.05
-4.64
-1.35
3.05
7.72
11.99
15.28
17.27
17.70
16.47
13.67
9.56
4.57
-0.79
-6.11
-11.17
-16.01
-20.79
-25.80
-31.15
-36.72
-42.06
-46.32
-48.43
-47.31
-42.33
-33.50
-21.68
-8.26
5.11
16.97
26.41
32.93
36.38
36.83
34.47
29.65
23.16
16.09
9.68
4.99
2.58
2.36
3.80
6.14
8.67
10.95
12.76
13.96
14.45
14.07
12.70
10.40
7.35
3.86
0.23
-3.33
-6.78
-10.18
-13.75
-17.74
-22.36
-27.67
-33.36
-38.79
-42.91
-44.57
-42.76
-37.09
-27.92
-16.29
-3.61
8.71
19.53
28.08
33.91
36.86
36.93
34.34
29.58
23.51
17.27
12.01
8.58
7.31
7.95
9.86
12.26
14.53
16.31
17.53
18.14
18.05
17.08
15.10
12.17
8.64
5.03
1.74
-0.98
-3.31
-5.68
-8.60
-12.52
-17.61
-23.59
-29.74
-35.07
-38.35
-38.47
-34.73
-27.02
-16.07
-3.18
9.96
21.69
30.70
36.26
38.22
36.89
32.87
26.88
19.69
12.13
4.95
-1.10
-5.48
-7.92
-8.51
-7.65
-5.89
-3.84
-1.93
-0.49
0.37
0.62
0.34
-0.43
-1.62
-3.23
-5.31
-7.89
-11.10
-14.97
