1553094513.00
64.000000
-0.00
-0.00
-0.00
-0.00
-0.00
-0.00
-0.00
-0.00
-0.00
-0.00
0.00
0.01
0.01
-0.00
-0.03
-0.05
-0.05
0.00
0.13
0.36
0.66
1.01
1.37
1.72
2.06
2.40
2.79
3.24
3.80
4.42
5.06
5.66
6.20
6.68
7.15
7.68
8.31
9.14
10.09
11.04
11.88
12.56
13.14
13.76
14.65
15.96
17.91
20.32
22.90
25.38
27.58
29.57
31.68
34.32
37.81
42.54
48.15
54.10
59.83
64.97
69.58
74.14
79.34
85.71
93.76
103.00
112.62
121.73
129.77
136.75
143.30
150.75
157.77
166.64
177.95
191.79
206.97
220.57
228.25
225.36
208.53
176.87
132.76
80.05
23.07
-34.94
-92.44
-149.16
-205.23
-260.37
-313.74
-363.87
-409.83
-450.91
-486.50
-515.74
-537.23
-549.22
-549.96
-538.37
-514.21
-478.67
-433.88
-382.45
-327.02
-269.84
-212.63
-156.66
-102.95
-52.37
-5.90
35.58
71.43
101.35
125.50
144.38
158.69
169.15
176.37
180.75
182.57
182.07
179.51
175.23
169.65
163.18
156.15
148.81
141.30
133.69
126.02
118.33
110.69
103.16
95.80
88.68
81.83
75.25
68.95
62.95
57.25
51.86
46.78
42.03
37.59
33.45
29.61
26.07
22.81
19.83
17.11
14.67
12.48
10.54
8.83
7.35
6.07
4.97
4.05
3.27
2.62
2.09
1.65
1.30
1.01
0.79
0.61
0.47
0.37
0.29
0.23
0.18
0.16
0.14
0.14
0.14
0.15
0.17
0.20
0.23
0.27
0.30
0.35
0.39
0.44
0.48
0.53
0.58
0.63
0.68
0.74
0.81
0.87
0.95
1.03
1.13
1.23
1.34
1.47
1.62
1.78
1.95
2.16
2.38
2.62
2.89
3.19
3.52
3.88
4.27
4.70
5.17
5.67
6.21
6.79
7.41
8.07
8.78
9.53
10.33
11.18
12.06
12.99
13.97
15.02
16.13
17.31
18.53
19.79
21.06
22.27
23.34
24.18
24.66
24.65
24.06
22.80
20.82
18.13
14.79
10.88
6.60
2.13
-2.32
-6.53
-10.33
-13.54
-16.07
-17.87
-18.93
-19.29
-19.05
-18.33
-17.23
-15.87
-14.34
-12.70
-10.98
-9.17
-7.26
-5.30
-3.32
-1.33
0.64
2.61
4.58
6.61
8.73
11.05
13.46
15.90
18.32
20.72
23.08
25.48
28.01
30.81
34.04
37.52
41.14
44.81
48.47
52.12
55.86
59.85
64.30
69.50
75.06
80.71
86.18
91.27
95.91
100.25
104.55
109.16
114.46
119.85
124.77
128.54
130.51
130.16
127.06
120.71
110.00
98.04
85.44
72.13
57.74
41.85
24.40
5.80
-13.24
-31.79
-49.07
-65.35
-81.12
-97.08
-114.16
-133.35
-155.44
-180.46
-207.14
-232.56
-253.17
-265.25
-266.30
-256.20
-237.16
-212.95
-187.39
-163.19
-141.48
-122.51
-106.02
-91.80
-79.82
-70.02
-61.98
-54.95
-48.08
-40.78
-33.09
-25.45
-18.50
-12.88
-8.86
-6.39
-5.05
-4.25
-3.41
-2.20
-0.60
1.12
2.47
2.97
2.20
0.02
-3.46
-7.79
-12.17
-15.56
-16.87
-15.18
-10.06
-1.76
8.87
20.56
31.98
42.02
49.98
55.51
58.50
58.97
57.04
53.03
47.56
41.47
35.73
31.12
28.02
26.35
25.73
25.72
26.03
26.66
27.68
29.12
30.77
32.25
33.12
33.08
31.99
29.90
26.95
23.37
19.44
15.51
11.89
8.77
6.06
3.51
0.74
-2.43
-5.92
-9.36
-12.29
-14.36
-15.59
-16.26
-16.83
-17.72
-19.11
-21.04
-23.43
-26.22
-29.42
-32.86
-36.08
-38.19
-38.12
-34.97
-28.45
-19.14
-8.33
2.44
11.87
19.29
24.58
28.01
29.82
30.10
28.76
25.78
21.40
16.15
10.79
6.09
2.69
0.95
0.85
2.12
4.28
6.77
9.08
10.86
11.96
12.45
12.46
12.19
11.75
11.11
10.17
8.76
6.82
4.41
1.73
-0.96
-3.50
-5.86
-8.18
-10.57
-13.15
-15.97
-19.01
-22.23
-25.51
-28.50
-30.61
-31.09
-29.28
-24.91
-18.23
-9.98
-1.15
7.33
14.77
20.77
25.04
27.40
27.70
25.95
22.42
17.64
12.32
7.20
2.85
-0.33
-2.25
-3.00
-2.84
-2.11
-1.10
0.01
1.15
2.28
3.35
4.14
4.32
3.60
1.92
-0.51
-3.24
-5.79
-7.91
-9.69
-11.55
-14.04
-17.67
-22.61
-28.65
-35.13
-41.07
-45.36
-46.98
-45.26
-40.01
-31.60
-20.93
-9.13
2.59
13.19
21.86
28.12
31.77
32.84
31.56
28.34
23.79
18.55
13.29
8.51
4.54
1.58
-0.30
-0.98
-0.45
1.18
3.61
6.28
8.56
9.85
9.86
8.65
6.56
4.04
1.49
-0.96
-3.35
-5.90
-8.87
-12.49
-16.90
-22.14
-28.04
-34.19
-39.85
-44.01
-45.49
-43.34
-37.13
-27.30
-15.07
-2.19
9.61
19.09
25.74
29.66
31.15
30.47
27.71
23.04
16.96
10.46
4.65
0.48
-1.74
-2.40
-2.21
-1.81
-1.32
-0.49
1.03
3.25
5.60
7.21
7.26
5.51
2.35
-1.38
-4.88
-7.72
-10.12
-12.71
-16.21
-21.09
-27.31
-34.27
-40.97
-46.19
-48.85
-48.15
-43.83
-36.11
-25.72
-13.69
-1.18
10.70
20.88
28.53
33.15
34.57
33.09
29.36
24.27
18.73
13.42
8.75
4.92
2.03
0.18
-0.52
0.03
1.72
4.22
6.97
9.28
10.56
10.41
8.77
5.95
2.53
-0.89
-3.82
-6.11
-7.93
-9.75
-12.12
-15.54
-20.27
-26.23
-32.87
-39.22
-43.96
-45.69
-43.43
-36.84
-26.43
-13.45
0.42
13.56
24.68
33.01
38.24
40.38
39.68
36.55
31.59
25.59
19.44
14.02
9.96
7.59
6.80
7.23
8.37
9.82
11.32
12.76
14.06
15.04
15.43
14.95
13.39
10.75
7.22
3.24
-0.73
-4.23
-6.98
-8.95
-10.46
-12.04
-14.31
-17.85
-22.83
-28.95
-35.27
-40.31
-42.44
-40.33
-33.45
-22.34
-8.53
5.98
19.23
29.91
37.42
41.79
43.31
42.26
38.89
33.50
26.72
19.45
12.83
7.82
5.01
4.46
5.69
7.95
10.53
12.87
14.80
16.39
17.77
18.93
19.70
19.75
18.73
16.47
13.05
8.79
4.14
-0.39
-4.43
-7.75
-10.29
-12.31
-14.24
-16.72
-20.35
-25.40
-31.53
-37.71
-42.34
-43.77
-40.88
-33.49
-22.58
-9.85
2.80
13.86
22.58
28.85
32.90
34.87
34.71
32.29
27.66
21.35
14.36
7.93
3.14
0.60
0.26
1.62
3.88
6.29
8.33
9.77
10.57
10.86
10.75
10.31
9.53
8.35
6.69
4.57
2.08
-0.61
-3.30
-5.91
-8.46
-11.07
-13.82
-16.77
-19.84
-23.00
-26.35
-30.03
-34.08
-38.15
-41.34
-42.38
-40.08
-33.80
-23.84
-11.44
1.69
13.82
23.76
30.95
35.32
37.04
36.29
33.23
28.06
21.28
13.72
6.46
0.56
-3.22
-4.65
-4.00
-1.90
0.95
3.99
6.88
9.43
11.56
13.14
14.04
14.18
13.50
12.08
10.00
7.33
4.09
0.39
-3.62
-7.62
-11.25
-14.20
-16.44
-18.25
-20.24
-23.02
-26.99
-31.98
-37.23
-41.52
-43.51
-42.22
-37.35
-29.32
-19.16
-8.09
2.82
12.81
21.43
28.37
33.31
35.87
35.76
33.06
28.37
22.77
17.47
13.44
11.13
10.39
10.75
11.63
12.63
13.54
14.31
14.95
15.44
15.73
15.78
15.50
14.76
13.34
11.06
7.86
3.93
-0.33
-4.48
-8.16
-11.20
-13.77
-16.19
-18.91
-22.35
-26.75
-31.99
-37.47
-42.12
-44.65
-43.94
-39.42
-31.28
-20.47
-8.33
3.73
14.61
23.53
30.04
33.86
34.91
33.21
29.15
23.43
17.12
11.30
6.91
4.45
3.93
4.91
6.76
8.85
10.78
12.34
13.51
14.33
14.78
14.72
14.04
12.55
10.22
7.10
3.44
-0.45
-4.18
-7.47
-10.32
-12.92
-15.69
-19.12
-23.58
-29.15
-35.43
-41.59
-46.43
-48.63
-47.09
-41.40
-31.93
-19.89
-6.91
5.32
15.62
23.37
28.49
31.10
31.32
29.25
25.05
19.18
12.48
6.09
1.06
-1.84
-2.47
-1.26
0.96
3.39
5.49
7.10
8.40
9.59
10.67
11.36
11.21
9.84
7.19
3.58
-0.40
-4.16
-7.34
-9.95
-12.36
-15.14
-18.88
-23.97
-30.41
-37.68
-44.75
-50.21
-52.65
-51.05
-45.09
-35.37
-23.11
-9.81
3.13
14.70
24.18
31.09
35.07
35.89
33.67
29.03
23.06
17.05
12.14
8.92
7.40
7.12
7.50
8.12
8.89
9.94
11.36
13.10
14.78
15.90
15.96
14.72
12.26
8.91
5.10
1.19
-2.57
-6.04
-9.19
-12.09
-14.94
-18.16
-22.27
-27.64
-34.15
-40.98
-46.59
-49.16
-47.22
-40.22
-28.82
-14.71
-0.02
13.31
24.08
31.85
36.77
39.18
39.33
37.34
33.38
27.92
21.80
16.09
11.77
9.44
9.13
10.41
12.58
14.96
17.15
18.91
20.23
21.05
21.19
20.40
18.42
15.20
10.96
6.15
1.33
-3.05
-6.80
-9.98
-12.88
-15.87
-19.22
-23.22
-28.00
-33.51
-39.35
-44.63
-48.03
-48.11
-43.86
-35.24
-23.24
-9.59
3.79
15.47
24.71
31.39
35.56
37.17
36.01
32.07
25.85
18.54
11.70
6.79
4.62
5.04
7.18
9.93
12.40
14.28
15.70
17.03
18.52
20.03
21.19
21.49
20.57
18.26
14.65
9.95
4.43
-1.64
-7.92
-13.99
-19.48
-24.11
-27.84
-30.93
-33.88
-37.38
-41.89
-47.41
-53.24
-57.96
-59.90
-57.66
-50.62
-39.35
-25.43
-10.82
2.61
13.74
22.13
27.81
30.99
31.77
30.16
26.35
20.92
14.86
9.36
5.50
3.96
4.73
7.28
10.73
14.17
16.91
18.65
19.43
19.49
19.07
18.26
17.02
15.18
12.62
9.34
5.49
1.35
-2.71
-6.38
-9.43
-11.79
-13.64
-15.32
-17.32
-20.13
-24.14
-29.42
-35.56
-41.63
-46.27
-47.97
-45.51
-38.39
-27.14
-13.24
1.28
14.42
24.76
31.75
35.57
36.79
35.93
33.28
28.97
23.22
16.55
9.89
4.26
0.54
-0.93
-0.39
1.44
3.69
5.64
6.93
7.49
7.48
7.07
6.28
5.00
3.06
0.42
-2.75
-6.05
-8.99
-11.21
-12.64
-13.58
-14.51
-15.94
-18.16
-21.23
-25.01
-29.38
-34.15
-38.95
-43.08
-45.42
-44.80
-40.36
-32.04
-20.61
-7.56
5.46
17.05
26.30
32.83
36.59
37.74
36.53
33.40
28.95
23.93
19.19
15.47
13.24
12.67
13.53
15.29
17.39
19.27
20.63
21.34
21.47
21.15
20.45
19.34
17.67
15.23
11.92
7.79
3.24
-1.19
-4.89
-7.56
-9.35
-10.89
-13.03
-16.50
-21.56
-27.93
-34.75
-40.84
-44.94
-45.95
-43.21
-36.62
-26.78
-14.81
-2.18
9.69
19.66
27.01
31.43
32.93
31.72
28.17
22.87
16.55
10.04
4.15
-0.52
-3.68
-5.35
-5.83
-5.57
-5.02
-4.45
-3.96
-3.46
-2.81
-2.00
-1.21
-0.79
-1.14
-2.49
-4.84
-7.82
-10.90
-13.49
-15.25
-16.12
-16.41
-16.66
-17.51
-19.38
-22.30
-25.72
-28.54
-29.41
-27.10
-21.04
-11.50
0.39
13.05
24.89
34.67
41.72
45.78
46.87
45.13
40.82
34.45
26.76
18.79
11.58
5.96
2.41
1.00
1.51
3.56
6.75
10.71
15.06
19.30
22.84
25.07
25.54
24.14
21.14
17.12
12.73
8.51
4.68
1.18
-2.20
-5.76
-9.71
-14.17
-19.08
-24.14
-28.66
-31.63
-31.88
-28.50
-21.15
-10.31
2.84
16.69
29.62
40.40
48.34
53.23
55.18
54.37
51.08
45.71
38.91
31.64
25.00
19.98
17.18
16.57
17.60
19.53
21.69
23.78
25.83
27.91
29.93
31.46
31.91
30.85
28.27
24.68
20.87
17.56
15.05
13.04
10.84
7.73
3.26
-2.36
-8.31
-13.32
-16.05
-15.58
-11.66
-4.83
3.78
12.80
21.08
27.80
32.62
35.34
35.81
33.90
29.69
23.60
16.52
9.52
3.64
-0.57
-2.99
-3.95
-3.90
-3.29
-2.43
-1.55
-0.83
-0.44
-0.55
-1.32
-2.91
-5.39
-8.76
-12.77
-16.99
-20.83
-23.78
-25.65
-26.69
-27.50
-28.73
-30.77
-33.41
-35.79
-36.73
-35.06
-30.06
-21.77
-10.93
1.27
13.48
24.56
33.69
40.41
44.50
45.96
44.90
41.63
36.66
30.72
24.64
19.18
14.91
12.03
10.45
9.88
9.92
10.27
10.75
11.17
11.35
10.98
9.77
7.57
4.45
0.81
-2.89
-6.28
-9.25
-11.93
-14.57
-17.42
-20.62
-24.23
-28.23
-32.50
-36.66
-39.97
-41.45
-40.15
-35.51
-27.71
-17.74
-7.09
2.59
9.98
14.35
15.63
14.26
10.91
6.26
0.86
-4.94
-10.84
-16.54
-21.59
-25.50
-27.80
-28.29
-27.13
-24.92
-22.45
-20.51
-19.60
-19.83
-20.89
-22.29
-23.64
-24.74
-25.69
-26.76
-28.21
-30.19
-32.72
-35.73
-39.08
-42.49
-45.43
-47.07
-46.44
-42.68
-35.46
-25.28
-13.40
-1.55
8.62
15.96
20.15
21.46
20.56
18.13
14.64
10.46
5.89
1.44
-2.28
-4.62
-5.25
-4.21
-1.99
0.68
3.12
4.89
5.86
6.16
5.98
5.56
5.05
4.53
4.01
3.47
2.75
1.61
-0.33
-3.49
-8.04
-13.63
-19.22
-23.20
-23.84
-19.96
-11.48
0.49
14.01
26.99
37.89
46.00
51.40
54.48
55.56
54.75
52.02
47.52
41.74
35.50
29.71
25.14
22.03
20.22
19.24
18.63
18.08
17.49
16.81
15.89
14.41
12.05
8.64
4.35
-0.31
-4.79
-8.75
-12.32
-16.08
-20.80
-26.99
-34.60
-42.72
-49.87
-54.33
-54.72
-50.52
-42.16
-30.95
-18.60
-6.76
3.41
11.33
16.87
20.15
21.34
20.66
18.40
15.05
11.24
7.63
4.75
2.87
2.02
2.03
2.65
3.60
4.59
5.45
6.00
6.19
6.02
5.56
4.80
3.80
2.52
0.97
-0.78
-2.70
-4.85
-7.42
-10.74
-15.09
-20.39
-26.01
-30.78
-33.21
-32.02
-26.62
-17.39
-5.57
7.10
18.96
28.81
36.09
40.74
42.97
43.01
41.06
37.33
32.19
26.21
20.16
14.75
10.48
7.45
5.47
4.14
3.12
2.24
1.46
0.74
-0.12
-1.47
-3.71
-7.02
-11.25
-15.86
-20.26
-23.98
-26.97
-29.52
-32.17
-35.45
-39.66
-44.75
-50.27
-55.40
-59.13
-60.43
-58.52
-53.10
-44.38
-33.05
-20.08
-6.56
6.43
17.89
26.99
33.12
36.04
35.96
33.56
29.77
25.62
21.97
19.45
18.39
18.94
21.07
24.61
29.15
34.16
38.96
42.88
45.36
46.04
44.83
41.87
37.57
32.52
27.38
22.69
18.76
15.56
12.79
10.06
7.06
3.62
-0.18
-4.00
-7.28
-9.30
-9.24
-6.48
-0.85
7.25
16.89
26.85
35.88
43.06
47.83
49.94
49.34
46.13
40.60
33.30
25.06
16.87
9.69
4.20
0.69
-0.99
-1.26
-0.62
0.48
1.74
2.98
3.98
4.47
4.16
2.81
0.44
-2.69
-6.10
-9.33
-12.13
-14.62
-17.12
-20.05
-23.69
-28.11
-33.19
-38.72
-44.39
-49.73
-53.96
-56.07
-55.05
-50.17
-41.39
-29.44
-15.73
-1.98
10.15
19.42
25.14
27.22
26.04
22.35
17.05
11.08
5.27
0.21
-3.73
-6.46
-7.97
-8.41
-7.95
-6.83
-5.34
-3.79
-2.51
-1.75
-1.68
-2.27
-3.43
-5.02
-6.91
-9.04
-11.38
-13.87
-16.39
-18.84
-21.16
-23.47
-26.08
-29.38
-33.56
-38.35
-42.80
-45.49
-44.96
-40.26
-31.52
-19.87
-7.08
5.07
15.33
23.14
28.49
31.55
32.44
31.21
27.96
23.04
17.07
10.86
5.16
0.63
-2.38
-3.83
-3.95
-3.23
-2.20
-1.35
-0.98
-1.16
-1.85
-2.98
-4.59
-6.74
-9.41
-12.50
-15.68
-18.65
-21.15
-23.16
-24.86
-26.66
-28.99
-32.32
-36.80
-42.10
-47.26
-50.81
-51.14
-47.11
-38.57
-26.53
-12.84
0.50
11.93
20.75
27.08
31.27
33.59
33.91
31.91
27.51
21.23
14.21
7.90
3.50
1.46
1.32
2.04
2.61
2.51
1.91
1.41
1.48
2.14
2.77
2.52
0.78
-2.41
-6.47
-10.50
-13.80
-16.18
-18.00
-19.89
-22.48
-26.09
-30.62
-35.56
-40.05
-43.02
-43.40
-40.41
-33.83
-24.18
-12.63
-0.64
10.44
19.75
26.94
31.95
34.77
35.31
33.48
29.46
23.83
17.57
11.83
7.52
5.10
4.50
5.29
6.90
8.89
11.01
13.21
15.43
17.47
19.04
19.71
19.24
17.59
15.10
12.26
9.60
7.45
5.79
4.35
2.74
0.69
-1.76
-4.15
-5.74
-5.67
-3.32
1.52
8.56
17.07
26.13
34.86
42.60
48.92
53.53
56.22
56.86
55.43
52.08
47.13
41.04
34.26
27.24
20.44
14.29
9.25
5.70
3.85
3.68
4.87
6.91
9.16
11.06
12.11
12.07
10.87
8.62
5.54
1.84
-2.29
-6.86
-11.94
-17.62
-23.95
-30.81
-37.79
-44.19
-49.03
-51.25
-49.98
-44.80
-36.02
-24.61
-12.06
0.01
10.10
17.21
20.93
21.41
19.28
15.39
10.66
5.87
1.62
-1.65
-3.67
-4.30
-3.57
-1.72
0.84
3.60
6.12
8.13
9.46
10.07
9.87
8.75
6.60
3.43
-0.62
-5.32
-10.42
-15.77
-21.36
-27.35
-33.93
-41.25
-49.19
-57.20
-64.31
-69.29
-71.12
-69.39
-64.53
-57.72
-50.47
-44.17
-39.75
-37.67
-38.10
-41.03
-46.19
-52.97
-60.26
-66.72
-71.16
-73.08
-72.85
-71.50
-70.06
-68.99
-67.97
-66.21
-63.07
-58.70
-54.29
-51.63
-52.37
-57.24
-65.65
-75.80
-85.24
-91.45
-92.56
-87.50
-76.23
-59.79
-40.24
-20.39
-3.28
8.66
14.29
14.13
10.15
5.08
1.69
2.22
8.14
20.12
37.70
59.21
81.64
101.02
113.43
116.18
108.92
94.04
75.89
59.48
48.72
45.21
47.77
53.11
57.05
56.04
48.15
33.49
13.81
-8.29
-30.22
-49.85
-65.67
-76.71
-82.45
-82.90
-78.70
-71.09
-61.57
-51.56
-42.00
-33.30
-25.37
-17.78
-9.67
0.29
13.74
32.10
55.72
83.39
112.31
139.07
160.75
175.84
184.21
186.51
183.32
174.99
162.02
145.71
128.45
113.14
102.12
96.23
94.52
94.88
94.99
93.14
88.56
81.23
71.61
60.40
48.45
36.67
25.84
16.37
8.22
1.05
-5.37
-10.96
-15.19
-17.45
-17.52
-15.89
-13.87
-13.30
-16.01
-23.27
-35.20
-50.60
-67.21
-82.18
-92.81
-97.27
-95.00
-86.82
-74.54
-60.37
-46.15
-32.81
-20.24
-7.60
5.82
19.77
32.81
42.66
47.39
46.74
42.60
38.48
38.31
44.73
58.18
76.64
96.19
111.77
118.16
110.90
87.53
48.66
-1.42
-55.32
-104.38
-141.29
-162.17
-167.55
-161.39
-149.21
-136.06
-125.18
-117.84
-113.70
-111.44
-109.26
-105.23
-97.76
-85.90
-69.73
-50.28
-29.20
-8.38
10.28
25.12
34.92
39.29
38.82
34.78
28.45
20.47
10.96
0.53
-8.39
-10.96
-1.09
25.76
69.71
125.27
182.94
233.01
269.58
292.51
306.26
316.56
326.94
337.13
343.96
343.88
335.41
320.19
302.09
285.05
271.17
259.59
247.17
230.10
205.70
173.73
136.43
97.44
60.21
26.63
-3.46
-31.75
-60.46
-91.30
-125.29
-162.97
-204.50
-249.32
-295.09
-337.09
-368.49
-382.34
-373.91
-342.53
-291.63
-227.02
-154.43
-77.97
-0.01
77.39
150.97
215.88
266.88
300.36
316.00
316.94
308.33
295.14
280.52
265.26
248.58
229.56
208.10
185.25
162.49
140.91
120.61
100.80
80.48
59.20
37.36
15.99
-3.79
-21.43
-37.25
-52.19
-67.28
-83.06
-99.31
-115.23
-130.05
-143.59
-156.57
-170.44
-186.73
-206.37
-229.33
-254.80
-281.60
-308.95
-336.85
-366.19
-398.51
-435.88
-480.39
-533.43
-594.49
-659.95
-722.91
-774.31
-805.66
-811.98
-793.75
-756.59
-708.94
-658.82
-611.49
-568.85
-530.59
-495.91
-464.67
-437.35
-414.27
-394.78
-377.20
-359.59
-340.62
-320.07
-298.80
-278.12
-258.95
-241.26
-224.07
-205.84
-185.13
-161.19
-134.20
-105.12
-75.25
-45.69
-17.00
10.82
38.14
65.30
92.34
118.91
144.33
167.86
188.91
207.18
222.62
235.36
245.52
253.24
258.65
262.03
263.72
264.13
263.62
262.36
260.32
257.35
253.43
248.80
244.04
239.84
236.67
234.52
232.70
230.10
225.68
218.90
210.14
200.75
192.62
187.45
186.12
188.36
193.09
199.27
206.44
215.16
226.92
243.57
266.58
296.74
334.25
378.64
428.67
481.36
531.96
574.98
606.35
625.31
635.11
641.41
649.22
660.39
671.59
676.38
668.96
647.50
614.92
577.05
539.50
505.35
475.55
448.08
420.42
391.59
362.52
334.87
309.38
285.17
260.15
233.68
203.97
169.55
130.60
89.10
47.67
8.28
-28.57
-63.61
-96.06
-128.25
-163.87
-205.97
-255.92
-313.89
-379.63
-452.86
-538.76
-626.57
-699.93
-747.26
-768.41
-771.04
-763.39
-749.36
-727.32
-700.27
-658.51
-596.89
-517.12
-425.94
-332.29
-245.49
-174.16
-125.42
-106.20
-117.73
-156.86
-214.13
-274.61
-322.08
-344.90
-340.26
-314.35
-278.19
-240.51
-207.30
-180.38
-158.74
-140.44
-124.19
-109.47
-96.25
-84.99
-75.73
-69.79
-69.86
-78.37
-95.60
-119.02
-143.90
-165.62
-181.55
-191.15
-193.61
-189.26
-179.38
-165.93
-151.01
-136.26
-122.65
-110.26
-97.92
-78.73
-47.14
-2.16
52.36
110.21
166.20
217.65
264.28
307.58
357.75
422.62
503.07
592.72
682.28
764.25
834.58
892.14
937.48
982.16
1035.01
1096.47
1158.63
1210.93
1246.04
1261.65
1259.24
1175.56
981.77
693.92
366.10
56.20
-201.61
-398.92
-542.01
-641.90
-705.21
-733.86
-728.33
-694.13
-642.94
-587.71
-537.14
-494.24
-457.62
-426.11
-389.30
-337.69
-267.99
-184.30
-95.46
-11.98
55.48
97.55
108.34
92.74
60.98
23.53
-12.70
-45.03
-74.07
-102.31
-132.68
-167.37
-205.17
-244.63
-286.24
-331.83
-381.67
-432.18
-476.01
-504.86
-512.82
-498.02
-463.52
-416.27
-363.97
-312.14
-262.95
-216.10
-170.67
-126.43
-83.87
-42.81
-2.51
38.51
82.25
130.63
184.59
243.01
301.90
354.73
394.66
415.64
414.77
393.80
358.90
318.59
280.79
250.46
228.87
215.32
207.12
200.74
192.82
180.92
163.90
141.94
116.48
83.05
42.75
0.93
-35.44
-61.48
-75.87
-80.08
-76.93
-69.60
-61.13
-53.22
-46.79
-42.24
-39.49
-37.96
-36.79
-35.44
-34.05
-33.88
-36.34
-42.66
-53.65
-69.33
-88.67
-109.90
-131.46
-152.64
-169.52
-181.91
-190.87
-197.79
-203.98
-210.48
-217.82
-225.44
-230.90
-229.97
-218.13
-192.42
-153.89
-108.06
-63.17
-26.98
-3.81
6.63
8.05
5.01
1.20
-1.59
-2.94
-2.70
-0.32
4.77
13.13
24.48
37.71
51.74
65.64
79.07
92.34
106.29
122.21
141.17
160.74
177.82
187.14
182.53
160.04
120.60
70.24
17.58
-29.92
-68.47
-98.97
-122.95
-140.35
-148.61
-144.77
-128.45
-103.83
-78.71
-61.39
-56.67
-64.23
-79.63
-96.84
-111.29
-121.66
-129.11
-135.70
-142.73
-150.00
-156.41
-161.15
-163.89
-165.41
-167.31
-171.02
-177.07
-184.77
-192.18
-196.61
-197.98
-196.05
-191.38
-185.21
-178.80
-172.81
-166.82
-159.41
-148.66
-133.00
-111.66
-85.45
-56.53
-27.60
-0.86
22.86
44.26
65.13
87.26
111.55
137.01
161.05
180.46
192.84
197.70
196.83
193.56
191.87
195.49
206.83
226.28
251.42
276.43
292.29
288.70
257.72
197.65
115.22
24.24
-59.11
-122.12
-159.87
-175.79
-178.47
-176.81
-176.32
-178.12
-180.76
-182.75
-184.21
-186.45
-190.47
-195.54
-198.93
-197.16
-187.77
-170.65
-148.11
-124.01
-102.02
-84.20
-70.32
-58.22
-45.01
-28.37
-7.60
16.18
40.65
63.38
82.82
98.90
112.89
126.76
142.40
161.16
183.54
209.24
237.01
264.59
288.89
306.63
315.40
314.59
305.74
291.89
276.29
261.17
247.26
234.11
221.20
208.96
199.03
193.70
194.81
202.55
215.10
228.97
240.13
245.28
242.86
233.41
219.06
202.34
185.16
167.99
149.83
128.98
103.89
73.87
39.55
2.92
-32.60
-62.69
-82.99
-90.35
-84.21
-67.08
-44.02
-21.00
-2.85
8.41
13.83
16.53
19.49
23.34
25.38
20.54
4.29
-24.17
-60.04
-93.81
-114.81
-115.99
-97.24
-65.51
-31.71
-5.56
8.10
10.53
6.91
2.78
1.23
2.21
3.77
4.09
2.77
1.02
0.54
2.33
6.07
10.27
13.05
13.25
10.84
6.98
3.51
2.07
3.49
7.36
12.12
15.66
16.00
12.19
4.78
-4.31
-12.51
-17.56
-18.56
-16.19
-12.48
-9.75
-9.62
-12.44
-17.39
-22.98
-27.89
-31.28
-32.95
-32.98
-31.50
-28.57
-24.30
-19.04
-13.42
-8.09
-3.66
-0.54
1.00
0.72
-1.51
-5.59
-10.99
-16.82
-22.11
-26.31
-29.58
-32.74
-36.67
-41.49
-46.11
-48.51
-46.70
-39.88
-29.16
-17.23
-7.16
-1.04
0.87
-0.02
-1.62
-2.34
-1.73
-0.42
0.51
0.23
-1.46
-4.25
-7.56
-10.82
-13.59
-15.59
-16.79
-17.25
-17.14
-16.60
-15.68
-14.44
-13.06
-11.93
-11.67
-12.87
-15.80
-20.19
-25.32
-30.25
-34.08
-36.17
-36.15
-33.93
-29.69
-23.84
-17.02
-9.95
-3.27
2.60
7.40
11.02
13.47
14.94
15.82
16.75
18.37
21.10
24.82
28.89
32.35
34.38
34.61
33.28
31.10
28.87
27.25
26.74
27.64
30.13
34.25
39.68
45.75
51.50
56.00
58.74
59.86
60.09
60.35
61.36
63.36
66.17
69.46
73.01
76.78
80.73
84.60
87.93
90.25
91.39
91.44
90.60
88.77
85.35
79.32
69.78
56.53
40.39
23.05
6.39
-8.29
-20.83
-32.10
-43.51
-56.04
-69.65
-82.97
-93.74
-99.79
-100.13
-95.78
-89.42
-84.36
-82.95
-85.50
-90.14
-93.95
-94.25
-89.91
-81.50
-70.71
-59.66
-50.63
-46.07
-48.51
-59.23
-76.72
-95.39
-106.55
-101.57
-75.83
-31.31
23.79
78.35
122.54
150.89
162.76
160.64
147.88
127.37
101.54
73.17
45.29
20.83
1.48
-12.99
-24.29
-34.66
-45.85
-58.24
-70.99
-82.23
-89.89
-92.38
-89.16
-80.96
-69.62
-57.45
-46.67
-38.68
-33.78
-31.36
-30.22
-29.08
-27.01
-23.56
-18.95
-13.68
-8.29
-3.03
2.26
7.90
14.02
20.35
25.87
29.31
29.52
26.06
19.38
10.75
1.74
-6.21
-12.47
-17.32
-21.80
-27.22
-34.50
-43.72
-54.05
-64.01
-71.93
-76.58
-77.58
-75.52
-71.80
-68.15
-66.08
-66.28
-68.53
-71.78
-74.48
-74.96
-71.78
-63.92
-51.01
-33.57
-13.27
7.26
25.30
39.43
50.54
61.57
75.95
95.38
118.31
140.24
155.66
160.64
154.25
138.41
115.93
88.64
56.60
18.71
-26.05
-77.60
-134.56
-194.34
-253.06
-305.21
-344.01
-362.72
-356.90
-326.57
-276.85
-216.33
-153.80
-95.29
-42.94
3.81
45.83
82.56
111.84
131.31
140.08
139.48
132.28
121.39
108.79
95.49
81.92
68.90
57.77
50.03
46.63
47.48
51.57
57.34
63.24
68.03
70.97
72.05
71.76
70.97
70.52
70.79
71.49
71.79
70.77
67.94
63.46
57.97
52.14
46.26
39.97
32.41
22.66
10.21
-4.82
-21.57
-38.88
-55.60
-70.92
-84.59
-96.72
-107.40
-116.50
-123.70
-128.76
-131.94
-134.03
-135.88
-137.75
-138.67
-136.60
-129.43
-116.08
-97.25
-75.10
-52.19
-30.22
-9.66
9.57
26.88
40.21
46.61
43.79
32.00
14.84
-1.59
-11.01
-9.50
2.95
22.62
43.87
61.38
71.95
75.16
72.62
66.68
59.16
50.84
41.84
32.52
24.18
19.08
19.63
27.09
40.74
57.81
74.40
86.91
93.18
92.79
86.47
75.01
58.75
37.70
12.25
-16.15
-45.00
-71.38
-93.08
-109.33
-120.88
-129.21
-135.50
-139.88
-141.30
-137.82
-127.54
-109.27
-82.95
-49.93
-12.90
24.50
58.16
84.64
101.96
110.18
111.31
108.26
103.63
98.73
93.45
86.70
77.13
63.64
45.77
23.86
-0.63
-24.91
-44.98
-56.24
-54.99
-39.90
-13.01
20.57
54.17
81.76
99.68
107.47
106.93
100.72
91.01
78.71
63.70
45.59
24.62
2.19
-19.14
-36.06
-45.36
-44.77
-33.85
-14.39
9.91
34.90
57.25
75.31
88.81
97.47
99.59
91.57
69.44
31.90
-16.91
-66.74
-103.68
-114.73
-93.05
-40.96
30.40
104.82
166.20
203.24
211.78
194.24
157.15
108.03
53.63
-0.74
-50.67
-92.11
-121.61
-137.13
-138.98
-129.93
-114.53
-97.22
-80.86
-66.24
-52.86
-40.39
-29.86
-23.89
-25.50
-36.80
-58.18
-88.44
-125.61
-167.33
-210.51
-250.69
-281.72
-296.78
-290.86
-262.88
-216.65
-159.63
-99.86
-43.17
8.69
57.25
104.92
152.33
197.02
234.17
258.85
268.30
263.16
247.05
224.86
200.97
178.03
157.15
138.78
123.56
112.61
106.97
106.77
110.70
116.39
121.44
124.58
125.90
126.64
128.69
133.56
141.82
152.53
163.05
169.42
167.22
153.16
126.77
90.92
50.94
12.42
-21.26
-50.09
-76.91
-105.38
-137.82
-174.27
-213.20
-253.30
-295.03
-340.73
-393.01
-452.17
-514.24
-570.92
-611.94
-628.89
-618.50
-583.79
-532.60
-474.17
-415.52
-359.68
-306.19
-253.38
-200.62
-149.26
-101.83
-60.22
-24.28
8.41
41.45
78.18
120.35
167.51
216.95
264.35
304.73
333.66
348.43
348.73
336.67
315.92
290.43
263.33
236.45
210.51
185.83
162.94
142.66
125.89
113.02
103.51
95.84
87.96
77.91
64.66
48.61
31.52
15.95
4.27
-2.23
-3.66
-1.30
3.15
8.24
13.07
17.18
20.18
21.56
20.65
17.06
10.97
3.25
-4.70
-11.48
-16.07
-18.10
-17.93
-16.42
-14.68
-13.67
-13.88
-15.07
-16.27
-16.20
-13.80
-8.85
-2.14
4.80
10.37
13.58
14.40
13.51
11.85
10.00
7.99
5.58
2.49
-1.16
-4.99
-8.57
-11.74
-14.70
-17.80
-21.33
-25.20
-29.05
-32.28
-34.52
-35.78
-36.52
-37.37
-38.81
-40.87
-43.06
-44.61
-44.92
-43.73
-41.25
-37.89
-33.95
-29.51
-24.48
-18.79
-12.77
-6.97
-2.03
1.65
4.12
5.72
6.77
7.33
7.12
5.77
3.16
-0.31
-3.84
-6.58
-8.11
-8.58
-8.82
-9.63
-11.38
-13.58
-15.05
-14.42
-10.83
-4.32
4.15
13.15
21.55
28.73
34.71
39.69
43.65
46.26
46.93
45.31
41.61
36.67
31.63
27.52
24.81
23.45
22.96
22.76
22.47
21.98
21.45
21.16
21.35
22.10
23.19
24.13
24.28
23.12
20.46
16.55
12.01
7.55
3.66
0.42
-2.45
-5.37
-8.65
-12.31
-16.19
-19.97
-23.40
-26.24
-28.26
-29.13
-28.48
-26.03
-21.71
-15.71
-8.52
-0.81
6.67
13.23
18.29
21.56
23.00
22.89
21.72
20.02
18.21
16.58
15.20
14.09
13.30
12.93
13.09
13.80
14.88
16.03
16.90
17.19
16.70
15.38
13.28
10.58
7.57
4.58
1.90
-0.32
-2.14
-3.76
-5.48
-7.58
-10.18
-13.19
-16.32
-19.03
-20.70
-20.73
-18.77
-14.77
-9.10
-2.44
4.41
10.70
15.88
19.76
22.35
23.83
24.35
24.02
22.92
21.15
18.94
16.68
14.75
13.44
12.77
12.58
12.62
12.69
12.72
12.74
12.71
12.44
11.67
10.20
8.01
5.32
2.52
-0.04
-2.19
-4.01
-5.75
-7.80
-10.41
-13.68
-17.36
-20.87
-23.44
-24.32
-23.06
-19.76
-14.95
-9.47
-4.12
0.60
4.55
7.87
10.68
12.88
14.26
14.62
13.94
12.56
10.96
9.59
8.67
8.17
7.90
7.69
7.54
7.57
7.88
8.42
8.92
8.97
8.28
6.79
4.76
2.68
1.00
-0.05
-0.59
-1.08
-2.07
-3.94
-6.61
-9.56
-11.97
-13.04
-12.30
-9.70
-5.60
-0.58
4.76
9.92
14.57
18.50
21.62
23.89
25.31
25.87
25.60
24.49
22.63
20.22
17.50
14.77
12.26
10.10
8.47
7.49
7.27
7.80
8.79
9.68
9.89
9.02
7.05
4.39
1.54
-1.12
-3.48
-5.73
-8.18
-11.03
-14.26
-17.70
-20.95
-23.57
-25.04
-24.84
-22.67
-18.55
-12.87
-6.36
0.06
5.57
9.61
12.00
12.96
12.89
12.24
11.35
10.37
9.30
8.11
6.78
5.41
4.16
3.24
2.83
3.02
3.73
4.74
5.69
6.25
6.19
5.61
4.85
4.39
4.58
5.37
6.35
6.96
6.78
5.81
4.50
3.58
3.84
5.95
10.28
16.96
25.83
36.49
48.23
60.14
71.27
81.00
89.36
97.18
105.83
116.61
129.99
145.27
160.63
173.79
182.90
187.20
187.00
183.36
177.18
168.76
157.74
143.52
125.80
104.91
81.70
57.10
31.80
6.28
-19.01
-43.39
-65.82
-85.29
-101.24
-113.87
-124.22
-133.47
-142.31
-150.41
-156.35
-158.29
-154.89
-145.98
-132.92
-118.02
-103.80
-92.21
-84.27
-80.03
-78.93
-80.05
-82.39
-84.91
-86.70
-87.22
-86.45
-84.94
-83.51
-82.76
-82.80
-83.09
-82.75
-80.96
-77.30
-71.87
-65.09
-57.52
-49.76
-42.47
-36.35
-32.17
-30.61
-31.97
-36.04
-42.04
-48.87
-55.33
-60.47
-63.59
-64.24
-62.00
-56.40
-47.14
-34.37
-19.00
-2.84
11.77
22.61
28.37
29.20
26.53
22.52
19.11
17.37
17.32
18.28
19.38
19.95
19.62
18.19
15.46
11.33
6.04
0.32
-4.68
-7.67
-7.76
-4.80
0.59
7.17
13.51
18.44
21.27
21.98
21.22
19.98
19.37
20.21
22.80
26.90
31.94
37.25
42.26
46.60
49.95
52.04
52.67
51.74
49.39
45.99
42.07
38.18
34.78
32.03
29.94
28.37
27.06
25.82
24.52
23.05
21.33
19.17
16.37
12.77
8.42
3.55
-1.39
-5.97
-9.89
-13.09
-15.69
-17.89
-19.87
-21.69
-23.36
-24.73
-25.59
-25.64
-24.52
-22.07
-18.37
-13.80
-8.96
-4.46
-0.85
1.49
2.32
1.64
-0.43
-3.50
-6.96
-10.14
-12.47
-13.65
-13.72
-12.94
-11.59
-9.87
-7.77
-5.35
-2.71
-0.16
1.87
3.01
3.17
2.56
1.54
0.34
-1.04
-2.78
-5.06
-7.72
-10.25
-12.03
-12.61
-12.17
-11.20
-10.21
-9.21
-7.59
-4.37
1.12
8.67
17.12
24.80
30.29
33.01
33.41
32.50
31.29
30.35
29.51
28.21
25.96
22.70
18.79
14.91
11.65
9.21
7.32
5.52
3.45
1.11
-1.05
-2.51
-2.97
-2.58
-2.16
-2.57
-4.31
-7.20
-10.36
-12.75
-13.71
-13.29
-12.30
-11.79
-12.54
-14.67
-17.59
-20.32
-21.87
-21.55
-19.28
-15.44
-10.72
-5.86
-1.50
2.03
4.66
6.47
7.50
7.70
6.98
5.33
2.95
0.20
-2.44
-4.54
-5.90
-6.53
-6.58
-6.30
-5.95
-5.78
-5.92
-6.43
-7.27
-8.41
-9.79
-11.40
-13.21
-15.10
-16.88
-18.39
-19.55
-20.45
-21.31
-22.36
-23.79
-25.64
-27.79
-30.06
-32.17
-33.91
-35.07
-35.60
-35.55
-35.12
-34.50
-33.80
-33.12
-32.51
-32.13
-32.21
-33.01
-34.72
-37.35
-40.65
-44.27
-47.79
-50.89
-53.38
-55.24
-56.49
-57.16
-57.19
-56.45
-54.67
-51.55
-46.80
-40.21
-31.80
-21.74
-10.41
1.65
13.76
25.07
34.68
41.82
45.79
46.32
43.60
38.35
31.70
24.85
18.79
13.92
9.99
6.29
2.07
-3.10
-8.93
-14.32
-17.44
-16.00
-7.75
8.87
34.11
66.33
102.05
136.52
164.91
183.56
190.83
187.22
174.90
156.67
135.35
113.27
92.16
73.38
57.84
46.01
37.85
32.75
29.61
27.14
24.12
19.67
13.47
5.76
-2.73
-11.09
-18.62
-25.12
-30.98
-36.96
-43.69
-51.27
-59.05
-65.97
-71.06
-74.03
-75.42
-76.35
-77.86
-80.37
-83.27
-85.42
-85.67
-83.56
-79.58
-74.94
-70.97
-68.57
-67.88
-68.30
-68.87
-68.54
-66.34
-61.49
-53.39
-41.78
-26.83
-9.33
9.43
27.87
44.55
58.47
69.27
77.10
82.39
85.59
86.98
86.75
85.14
82.68
80.19
78.62
78.84
81.17
85.28
90.20
94.77
97.99
99.37
99.01
97.49
95.52
93.76
92.64
92.36
92.84
93.75
94.49
94.33
92.47
88.29
81.42
71.83
59.66
45.11
28.33
9.45
-11.25
-33.26
-55.75
-77.75
-98.38
-117.14
-134.01
-149.29
-163.40
-176.58
-188.77
-199.58
-208.47
-214.79
-217.91
-217.34
-213.00
-205.37
-195.59
-185.19
-175.50
-167.10
-159.59
-151.65
-141.78
-128.92
-112.91
-94.38
-74.29
-53.46
-32.36
-11.41
8.72
26.83
41.47
51.50
56.59
57.38
55.18
51.32
46.70
41.70
36.41
31.03
26.02
21.77
18.26
14.83
10.33
3.84
-4.68
-14.12
-22.61
-28.24
-29.87
-27.47
-21.92
-14.46
-6.16
2.31
10.55
18.23
24.86
29.75
32.37
32.58
30.82
28.07
25.47
23.94
23.92
25.16
27.02
28.68
29.63
29.77
29.39
28.88
28.43
27.96
27.22
26.01
24.47
22.98
22.03
21.89
22.41
22.98
22.81
21.24
18.00
13.28
7.62
1.59
-4.44
-10.49
-16.73
-23.18
-29.36
-34.18
-36.23
-34.39
-28.30
-18.69
-7.04
4.90
15.84
25.09
32.65
38.69
43.41
46.89
49.41
51.57
54.28
58.39
64.25
71.49
79.07
85.76
90.67
93.56
94.83
95.29
95.81
97.11
99.61
103.31
107.66
111.56
113.32
111.06
103.20
88.91
68.44
43.08
14.80
-14.21
-41.92
-66.78
-87.73
-104.16
-115.89
-122.95
-125.51
-123.82
-118.19
-108.99
-96.70
-81.96
-65.47
-48.06
-30.44
-13.19
3.36
19.14
34.27
48.91
63.14
76.87
89.76
101.28
110.71
117.27
120.27
119.25
114.12
105.18
93.08
78.62
62.61
45.79
28.62
11.52
-5.17
-20.99
-35.35
-47.50
-56.69
-62.34
-64.30
-63.09
-59.78
-55.87
-52.80
-51.52
-52.34
-54.86
-58.39
-62.19
-65.84
-69.04
-71.47
-72.53
-71.32
-66.92
-58.82
-47.27
-33.32
-18.56
-4.60
7.34
16.70
23.57
28.35
31.49
33.27
33.77
33.01
31.16
28.55
25.69
23.13
21.26
20.23
19.96
20.18
20.64
21.11
21.47
21.67
21.75
21.77
21.71
21.35
20.39
18.49
15.49
11.65
7.52
3.81
0.93
-1.10
-2.73
-4.55
-6.96
-10.07
-13.70
-17.53
-21.27
-24.58
-26.94
-27.66
-25.99
-21.40
-13.97
-4.40
6.01
15.92
24.32
30.75
35.26
38.15
39.57
39.51
37.80
34.35
29.50
23.99
18.85
15.03
13.08
12.88
13.67
14.47
14.45
13.30
11.40
9.48
8.24
8.00
8.36
8.55
7.82
5.85
2.94
-0.17
-2.82
-4.75
-6.34
-8.27
-11.10
-14.98
-19.59
-24.39
-29.00
-33.24
-37.19
-40.81
-43.66
-44.95
-43.76
-39.53
-32.36
-23.04
-12.88
-3.17
5.08
11.32
15.45
17.55
17.80
16.47
13.87
10.44
6.67
2.98
-0.35
-3.22
-5.52
-7.13
-7.84
-7.57
-6.49
-5.11
-4.18
-4.33
-5.90
-8.75
-12.41
-16.28
-19.93
-23.12
-25.73
-27.71
-28.90
-29.23
-28.76
-27.77
-26.75
-26.22
-26.53
-27.67
-29.26
-30.58
-30.82
-29.25
-25.48
-19.62
-12.22
-4.20
3.49
10.09
15.17
18.62
20.53
20.98
20.08
18.01
15.06
11.69
8.36
5.45
3.11
1.25
-0.37
-1.89
-3.28
-4.31
-4.76
-4.61
-4.18
-4.01
-4.67
-6.53
-9.57
-13.39
-17.43
-21.19
-24.35
-26.89
-28.93
-30.69
-32.42
-34.32
-36.50
-38.87
-41.02
-42.31
-41.99
-39.48
-34.60
-27.64
-19.24
-10.25
-1.50
6.33
12.70
17.26
19.92
20.89
20.63
19.65
18.35
16.94
15.48
14.01
12.75
12.05
12.31
13.64
15.83
18.30
20.35
21.44
21.43
20.55
19.20
17.69
16.10
14.25
11.90
8.97
5.51
1.72
-2.20
-6.19
-10.17
-13.87
-16.66
-17.64
-15.94
-11.14
-3.48
6.14
16.45
26.20
34.43
40.55
44.31
45.74
45.11
42.92
39.79
36.33
32.98
29.92
27.14
24.59
22.26
20.24
18.70
17.79
17.57
18.00
18.92
19.96
20.54
19.98
17.78
13.90
8.96
4.06
0.31
-1.74
-2.57
-3.53
-6.24
-11.54
-18.87
-26.15
-30.60
-29.87
-23.16
-11.64
2.09
14.97
24.46
29.16
28.87
24.70
19.21
16.33
20.62
35.58
61.62
94.80
127.45
150.77
158.30
148.40
124.55
93.23
60.88
31.54
6.38
-15.15
-33.57
-48.46
-58.83
-64.07
-64.77
-62.67
-59.92
-58.12
-57.90
-59.14
-61.40
-64.35
-67.77
-71.24
-73.93
-74.70
-72.54
-67.07
-58.73
-48.62
-38.02
-28.00
-19.19
-11.98
-6.63
-3.44
-2.53
-3.59
-5.77
-7.87
-8.78
-7.87
-5.25
-1.60
2.18
5.42
7.88
9.80
11.55
13.37
15.20
16.66
17.24
16.57
14.61
11.70
8.43
5.27
2.47
-0.09
-2.75
-5.85
-9.51
-13.61
-17.75
-21.46
-24.11
-25.07
-23.73
-19.76
-13.26
-4.97
3.89
11.90
17.90
21.37
22.47
21.82
20.13
17.92
15.42
12.62
9.57
6.53
3.98
2.44
2.21
3.16
4.78
6.27
6.92
6.41
4.89
2.83
0.76
-0.99
-2.39
-3.63
-4.97
-6.54
-8.26
-9.92
-11.31
-12.42
-13.40
-14.58
-16.28
-18.61
-21.39
-24.09
-25.96
-26.20
-24.18
-19.64
-12.86
-4.55
4.20
12.25
18.62
22.78
24.65
24.52
22.90
20.31
17.20
13.96
10.92
8.38
6.55
5.50
5.18
5.39
5.92
6.55
7.14
7.52
7.58
7.15
6.13
4.47
2.17
-0.73
-4.10
-7.78
-11.56
-15.18
-18.46
-21.34
-23.96
-26.58
-29.44
-32.70
-36.19
-39.45
-41.84
-42.59
-41.16
-37.31
-31.28
-23.68
-15.36
-7.20
0.06
5.87
9.86
11.80
11.70
9.80
6.72
3.28
0.39
-1.33
-1.69
-0.92
0.42
1.79
2.85
3.61
4.31
5.25
6.52
7.96
9.20
9.74
9.29
7.86
5.76
3.45
1.41
-0.11
-1.17
-2.00
-2.90
-4.11
-5.77
-7.90
-10.41
-12.99
-15.08
-15.93
-14.74
-10.98
-4.69
3.48
12.42
20.89
27.91
32.90
35.60
36.00
34.14
30.18
24.44
17.52
10.30
3.71
-1.45
-4.70
-6.08
-6.05
-5.34
-4.73
-4.80
-5.70
-7.24
-8.99
-10.57
-11.85
-12.92
-14.03
-15.35
-16.90
-18.53
-20.11
-21.60
-23.17
-25.12
-27.71
-31.01
-34.78
-38.59
-41.87
-43.92
-44.02
-41.47
-35.72
-26.65
-14.67
-0.71
14.00
28.35
41.69
53.90
65.12
75.35
83.99
89.91
91.72
88.48
80.15
67.86
53.52
39.25
26.75
16.87
9.55
4.24
0.29
-2.65
-4.67
-5.75
-6.06
-6.06
-6.43
-7.68
-9.90
-12.60
-14.96
-16.15
-15.82
-14.32
-12.60
-11.83
-12.84
-15.73
-19.83
-23.99
-27.17
-28.91
-29.61
-30.18
-31.59
-34.39
-38.51
-43.33
-47.98
-51.55
-53.28
-52.52
-48.89
-42.33
-33.32
-22.80
-12.05
-2.25
5.77
11.67
15.61
17.98
19.19
19.55
19.23
18.42
17.31
16.20
15.41
15.23
15.79
16.99
18.54
20.16
21.63
22.86
23.85
24.57
24.86
24.44
23.11
20.83
17.80
14.42
11.04
7.94
5.20
2.75
0.54
-1.32
-2.63
-3.17
-2.87
-1.99
-1.15
-1.14
-2.60
-5.54
-9.21
-12.30
-13.40
-11.71
-7.36
-1.34
4.99
10.54
14.89
18.30
21.25
23.98
26.21
27.23
26.46
23.84
20.05
16.25
13.53
12.41
12.72
13.74
14.68
15.21
15.52
16.13
17.52
19.70
22.21
24.32
25.46
25.46
24.54
23.11
21.45
19.56
17.22
14.15
10.28
5.92
1.61
-2.03
-4.53
-5.77
-5.97
-5.56
-4.99
-4.54
-4.30
-4.26
-4.40
-4.88
-6.10
-8.61
-12.87
-18.90
-26.14
-33.38
-39.16
-42.17
-41.71
-37.96
-31.82
-24.48
-17.04
-10.23
-4.40
0.28
3.59
5.33
5.35
3.82
1.27
-1.50
-3.70
-4.83
-4.77
-3.78
-2.23
-0.43
1.55
3.87
6.70
10.11
13.91
17.66
20.87
23.19
24.54
25.20
25.71
26.68
28.62
31.81
36.26
41.90
48.65
56.46
65.28
75.00
85.39
96.12
106.79
116.97
126.18
133.73
138.59
139.46
134.96
124.16
106.94
84.33
58.23
31.06
5.07
-18.13
-37.82
-54.02
-67.23
-78.06
-86.99
-94.33
-100.23
-104.77
-108.07
-110.29
-111.65
-112.28
-112.21
-111.30
-109.34
-106.33
-102.42
-98.02
-93.55
-89.18
-84.73
-79.79
-73.98
-67.31
-60.26
-53.58
-47.95
-43.62
-40.30
-37.42
-34.45
-31.20
-27.84
-24.70
-22.00
-19.71
-17.51
-15.01
-11.98
-8.36
-4.20
0.43
5.59
11.34
17.63
24.18
30.49
36.03
40.53
44.12
47.35
51.05
56.01
62.64
70.86
80.09
89.50
98.17
105.29
110.07
111.81
110.02
104.53
95.71
84.39
71.53
57.85
43.48
28.09
11.32
-6.76
-25.18
-42.26
-56.07
-65.04
-68.54
-67.01
-61.85
-55.05
-48.53
-43.63
-40.77
-39.44
-38.68
-37.64
-36.07
-34.46
-33.67
-34.49
-37.11
-41.12
-45.81
-50.53
-55.01
-59.33
-63.60
-67.67
-71.01
-72.93
-73.05
-71.48
-68.82
-65.79
-62.67
-59.04
-53.96
-46.45
-36.24
-23.98
-11.10
0.78
10.49
17.63
22.40
25.27
26.43
25.80
23.26
19.02
13.89
9.09
5.71
4.32
4.58
5.59
6.40
6.49
5.95
5.35
5.15
5.53
6.21
6.65
6.40
5.23
3.13
0.26
-3.20
-6.98
-10.71
-13.96
-16.43
-18.01
-18.89
-19.43
-19.98
-20.75
-21.83
-23.29
-25.13
-27.20
-28.99
-29.60
-28.01
-23.43
-15.82
-6.02
4.53
14.28
22.13
27.61
30.85
32.19
31.88
30.09
26.96
22.79
18.18
13.93
10.71
8.90
8.39
8.74
9.35
9.74
9.68
9.23
8.61
8.08
7.78
7.63
7.36
6.63
5.17
2.91
0.01
-3.14
-6.12
-8.65
-10.73
-12.65
-14.85
-17.70
-21.29
-25.30
-29.04
-31.59
-32.08
-29.97
-25.24
-18.35
-10.15
-1.59
6.51
13.56
19.18
23.16
25.34
25.65
24.14
21.07
16.96
12.49
8.32
4.93
2.53
1.05
0.26
-0.02
0.09
0.62
1.58
2.87
4.21
5.19
5.41
4.65
2.93
0.58
-1.91
-4.13
-5.87
-7.21
-8.50
-10.22
-12.77
-16.26
-20.38
-24.44
-27.49
-28.55
-26.86
-22.17
-14.82
-5.72
3.89
12.69
19.70
24.44
26.96
27.67
27.08
25.63
23.53
20.89
17.76
14.32
10.90
8.03
6.15
5.57
6.21
7.67
9.31
10.49
10.81
10.16
8.61
6.32
3.47
0.23
-3.19
-6.48
-9.38
-11.79
-13.97
-16.45
-19.81
-24.28
-29.50
-34.50
-38.05
-39.08
-37.12
-32.36
-25.55
-17.59
-9.30
-1.21
6.28
12.84
17.90
20.81
21.10
18.78
14.44
9.14
4.04
0.04
-2.55
-3.86
-4.19
-3.79
-2.68
-0.78
1.75
4.44
6.49
7.18
6.23
3.96
1.19
-1.24
-2.86
-3.75
-4.50
-5.75
-7.97
-11.21
-15.21
-19.56
-23.77
-27.25
-29.35
-29.31
-26.48
-20.56
-11.88
-1.34
9.76
20.09
28.61
34.70
38.19
39.22
38.17
35.58
32.10
28.43
25.17
22.72
21.21
20.49
20.26
20.22
20.23
20.24
20.30
20.37
20.24
19.59
18.08
15.54
12.07
8.06
4.02
0.35
-2.83
-5.64
-8.45
-11.59
-15.30
-19.63
-24.42
-29.28
-33.59
-36.45
-36.93
-34.30
-28.42
-19.82
-9.70
0.54
9.66
16.88
21.89
24.72
25.47
24.32
21.53
17.61
13.29
9.41
6.69
5.38
5.31
5.99
6.87
7.56
7.98
8.26
8.52
8.80
8.99
8.93
8.54
7.83
6.78
5.38
3.50
1.02
-2.01
-5.34
-8.59
-11.41
-13.66
-15.48
-17.18
-19.14
-21.62
-24.59
-27.77
-30.54
-32.08
-31.52
-28.22
-22.03
-13.44
-3.45
6.75
16.09
23.84
29.62
33.31
34.86
34.40
32.27
29.07
25.60
22.59
20.59
19.81
20.11
21.21
22.77
24.49
26.09
27.29
27.88
27.74
26.88
25.36
23.28
20.75
17.91
14.91
11.98
9.34
7.05
4.98
2.84
0.41
-2.42
-5.51
-8.65
-11.60
-14.30
-16.79
-19.16
-21.46
-23.74
-26.16
-28.93
-32.20
-35.80
-39.04
-40.77
-39.74
-35.17
-27.10
-16.53
-5.05
5.67
14.40
20.57
24.26
25.83
25.69
24.16
21.49
17.99
14.19
10.76
8.34
7.31
7.69
9.12
11.05
12.97
14.60
15.91
17.04
18.05
18.79
18.97
18.28
16.67
14.36
11.89
9.74
8.22
7.21
6.34
5.16
3.37
0.93
-1.95
-4.92
-7.65
-9.88
-11.55
-12.74
-13.70
-14.73
-16.17
-18.23
-20.95
-24.04
-26.93
-28.79
-28.74
-26.06
-20.52
-12.46
-2.83
7.12
16.13
23.30
28.15
30.69
31.19
30.02
27.64
24.50
21.06
17.80
15.10
13.25
12.38
12.48
13.32
14.56
15.84
16.82
17.37
17.54
17.49
17.39
17.23
16.81
15.83
14.15
11.86
9.31
6.91
4.90
3.27
1.69
-0.10
-2.24
-4.49
-6.42
-7.66
-8.13
-8.13
-8.22
-8.94
-10.59
-13.09
-16.12
-19.22
-21.97
-23.97
-24.80
-24.02
-21.32
-16.64
-10.24
-2.88
4.52
11.06
16.10
19.34
20.85
20.85
19.57
17.20
13.96
10.11
6.07
2.41
-0.23
-1.36
-0.81
1.10
3.72
6.27
8.19
9.33
9.95
10.47
11.08
11.67
11.86
11.29
9.95
8.18
6.54
5.35
4.63
3.94
2.87
1.21
-0.85
-2.90
-4.54
-5.65
-6.40
-7.16
-8.17
-9.49
-10.82
-11.71
-11.60
-10.10
-7.05
-2.65
2.63
8.14
13.20
17.26
19.94
21.08
20.74
19.14
16.70
13.92
11.30
9.23
7.88
7.21
6.97
6.91
6.80
6.59
6.28
5.96
5.71
5.54
5.43
5.27
4.98
4.45
3.65
2.52
1.08
-0.63
-2.50
-4.37
-6.12
-7.71
-9.27
-11.01
-13.14
-15.69
-18.41
-20.76
-22.09
-21.89
-19.94
-16.42
-11.81
-6.69
-1.53
3.37
7.80
11.54
14.26
15.59
15.24
13.20
9.84
5.82
1.94
-1.17
-3.13
-3.98
-3.99
-3.58
-3.10
-2.73
-2.46
-2.17
-1.80
-1.37
-1.09
-1.24
-1.96
-3.27
-4.92
-6.56
-7.87
-8.72
-9.21
-9.66
-10.49
-11.99
-14.21
-16.87
-19.43
-21.22
-21.63
-20.24
-17.00
-12.17
-6.27
0.02
6.07
11.29
15.24
17.61
18.24
17.14
14.56
10.94
6.81
2.79
-0.62
-3.16
-4.73
-5.41
-5.43
-5.02
-4.46
-3.99
-3.71
-3.64
-3.71
-3.83
-4.03
-4.42
-5.15
-6.33
-7.91
-9.69
-11.41
-12.90
-14.16
-15.43
-17.09
-19.47
-22.58
-25.96
-28.72
-29.80
-28.34
-24.12
-17.69
-10.12
-2.54
4.28
10.05
14.75
18.36
20.59
21.10
19.75
16.87
13.28
9.94
7.51
6.12
5.42
4.89
4.20
3.33
2.51
1.98
1.77
1.69
1.44
0.85
-0.06
-1.11
-2.07
-2.86
-3.70
-4.94
-6.89
-9.58
-12.67
-15.60
-18.00
-19.88
-21.72
-24.09
-27.16
-30.36
-32.40
-31.83
-27.72
-20.22
-10.55
-0.53
8.19
14.61
18.61
20.68
21.39
21.14
20.01
17.92
14.96
11.53
8.27
5.85
4.66
4.67
5.41
6.29
6.83
6.87
6.62
6.39
6.46
6.84
7.27
7.32
6.53
4.64
1.68
-2.01
-5.85
-9.24
-11.77
-13.39
-14.37
-15.19
-16.33
-18.08
-20.54
-23.58
-26.92
-30.14
-32.65
-33.71
-32.59
-28.80
-22.35
-13.80
-4.24
5.04
12.83
18.38
21.46
22.39
21.76
20.22
18.20
15.92
13.42
10.72
8.04
5.77
4.36
4.10
4.99
6.65
8.52
10.07
10.95
11.09
10.69
10.04
9.40
8.82
8.16
7.13
5.53
3.33
0.69
-2.05
-4.55
-6.67
-8.47
-10.15
-11.94
-13.90
-15.93
-17.85
-19.60
-21.24
-22.97
-24.87
-26.70
-27.91
-27.69
-25.30
-20.37
-13.23
-4.79
3.69
11.08
16.63
20.17
21.94
22.37
21.80
20.47
18.45
15.85
12.84
9.69
6.71
4.20
2.35
1.24
0.82
0.90
1.23
1.60
1.89
2.10
2.40
2.85
3.42
3.84
3.78
2.98
1.46
-0.55
-2.66
-4.60
-6.33
-7.98
-9.73
-11.61
-13.43
-14.92
-15.91
-16.46
-16.84
-17.42
-18.40
-19.68
-20.85
-21.24
-20.24
-17.46
-12.91
-7.03
-0.51
5.91
11.69
16.50
20.18
22.59
23.56
22.91
20.62
16.99
12.63
8.32
4.76
2.37
1.24
1.16
1.78
2.69
3.61
4.36
4.92
5.38
5.85
6.35
6.85
7.19
7.18
6.65
5.55
3.92
1.90
-0.29
-2.44
-4.31
-5.73
-6.62
-7.08
-7.33
-7.71
-8.51
-9.90
-11.85
-14.10
-16.18
-17.44
-17.25
-15.25
-11.47
-6.32
-0.53
5.14
10.10
14.03
16.86
18.62
19.31
18.89
17.40
15.01
12.09
9.08
6.34
4.09
2.41
1.21
0.45
0.14
0.29
0.93
1.99
3.29
4.54
5.46
5.80
5.52
4.66
3.43
2.05
0.69
-0.57
-1.74
-2.87
-4.03
-5.30
-6.75
-8.47
-10.55
-13.05
-15.92
-18.86
-21.35
-22.65
-22.10
-19.27
-14.25
-7.61
-0.28
6.72
12.58
16.83
19.36
20.34
20.01
18.57
16.23
13.21
9.76
6.26
3.11
0.72
-0.60
-0.72
0.19
1.77
3.45
4.70
5.25
5.13
4.67
4.23
4.05
4.08
3.91
3.10
1.44
-0.92
-3.47
-5.58
-6.89
-7.46
-7.80
-8.62
-10.40
-13.15
-16.19
-18.48
-18.96
-17.02
-12.78
-7.00
-0.76
4.95
9.66
13.36
16.34
18.81
20.62
21.34
20.52
18.08
14.41
10.34
6.73
4.17
2.75
2.10
1.74
1.32
0.78
0.30
0.12
0.33
0.77
1.15
1.10
0.40
-0.99
-2.88
-4.98
-7.04
-8.94
-10.72
-12.51
-14.47
-16.69
-19.11
-21.64
-24.02
-25.93
-26.93
-26.51
-24.25
-19.99
-13.98
-6.87
0.47
7.18
12.63
16.49
18.72
19.37
18.59
16.59
13.66
10.20
6.71
3.59
1.19
-0.35
-1.04
-1.01
-0.44
0.49
1.57
2.58
3.29
3.53
3.19
2.25
0.85
-0.80
-2.45
-4.00
-5.47
-7.04
-8.92
-11.23
-13.94
-16.90
-19.86
-22.53
-24.56
-25.49
-24.86
-22.28
-17.63
-11.23
-3.81
3.55
9.78
14.04
15.97
15.68
13.64
10.48
6.86
3.29
0.13
-2.45
-4.45
-5.94
-6.99
-7.63
-7.83
-7.55
-6.84
-5.92
-5.16
-4.98
-5.61
-7.01
-8.85
-10.69
-12.22
-13.42
-14.51
-15.81
-17.56
-19.83
-22.56
-25.64
-28.91
-32.09
-34.62
-35.72
-34.54
-30.51
-23.70
-14.88
-5.35
3.48
10.48
15.03
17.07
16.90
14.97
11.80
7.89
3.69
-0.26
-3.48
-5.62
-6.53
-6.37
-5.53
-4.43
-3.44
-2.74
-2.34
-2.13
-2.06
-2.15
-2.55
-3.44
-4.92
-7.00
-9.54
-12.30
-15.19
-18.23
-21.63
-25.63
-30.28
-35.14
-39.24
-41.29
-40.29
-35.87
-28.55
-19.50
-10.13
-1.57
5.51
10.89
14.47
16.21
16.05
14.12
10.83
6.88
3.07
0.06
-1.96
-3.07
-3.55
-3.63
-3.41
-2.85
-1.97
-0.93
-0.13
-0.01
-0.89
-2.75
-5.32
-8.20
-11.03
-13.61
-15.95
-18.18
-20.53
-23.24
-26.53
-30.48
-34.84
-38.92
-41.78
-42.34
-39.88
-34.27
-26.01
-16.14
-5.85
3.81
12.04
18.30
22.30
24.02
23.66
21.66
18.65
15.45
12.86
11.45
11.45
12.65
14.68
17.06
19.41
21.53
23.34
24.86
26.07
26.84
26.97
26.44
25.34
23.79
21.94
19.93
17.94
16.14
14.61
13.37
12.81
13.10
14.17
15.71
17.65
20.40
24.80
31.73
41.60
55.09
71.72
89.90
107.29
121.82
132.43
139.28
143.39
146.04
149.95
156.90
167.20
179.52
191.92
202.81
211.51
218.18
223.50
230.57
241.83
257.64
275.59
291.04
298.81
294.81
277.22
234.35
163.93
73.83
-20.17
-102.36
-164.28
-205.55
-230.19
-242.73
-246.66
-242.31
-230.38
-213.04
-193.86
-176.34
-162.35
-151.80
-143.29
-135.25
-125.06
-111.44
-94.86
-77.21
-60.81
-47.01
-35.92
-26.86
-19.03
-11.01
-2.35
6.73
15.19
21.59
25.30
26.62
26.44
25.81
26.05
28.03
32.04
37.87
44.57
51.55
58.60
65.71
72.94
80.49
88.46
96.84
105.53
113.74
120.98
127.03
131.73
134.93
136.33
135.37
130.89
126.15
122.21
119.68
118.80
119.52
121.52
124.30
127.31
130.01
132.06
132.57
131.08
127.48
121.89
114.64
106.20
97.11
87.94
79.28
71.10
63.42
56.28
49.66
43.58
37.99
32.92
28.39
24.50
21.01
17.77
14.66
11.61
8.60
5.62
2.75
0.08
-2.26
-4.34
-6.21
-7.90
-9.44
-10.86
-12.17
-13.34
-14.37
-15.24
-16.04
-16.89
-17.89
-19.10
-20.56
-22.20
-23.93
-25.60
-27.17
-28.67
-30.25
-32.12
-34.46
-37.28
-40.44
-43.64
-46.60
-49.16
-51.40
-53.68
-56.52
-60.36
-65.36
-71.37
-77.94
-84.59
-91.01
-97.31
-104.00
-111.82
-121.37
-132.85
-145.90
-159.80
-173.74
-187.12
-199.76
-211.92
-224.21
-237.51
-252.90
-271.37
-293.21
-317.22
-340.41
-358.36
-366.67
-362.56
-346.12
-320.35
-289.82
-258.90
-230.31
-204.80
-181.86
-160.89
-141.87
-125.37
-111.86
-101.12
-92.06
-83.30
-73.79
-63.38
-52.81
-43.35
-36.12
-31.65
-29.74
-29.61
-30.38
-31.36
-32.23
-33.09
-34.22
-35.98
-38.84
-43.40
-50.36
-60.05
-71.86
-83.86
-92.79
-94.88
-87.13
-68.57
-40.90
-7.99
25.43
55.22
78.90
95.88
106.78
112.59
114.08
111.69
105.90
97.74
88.84
81.11
76.17
74.83
76.73
80.70
85.18
88.84
91.00
91.69
91.40
90.67
89.72
88.35
86.06
82.37
77.08
70.50
63.38
56.68
51.16
47.10
44.21
41.79
39.10
35.71
31.69
27.49
23.73
20.76
18.45
16.33
13.84
10.64
6.73
2.42
-2.01
-6.44
-11.08
-16.27
-22.25
-28.86
-35.61
-41.82
-46.92
-50.85
-54.03
-57.37
-62.02
-68.98
-78.65
-90.39
-102.27
-111.25
-114.00
-107.98
-92.43
-68.83
-40.52
-11.62
14.26
34.92
49.70
59.02
63.67
64.37
61.66
56.26
49.36
42.59
37.66
35.86
37.54
42.08
48.14
54.21
59.10
62.31
63.94
64.52
64.49
64.01
62.87
60.67
57.04
51.96
45.84
39.41
33.49
28.67
25.12
22.57
20.42
17.98
14.72
10.50
5.51
0.35
-4.34
-8.06
-10.72
-12.69
-14.68
-17.41
-21.31
-26.32
-31.82
-37.01
-41.19
-44.18
-46.39
-48.72
-52.21
-57.67
-65.27
-74.29
-83.05
-89.20
-90.24
-84.34
-70.89
-50.83
-26.49
-0.89
22.94
42.79
57.44
66.74
71.19
71.62
68.94
64.12
58.14
52.08
46.98
43.63
42.49
43.43
45.85
48.92
51.72
53.71
54.71
54.87
54.47
53.66
52.38
50.31
47.05
42.37
36.45
29.86
23.50
18.15
14.20
11.48
9.24
6.61
2.94
-1.75
-6.85
-11.42
-14.76
-16.67
-17.67
-18.63
-20.34
-23.12
-26.68
-30.36
-33.56
-36.03
-38.10
-40.46
-43.83
-48.74
-55.33
-63.54
-73.01
-83.14
-92.83
-100.33
-103.47
-100.15
-89.16
-70.84
-47.29
-21.65
2.62
22.85
37.74
47.24
52.15
53.51
52.23
48.88
43.92
37.91
31.63
25.96
21.81
19.81
20.15
22.56
26.35
30.67
34.70
37.85
39.84
40.63
40.31
38.99
36.76
33.66
29.80
25.34
20.57
15.83
11.36
7.32
3.65
0.24
-3.04
-6.26
-9.38
-12.27
-14.83
-17.05
-19.03
-20.95
-23.01
-25.29
-27.74
-30.24
-32.67
-35.01
-37.53
-40.67
-44.95
-50.59
-57.10
-63.16
-66.72
-65.65
-58.44
-44.94
-26.53
-5.69
14.74
32.41
45.97
55.06
59.92
61.06
59.04
54.38
47.86
40.44
33.26
27.34
23.36
21.51
21.56
23.01
25.31
28.05
30.93
33.75
36.24
38.08
38.85
38.21
35.99
32.26
27.42
22.06
16.83
12.28
8.65
5.82
3.43
0.94
-2.10
-5.82
-10.06
-14.48
-18.74
-22.71
-26.47
-30.30
-34.59
-39.66
-45.73
-52.76
-60.29
-67.27
-72.08
-72.85
-68.00
-56.83
-40.04
-19.61
1.79
21.53
37.78
49.68
57.16
60.57
60.17
56.15
48.78
38.66
26.91
15.09
4.87
-2.36
-5.83
-5.63
-2.57
1.96
6.50
9.89
11.60
11.63
10.35
8.16
5.26
1.64
-2.72
-7.68
-12.86
-17.75
-21.97
-25.43
-28.32
-30.93
-33.40
-35.63
-37.44
-38.75
-39.88
-41.64
-45.00
-50.63
-58.23
-66.27
-72.16
-73.05
-66.90
-53.31
-33.85
-11.49
10.38
29.04
43.07
52.32
57.34
58.77
57.00
52.14
44.51
34.95
24.85
15.94
9.62
6.62
6.73
8.93
11.95
14.64
16.40
17.14
17.10
16.55
15.62
14.21
12.07
8.98
4.85
-0.18
-5.80
-11.56
-17.00
-21.81
-25.88
-29.38
-32.63
-36.00
-39.83
-44.36
-49.73
-55.86
-62.22
-67.71
-70.69
-69.35
-62.40
-49.63
-32.18
-12.28
7.48
24.81
38.33
47.45
52.19
52.80
49.67
43.36
34.79
25.22
16.08
8.67
3.75
1.48
1.41
2.76
4.67
6.52
8.00
9.08
9.86
10.27
9.96
8.37
4.86
-0.94
-8.90
-18.40
-28.49
-38.10
-46.44
-53.12
-58.20
-62.22
-66.04
-70.68
-76.99
-85.20
-94.55
-103.13
-108.36
-107.75
-99.90
-85.14
-65.42
-43.83
-23.54
-6.88
4.97
11.84
14.15
12.44
7.24
-0.79
-10.64
-20.85
-29.71
-35.83
-38.48
-37.91
-35.07
-31.28
-27.55
-24.39
-21.68
-19.03
-16.14
-13.12
-10.58
-9.42
-10.57
-14.47
-20.98
-29.32
-38.28
-46.75
-53.97
-59.80
-64.78
-69.79
-75.73
-83.28
-92.72
-103.62
-114.77
-124.12
-128.99
-126.81
-115.85
-95.93
-68.60
-36.83
-3.94
27.15
54.38
77.09
95.74
111.29
124.49
135.70
144.97
152.59
159.38
166.47
175.28
187.03
202.36
221.20
243.04
267.35
293.55
320.53
345.51
364.98
375.74
376.02
365.82
346.84
321.67
292.86
262.07
228.31
191.06
151.74
113.40
78.97
49.71
25.15
3.74
-16.02
-38.33
-64.56
-92.13
-116.42
-134.46
-146.69
-155.85
-164.93
-175.74
-194.33
-223.10
-259.12
-296.13
-329.13
-356.44
-378.49
-396.29
-410.88
-431.13
-462.84
-504.83
-549.87
-589.80
-619.12
-635.02
-637.33
-581.25
-453.48
-280.68
-111.24
20.98
108.98
161.23
189.66
203.65
209.31
202.89
182.90
154.28
124.72
102.36
89.89
85.82
86.88
90.34
88.57
77.53
59.32
40.07
25.46
17.67
16.74
19.54
23.98
25.23
20.83
12.24
3.39
-2.19
-3.41
-0.93
3.79
9.61
13.97
15.43
14.60
13.46
14.03
17.19
22.90
30.59
39.65
48.74
56.89
63.98
70.64
77.81
86.15
95.91
106.93
118.74
130.54
141.49
150.92
158.64
165.02
170.99
177.87
187.02
199.42
214.90
231.72
246.60
255.50
254.84
242.94
220.73
191.45
159.68
129.80
104.84
86.08
73.32
65.56
61.51
59.82
59.07
57.84
54.78
48.98
40.23
29.09
16.71
4.27
-7.35
-17.89
-27.59
-37.07
-47.02
-58.11
-70.88
-85.72
-102.42
-119.77
-135.39
-145.98
-148.32
-140.34
-122.05
-95.74
-65.35
-35.10
-8.45
12.52
27.05
35.08
36.93
33.07
24.40
12.62
0.12
-10.36
-16.57
-17.48
-13.51
-6.40
1.58
8.44
13.06
15.34
15.84
15.24
14.02
12.17
9.30
4.98
-1.09
-8.84
-17.71
-26.86
-35.41
-42.70
-48.67
-53.85
-59.23
-65.99
-74.96
-86.21
-98.65
-110.07
-117.57
-118.38
-110.86
-95.01
-72.63
-46.69
-20.31
4.03
24.89
41.68
54.09
61.67
63.95
60.80
52.97
42.17
30.68
20.68
13.61
9.84
8.94
10.21
12.98
16.89
21.55
26.42
30.77
33.91
35.42
35.31
33.93
31.64
28.61
24.78
19.96
14.08
7.31
0.03
-7.28
-14.21
-20.52
-26.08
-30.81
-34.74
-38.13
-41.58
-45.97
-52.24
-60.75
-70.72
-79.90
-84.91
-82.33
-69.92
-47.73
-18.16
14.76
46.75
74.52
96.34
111.91
121.73
126.51
126.93
123.70
117.83
110.69
103.88
98.83
96.40
96.74
99.27
103.01
106.95
110.37
112.93
114.61
115.47
115.42
114.24
111.71
107.80
102.83
97.46
92.33
87.83
83.77
79.46
73.89
66.18
56.03
43.96
31.13
18.92
8.39
-0.12
-7.11
-13.71
-21.22
-30.54
-41.70
-53.47
-63.59
-69.15
-67.64
-57.79
-40.14
-16.94
8.61
33.37
55.08
72.62
85.63
94.02
97.56
96.14
90.07
80.52
69.44
59.06
51.16
46.54
44.89
45.13
46.05
46.74
46.91
46.61
45.99
44.96
43.18
40.16
35.57
29.47
22.23
14.45
6.67
-0.88
-8.23
-15.53
-22.81
-29.86
-36.20
-41.32
-44.97
-47.35
-49.21
-51.64
-55.71
-61.93
-69.84
-77.84
-83.53
-84.28
-78.17
-64.69
-45.05
-21.83
1.79
22.97
39.88
51.82
58.97
61.85
60.97
56.69
49.55
40.41
30.62
21.81
15.41
12.20
12.06
14.06
16.87
19.26
20.49
20.43
19.40
17.83
15.90
13.41
9.91
4.92
-1.77
-9.97
-19.05
-28.16
-36.50
-43.63
-49.60
-54.91
-60.41
-66.99
-75.28
-85.23
-95.89
-105.37
-111.22
-111.14
-103.84
-89.49
-69.79
-47.46
-25.34
-5.74
9.97
21.24
28.04
30.59
29.26
24.68
17.81
9.99
2.63
-3.03
-6.21
-6.78
-5.17
-2.16
1.44
5.07
8.41
11.43
14.04
16.06
17.13
16.83
14.94
11.57
7.13
2.22
-2.60
-7.01
-10.89
-14.44
-18.16
-22.72
-28.77
-36.52
-45.33
-53.41
-58.25
-57.26
-48.87
-33.27
-12.52
10.11
31.20
48.27
60.26
67.26
69.95
69.00
64.81
57.75
48.48
38.18
28.34
20.34
14.95
12.19
11.40
11.75
12.56
13.50
14.41
15.13
15.26
14.24
11.64
7.31
1.53
-5.11
-12.01
-18.74
-25.13
-31.26
-37.37
-43.82
-50.99
-59.23
-68.44
-77.74
-85.36
-88.86
-85.96
-75.42
-57.75
-35.21
-11.20
10.89
28.58
40.80
47.68
50.01
48.66
44.28
37.49
29.06
20.14
12.01
5.83
2.17
0.92
1.41
2.81
4.46
6.07
7.57
8.86
9.65
9.45
7.88
4.93
1.11
-2.73
-5.75
-7.46
-8.04
-8.17
-8.80
-10.84
-14.96
-21.40
-29.86
-39.42
-48.49
-54.98
-56.78
-52.37
-41.49
-25.31
-6.13
13.26
30.43
43.75
52.52
56.73
56.76
53.18
46.74
38.42
29.44
21.07
14.35
9.88
7.69
7.36
8.24
9.69
11.17
12.34
12.99
12.97
12.18
10.50
7.87
4.31
-0.07
-5.05
-10.37
-15.70
-20.77
-25.40
-29.56
-33.36
-37.05
-40.96
-45.39
-50.31
-55.20
-58.95
-60.04
-57.00
-48.96
-36.11
-19.77
-2.01
14.91
29.21
39.89
46.68
49.74
49.35
45.83
39.61
31.53
22.83
14.96
9.15
6.07
5.62
7.01
9.20
11.30
12.84
13.78
14.26
14.37
14.01
12.89
10.80
7.70
3.85
-0.32
-4.54
-8.62
-12.55
-16.31
-19.75
-22.70
-25.08
-27.21
-29.82
-33.73
-39.21
-45.52
-50.86
-52.89
-49.73
-40.79
-27.23
-11.43
3.91
16.75
26.25
32.58
36.28
37.65
36.44
32.18
24.88
15.38
5.43
-2.91
-8.10
-9.63
-8.28
-5.51
-2.79
-0.88
0.26
1.20
2.50
4.26
5.99
6.83
5.99
3.20
-1.22
-6.41
-11.40
-15.37
-18.09
-19.82
-21.30
-23.36
-26.66
-31.46
-37.47
-43.83
-49.21
-52.09
-51.07
-45.27
-34.73
-20.49
-4.37
11.57
25.52
36.39
43.73
47.57
48.10
45.53
40.12
32.44
23.51
14.64
7.21
2.22
0.03
0.27
2.09
4.46
6.58
8.00
8.65
8.63
8.06
6.89
5.01
2.28
-1.28
-5.44
-9.79
-13.97
-17.67
-20.86
-23.75
-26.73
-30.30
-34.87
-40.52
-46.80
-52.60
-56.28
-56.17
-51.12
-41.00
-26.88
-10.71
5.23
19.02
29.40
35.96
38.71
37.96
34.08
27.60
19.36
10.55
2.48
-3.76
-7.55
-8.96
-8.54
-7.05
-5.15
-3.23
-1.41
0.25
1.60
2.37
2.17
0.68
-2.16
-6.14
-10.76
-15.37
-19.41
-22.57
-24.96
-27.16
-30.08
-34.52
-40.80
-48.23
-55.08
-58.97
-57.74
-50.31
-37.25
-20.63
-3.26
12.17
23.93
31.47
35.04
35.29
32.77
27.86
20.93
12.56
3.63
-4.73
-11.47
-15.84
-17.61
-17.09
-15.03
-12.36
-9.89
-8.20
-7.52
-7.87
-9.12
-11.15
-13.80
-16.91
-20.25
-23.62
-26.87
-30.07
-33.62
-38.09
-44.03
-51.46
-59.47
-66.21
-69.22
-66.38
-56.72
-40.96
-21.44
-1.26
16.64
30.26
38.84
42.60
42.23
38.55
32.39
24.57
16.06
7.90
0.99
-4.07
-7.01
-7.90
-7.01
-4.77
-1.76
1.34
3.74
4.74
3.92
1.30
-2.72
-7.46
-12.31
-16.87
-21.12
-25.37
-30.16
-36.00
-43.22
-51.58
-60.09
-66.95
-70.02
-67.29
-57.79
-42.05
-22.04
-0.63
19.29
35.51
46.93
53.29
55.01
52.77
47.40
39.97
31.73
24.03
18.02
14.39
13.20
14.01
16.09
18.75
21.47
23.82
25.51
26.11
25.21
22.49
17.93
11.85
4.88
-2.24
-8.90
-14.77
-19.90
-24.67
-29.76
-35.85
-43.26
-51.60
-59.41
-64.45
-64.34
-57.48
-43.86
-25.17
-4.33
15.52
32.00
43.92
51.15
54.09
53.24
49.02
42.02
33.25
24.19
16.55
11.69
10.21
11.83
15.52
19.90
23.75
26.34
27.50
27.53
26.92
25.96
24.57
22.25
18.39
12.68
5.38
-2.64
-10.23
-16.48
-21.10
-24.62
-28.02
-32.33
-38.18
-45.57
-53.86
-61.84
-67.94
-70.52
-68.23
-60.40
-47.28
-30.09
-10.77
8.49
25.75
39.51
48.83
53.33
53.14
48.96
42.08
34.19
27.09
22.20
20.22
21.06
23.94
27.80
31.65
34.80
36.99
38.27
38.82
38.74
37.93
36.11
33.01
28.54
23.00
17.05
11.44
6.69
2.80
-0.68
-4.44
-8.93
-14.03
-19.14
-23.42
-26.29
-27.78
-28.45
-29.22
-31.03
-34.52
-40.00
-47.27
-55.59
-63.50
-68.98
-69.81
-64.28
-51.92
-33.89
-12.67
8.68
27.48
42.09
51.96
57.31
58.66
56.56
51.59
44.65
37.02
30.25
25.76
24.42
26.27
30.59
36.21
41.92
46.82
50.40
52.54
53.31
52.91
51.51
49.30
46.41
42.94
39.01
34.67
29.93
24.86
19.56
14.12
8.64
3.06
-2.68
-8.62
-14.65
-20.43
-25.53
-29.58
-32.46
-34.42
-36.05
-38.05
-41.12
-45.65
-51.65
-58.51
-65.01
-69.42
-69.82
-64.75
-53.74
-37.64
-18.42
1.34
19.20
33.42
43.13
48.19
48.86
45.68
39.40
31.13
22.38
14.83
10.04
8.95
11.62
17.23
24.35
31.37
37.07
40.84
42.70
43.12
42.62
41.51
39.81
37.35
33.97
29.77
25.14
20.67
16.87
13.96
11.74
9.72
7.33
4.25
0.61
-2.97
-5.77
-7.27
-7.58
-7.38
-7.68
-9.34
-12.76
-17.64
-23.15
-28.04
-30.88
-30.25
-24.97
-14.40
1.28
20.93
42.63
64.15
83.51
99.45
111.38
119.24
123.15
123.25
119.93
114.10
107.26
101.38
98.23
98.81
102.95
109.54
117.01
124.04
129.96
134.80
138.97
142.83
146.42
149.42
151.39
151.94
150.88
148.35
144.72
140.60
136.54
132.75
128.70
123.02
113.73
99.07
78.55
53.51
27.03
2.82
-16.12
-28.76
-36.35
-41.73
-48.02
-57.29
-69.78
-83.97
-97.18
-106.38
-109.19
-104.42
-92.48
-75.19
-55.31
-35.79
-18.98
-6.25
2.05
6.21
6.82
4.49
-0.14
-6.22
-12.71
-18.57
-23.03
-25.88
-27.47
-28.37
-29.09
-29.79
-30.39
-30.65
-30.53
-30.21
-30.11
-30.67
-32.20
-34.81
-38.45
-42.92
-47.93
-53.15
-58.17
-62.63
-66.36
-69.40
-72.00
-74.44
-76.97
-79.71
-82.60
-85.54
-88.34
-90.74
-92.48
-93.31
-93.14
-92.19
-90.87
-89.75
-89.22
-89.40
-90.11
-90.96
-91.54
-91.60
-90.98
-89.61
-87.47
-84.63
-81.29
-77.92
-75.15
-73.61
-73.68
-75.35
-78.27
-81.97
-86.20
-91.00
-96.65
-103.32
-110.72
-118.09
-124.38
-128.71
-130.73
-130.77
-129.54
-127.69
-125.49
-122.81
-119.33
-114.98
-110.11
-105.43
-101.61
-98.89
-96.83
-94.44
-90.55
-84.37
-75.81
-65.48
-54.52
-44.15
-35.42
-28.90
-24.75
-22.73
-22.38
-23.08
-24.28
-25.60
-27.01
-28.91
-31.91
-36.72
-43.55
-51.66
-59.27
-63.82
-62.72
-54.35
-38.70
-17.51
6.27
29.50
49.75
65.72
77.07
83.93
86.49
84.80
79.08
70.05
59.10
48.16
39.14
33.45
31.61
33.26
37.27
42.30
47.12
50.97
53.58
54.99
55.40
54.89
53.42
50.90
47.36
43.04
38.36
33.76
29.52
25.60
21.68
17.28
11.99
5.67
-1.47
-8.94
-16.14
-22.64
-28.34
-33.66
-39.47
-46.85
-56.85
-69.95
-85.69
-102.47
-117.69
-128.24
-131.44
-125.85
-111.81
-91.33
-67.51
-43.49
-21.72
-3.56
10.62
20.98
27.80
31.27
31.56
29.01
24.32
18.54
12.93
8.65
6.50
6.79
9.35
13.70
19.27
25.54
32.03
38.32
43.90
48.24
50.75
51.00
48.79
44.32
38.11
30.93
23.56
16.65
10.51
5.12
0.19
-4.74
-10.12
-16.38
-23.91
-33.02
-43.66
-55.14
-65.80
-73.25
-74.89
-68.94
-55.16
-35.08
-11.56
12.25
33.83
51.80
65.72
75.57
81.16
82.05
77.90
69.03
56.76
43.29
31.04
22.00
17.09
16.10
17.95
21.29
24.94
28.23
30.98
33.17
34.71
35.24
34.18
30.99
25.55
18.29
10.15
2.27
-4.49
-9.84
-14.14
-18.16
-22.80
-28.81
-36.66
-46.51
-58.06
-70.38
-81.77
-89.89
-92.20
-86.81
-73.11
-52.20
-26.55
0.67
26.44
48.45
65.35
76.51
81.86
81.70
76.66
67.82
56.65
44.74
33.67
24.63
18.31
14.98
14.49
16.46
20.29
25.23
30.41
34.99
38.24
39.65
39.01
36.32
31.76
25.53
17.90
9.16
-0.37
-10.18
-19.80
-28.78
-36.96
-44.60
-52.41
-61.35
-72.12
-84.48
-96.82
-106.18
-108.98
-102.29
-85.15
-59.13
-28.08
3.15
30.26
50.78
64.26
71.84
75.06
75.03
72.16
66.45
58.13
48.13
38.11
30.02
25.44
25.06
28.42
34.19
40.60
46.16
49.96
51.84
52.08
51.06
48.90
45.40
40.18
33.02
24.15
14.31
4.49
-4.41
-11.94
-18.24
-23.91
-29.84
-36.93
-45.86
-56.84
-69.26
-81.49
-90.86
-94.22
-88.89
-73.70
-49.61
-19.64
12.15
41.72
66.21
84.22
95.57
100.71
100.25
94.75
85.02
72.32
58.51
45.68
35.76
29.95
28.48
30.61
34.96
39.96
44.32
47.36
49.03
49.66
49.67
49.23
48.14
45.82
41.66
35.23
26.63
16.52
5.98
-3.88
-12.29
-19.11
-24.81
-30.25
-36.36
-43.88
-53.13
-63.96
-75.48
-86.04
-93.26
-94.44
-87.37
-71.19
-46.98
-17.51
13.41
42.17
66.06
83.71
94.79
99.60
98.68
92.81
83.15
71.34
59.32
48.96
41.65
38.01
37.88
40.55
45.00
50.23
55.39
59.89
63.28
65.36
66.00
65.12
62.57
58.17
51.86
43.81
34.61
25.13
16.36
8.93
2.86
-2.40
-7.74
-13.94
-21.45
-30.38
-40.50
-51.26
-61.67
-70.01
-74.03
-71.48
-61.09
-43.36
-20.66
3.52
25.61
43.16
55.24
62.09
64.42
62.74
57.25
48.33
36.88
24.67
14.00
7.04
5.13
8.25
15.11
23.67
31.78
37.99
41.87
43.89
44.91
45.54
45.74
44.77
41.41
34.43
23.04
7.07
-12.92
-35.82
-60.29
-85.00
-108.96
-131.59
-152.55
-171.37
-187.01
-197.65
-200.98
-194.92
-178.64
-153.08
-121.00
-86.20
-52.48
-22.65
1.82
20.63
34.03
42.27
45.47
43.80
37.94
29.37
20.16
12.44
7.84
6.92
9.23
13.64
18.93
24.25
29.30
34.07
38.47
41.97
43.72
42.81
38.83
32.09
23.66
14.89
6.96
0.36
-5.15
-10.43
-16.60
-24.56
-34.67
-46.39
-58.19
-67.67
-72.08
-69.07
-57.55
-38.19
-13.34
13.59
39.10
60.47
76.22
86.08
90.50
90.28
86.21
79.14
70.10
60.35
51.27
44.09
39.59
37.87
38.44
40.49
43.17
45.73
47.60
48.23
47.16
44.01
38.65
31.43
23.04
14.46
6.57
-0.15
-5.83
-11.10
-16.97
-24.40
-33.97
-45.53
-57.90
-68.95
-75.88
-76.10
-68.00
-51.72
-29.15
-3.53
21.61
43.34
59.93
70.90
76.54
77.45
74.22
67.50
58.20
47.63
37.47
29.27
24.05
21.95
22.29
23.90
25.68
26.98
27.68
27.90
27.69
26.74
24.45
20.11
13.38
4.49
-5.67
-15.87
-24.93
-32.17
-37.66
-42.25
-47.31
-54.21
-63.72
-75.45
-87.66
-97.47
-101.67
-97.79
-85.08
-64.83
-39.99
-14.14
9.67
29.61
45.08
56.13
62.83
64.99
62.40
55.42
45.42
34.63
25.53
19.95
18.51
20.47
24.28
28.20
31.01
32.25
32.14
31.22
29.89
28.23
26.02
22.98
18.90
13.85
8.06
1.83
-4.59
-11.04
-17.34
-23.25
-28.52
-32.99
-36.74
-40.26
-44.35
-49.82
-57.09
-65.58
-73.59
-78.51
-77.61
-69.07
-52.79
-30.59
-5.64
18.58
39.36
55.35
66.41
73.06
75.93
75.42
71.95
66.21
59.37
52.96
48.38
46.51
47.39
50.33
54.15
57.73
60.31
61.64
61.84
61.22
59.96
58.01
55.10
50.95
45.47
38.91
31.79
24.77
18.44
13.11
8.74
4.96
1.23
-3.04
-8.21
-14.33
-21.05
-27.77
-33.87
-38.96
-43.09
-46.68
-50.42
-54.99
-60.90
-68.34
-77.13
-86.57
-95.31
-101.46
-102.89
-97.84
-85.64
-67.10
-44.34
-20.28
2.20
20.96
34.86
43.71
47.90
48.14
45.31
40.43
34.75
29.48
25.69
24.04
24.70
27.38
31.46
36.20
40.85
44.75
47.45
48.74
48.64
47.44
45.53
43.24
40.78
38.07
34.92
31.21
26.94
22.39
17.90
13.76
10.08
6.79
3.61
0.27
-3.45
-7.63
-12.29
-17.30
-22.44
-27.42
-31.97
-35.96
-39.44
-42.63
-45.80
-49.21
-53.11
-57.72
-63.11
-69.05
-74.70
-78.48
-78.41
-72.78
-60.89
-43.54
-22.93
-1.93
16.83
31.64
41.97
48.08
50.55
49.97
46.80
41.63
35.31
28.94
23.71
20.55
19.89
21.59
25.00
29.18
33.28
36.65
39.05
40.60
41.54
42.05
42.12
41.46
39.68
36.52
32.03
26.62
21.03
15.98
11.98
8.99
6.55
3.83
0.18
-4.67
-10.43
-16.29
-21.36
-25.01
-27.20
-28.51
-29.93
-32.43
-36.70
-42.90
-50.62
-58.98
-66.70
-72.33
-74.45
-72.03
-64.76
-53.24
-38.89
-23.63
-9.39
2.37
10.89
16.05
18.21
17.88
15.59
11.82
7.11
2.09
-2.49
-5.86
-7.43
-6.89
-4.36
-0.35
4.36
8.95
12.70
15.22
16.34
16.18
15.01
13.11
10.78
8.14
5.25
2.05
-1.49
-5.34
-9.42
-13.48
-17.28
-20.56
-23.16
-25.00
-26.20
-27.15
-28.38
-30.56
-34.10
-38.84
-43.83
-47.47
-47.91
-43.82
-34.95
-22.36
-8.06
5.72
17.32
25.97
31.77
35.09
36.18
34.95
31.18
24.93
16.94
8.53
1.30
-3.47
-5.26
-4.38
-1.81
1.29
3.97
5.78
6.79
7.26
7.54
7.62
7.20
5.77
2.92
-1.36
-6.64
-12.20
-17.36
-21.70
-25.21
-28.22
-31.12
-34.24
-37.73
-41.82
-46.59
-51.94
-57.28
-61.32
-62.34
-58.83
-50.09
-36.82
-20.89
-4.69
9.68
21.09
29.34
34.83
37.90
38.48
36.34
31.41
24.29
16.31
9.15
4.17
1.97
2.21
3.93
6.06
7.93
9.43
10.83
12.39
14.12
15.59
16.20
15.44
13.16
9.63
5.48
1.38
-2.11
-4.81
-6.89
-8.84
-11.27
-14.72
-19.52
-25.62
-32.53
-39.25
-44.43
-46.60
-44.63
-38.15
-27.72
-14.68
-0.80
12.22
23.17
31.37
36.59
38.85
38.21
34.88
29.35
22.48
15.35
9.12
4.60
2.17
1.70
2.77
4.80
7.36
10.11
12.79
15.08
16.54
16.74
15.37
12.41
8.22
3.44
-1.33
-5.59
-9.24
-12.45
-15.53
-18.76
-22.38
-26.56
-31.44
-37.05
-43.05
-48.64
-52.50
-53.13
-49.42
-41.17
-29.26
-15.41
-1.68
10.15
19.01
24.50
26.77
26.17
23.06
17.74
10.57
2.20
-6.32
-13.51
-17.77
-17.78
-13.02
-4.12
7.31
19.10
29.25
36.48
40.36
41.17
39.44
35.66
30.22
23.53
16.16
8.96
2.71
-2.07
-5.46
-8.06
-10.86
-14.78
-20.35
-27.33
-34.65
-40.63
-43.49
-41.81
-35.14
-24.21
-10.71
3.23
15.61
25.05
30.97
33.43
32.90
29.92
25.03
18.77
11.75
4.71
-1.57
-6.43
-9.38
-10.37
-9.63
-7.64
-4.94
-1.99
0.85
3.32
5.12
5.98
5.66
4.14
1.63
-1.46
-4.70
-7.77
-10.56
-13.13
-15.70
-18.46
-21.67
-25.54
-30.12
-35.09
-39.59
-42.29
-41.78
-37.11
-28.24
-16.25
-2.98
9.50
19.52
26.21
29.51
29.88
27.86
23.93
18.35
11.40
3.58
-4.38
-11.50
-16.84
-19.72
-20.02
-18.12
-14.88
-11.26
-8.07
-5.82
-4.70
-4.66
-5.55
-7.21
-9.40
-11.80
-13.95
-15.44
-16.03
-15.90
-15.63
-16.07
-18.05
-21.89
-27.17
-32.59
-36.26
-36.25
-31.30
-21.26
-7.24
8.78
24.54
38.14
48.35
54.63
56.99
55.66
51.06
43.82
34.87
25.43
16.74
9.82
5.19
2.80
2.14
2.46
3.05
3.42
3.34
2.74
1.59
-0.16
-2.65
-5.98
-10.18
-15.06
-20.33
-25.63
-30.70
-35.61
-40.69
-46.41
-52.97
-59.90
-65.85
-68.88
-67.06
-59.31
-45.93
-28.72
-10.38
6.45
19.87
29.14
34.46
36.44
35.65
32.41
26.88
19.44
10.79
2.04
-5.53
-10.77
-13.03
-12.27
-9.23
-5.11
-1.37
0.75
0.57
-1.85
-5.78
-10.20
-14.25
-17.60
-20.56
-23.78
-28.00
-33.67
-40.88
-49.30
-58.34
-66.94
-73.78
-77.24
-75.78
-68.46
-55.33
-37.61
-17.51
2.37
19.66
32.73
40.84
44.08
43.06
38.79
32.31
24.80
17.36
10.96
6.33
3.84
3.56
5.21
8.35
12.44
16.90
21.07
24.20
25.56
24.61
21.20
15.66
8.83
1.71
-4.84
-10.39
-15.14
-19.69
-24.82
-31.11
-38.65
-46.75
-53.95
-58.32
-58.03
-51.90
-39.97
-23.52
-4.66
14.30
31.48
45.63
56.10
62.50
64.58
62.29
56.10
47.21
37.45
28.87
23.08
20.77
21.61
24.43
27.84
30.68
32.31
32.70
32.15
30.99
29.28
26.87
23.41
18.72
12.93
6.53
0.20
-5.44
-10.11
-14.01
-17.65
-21.75
-26.92
-33.55
-41.50
-50.06
-57.78
-62.76
-63.06
-57.41
-45.75
-29.45
-10.91
7.20
22.76
34.59
42.44
46.65
47.65
45.76
41.34
35.01
27.82
21.15
16.37
14.43
15.53
19.12
24.04
28.99
32.99
35.52
36.67
36.81
36.37
35.56
34.33
32.46
29.76
26.19
21.87
17.03
11.92
6.72
1.63
-3.23
-7.75
-11.85
-15.51
-18.83
-21.95
-25.21
-29.05
-33.92
-39.96
-46.69
-52.74
-56.14
-54.80
-47.40
-34.00
-16.20
3.42
22.11
37.80
49.43
56.79
60.15
59.92
56.52
50.59
43.19
35.79
29.89
26.65
26.48
28.96
33.13
37.86
42.25
45.83
48.45
50.12
50.84
50.43
48.70
45.60
41.29
36.19
30.79
25.51
20.57
15.97
11.59
7.27
2.98
-1.17
-5.03
-8.45
-11.43
-14.07
-16.61
-19.27
-22.32
-25.98
-30.60
-36.47
-43.60
-51.38
-58.36
-62.44
-61.50
-54.23
-40.92
-23.41
-4.49
13.09
27.48
38.02
44.94
48.68
49.44
47.19
42.07
34.75
26.70
19.77
15.61
15.10
17.96
23.01
28.68
33.60
37.10
39.10
40.00
40.14
39.62
38.20
35.63
31.85
27.18
22.26
17.77
14.11
11.19
8.53
5.41
1.32
-3.88
-9.80
-15.74
-20.94
-24.92
-27.70
-29.74
-31.82
-34.76
-39.17
-45.41
-53.33
-62.23
-70.72
-76.94
-78.90
-75.17
-65.42
-50.68
-33.11
-15.27
0.57
12.99
21.51
26.33
27.86
26.51
22.68
16.93
10.21
3.80
-0.92
-2.99
-2.12
1.23
6.02
11.06
15.44
18.70
20.86
22.20
22.93
23.03
22.27
20.43
17.45
13.64
9.52
5.73
2.73
0.60
-0.95
-2.48
-4.58
-7.56
-11.39
-15.66
-19.81
-23.31
-25.89
-27.65
-28.94
-30.39
-32.67
-36.36
-41.70
-48.29
-54.95
-59.84
-60.86
-56.45
-46.14
-30.88
-12.70
5.92
22.84
36.68
46.90
53.51
56.78
57.00
54.60
50.22
44.84
39.55
35.37
32.94
32.40
33.39
35.31
37.50
39.52
41.12
42.26
42.92
42.97
42.19
40.36
37.39
33.43
28.86
24.09
19.45
15.12
11.15
7.58
4.39
1.64
-0.70
-2.78
-4.87
-7.28
-10.17
-13.55
-17.18
-20.77
-24.04
-26.91
-29.52
-32.22
-35.46
-39.74
-45.41
-52.46
-60.33
-67.70
-72.70
-73.40
-68.39
-57.51
-42.00
-24.21
-6.81
7.98
18.99
26.10
29.88
31.05
30.11
27.34
22.99
17.60
12.04
7.42
4.67
4.27
6.07
9.44
13.54
17.60
21.17
24.04
26.20
27.60
28.12
27.68
26.31
24.19
21.65
18.98
16.37
13.80
11.19
8.50
5.81
3.25
0.90
-1.31
-3.62
-6.26
-9.31
-12.59
-15.72
-18.31
-20.18
-21.41
-22.36
-23.44
-24.99
-27.20
-30.23
-34.20
-39.12
-44.69
-50.00
-53.65
-54.03
-49.90
-41.04
-28.41
-13.96
0.02
11.66
19.93
24.77
26.71
26.45
24.49
21.12
16.61
11.35
6.00
1.39
-1.71
-2.86
-2.10
0.08
2.93
5.74
8.07
9.81
11.10
12.15
13.04
13.58
13.50
12.64
11.00
8.91
6.78
4.94
3.50
2.27
0.92
-0.86
-3.16
-5.83
-8.56
-10.97
-12.82
-14.13
-15.13
-16.23
-17.84
-20.29
-23.74
-28.09
-32.88
-37.26
-40.05
-39.95
-36.06
-28.19
-17.18
-4.65
7.47
17.57
24.83
29.25
31.31
31.50
29.98
26.70
21.68
15.33
8.56
2.58
-1.53
-3.21
-2.67
-0.67
1.83
4.03
5.55
6.40
6.75
6.74
6.28
5.08
2.92
-0.26
-4.18
-8.33
-12.23
-15.59
-18.48
-21.18
-23.97
-26.93
-29.95
-32.68
-34.93
-36.65
-38.11
-39.79
-42.21
-45.70
-50.14
-54.78
-58.30
-59.07
-55.73
-47.67
-35.45
-20.64
-5.44
8.10
18.59
25.53
29.15
29.98
28.58
25.33
20.56
14.70
8.43
2.58
-2.02
-4.78
-5.46
-4.22
-1.57
1.87
5.44
8.60
10.96
12.38
12.92
12.80
12.24
11.35
10.07
8.24
5.72
2.56
-1.00
-4.56
-7.76
-10.45
-12.80
-15.14
-17.84
-21.17
-25.27
-30.12
-35.48
-40.73
-44.79
-46.26
-43.76
-36.59
-25.14
-10.92
3.88
17.12
27.39
34.30
38.24
39.84
39.52
37.32
33.07
26.78
18.98
10.74
3.46
-1.54
-3.49
-2.43
0.84
5.04
8.89
11.63
13.19
14.00
14.59
15.16
15.45
14.84
12.76
9.07
4.21
-0.97
-5.67
-9.45
-12.46
-15.21
-18.26
-21.93
-26.19
-30.81
-35.56
-40.23
-44.50
-47.73
-48.87
-46.71
-40.45
-30.12
-16.81
-2.34
11.29
22.60
30.83
36.02
38.53
38.73
36.85
33.04
27.58
21.11
14.56
8.95
5.01
3.05
2.81
3.68
5.01
6.38
7.72
9.24
11.10
13.13
14.77
15.23
13.84
10.49
5.73
0.56
-3.99
-7.32
-9.51
-11.13
-12.90
-15.31
-18.47
-22.17
-26.27
-30.74
-35.62
-40.57
-44.65
-46.38
-44.18
-37.12
-25.52
-10.94
4.38
18.21
29.14
36.69
41.01
42.44
41.05
36.84
30.00
21.34
12.25
4.39
-0.91
-3.18
-2.91
-1.19
0.86
2.56
3.92
5.33
7.19
9.53
11.83
13.27
13.16
11.27
7.99
4.16
0.64
-2.02
-3.85
-5.31
-6.99
-9.34
-12.43
-16.10
-20.15
-24.48
-29.05
-33.59
-37.40
-39.30
-38.09
-32.94
-23.95
-12.17
0.63
12.56
22.11
28.41
31.26
30.89
27.81
22.68
16.28
9.48
3.09
-2.29
-6.36
-9.09
-10.66
-11.21
-10.88
-9.69
-7.71
-5.19
-2.60
-0.57
0.30
-0.41
-2.73
-6.33
-10.59
-14.80
-18.44
-21.32
-23.61
-25.71
-28.10
-31.22
-35.37
-40.61
-46.61
-52.50
-56.85
-57.97
-54.39
-45.53
-32.06
-15.83
0.67
15.08
25.84
32.41
35.02
34.22
30.58
24.61
16.97
8.53
0.48
-6.07
-10.33
-12.13
-11.87
-10.25
-7.96
-5.41
-2.76
-0.12
2.27
3.87
4.05
2.32
-1.42
-6.65
-12.53
-18.10
-22.70
-26.31
-29.46
-33.11
-38.25
-45.53
-54.86
-65.13
-74.34
-79.93
-79.67
-72.35
-58.38
-39.76
-19.39
-0.11
16.17
28.84
38.32
45.55
51.38
56.27
60.38
63.80
66.58
68.78
70.30
70.90
70.31
68.47
65.65
62.37
59.25
56.67
54.50
52.14
48.74
43.60
36.47
27.71
18.15
8.82
0.46
-6.69
-12.91
-18.79
-24.94
-31.75
-39.37
-47.78
-56.70
-65.47
-72.81
-76.89
-75.79
-68.14
-53.85
-34.39
-12.50
8.60
26.16
38.54
45.43
47.46
45.74
41.38
35.29
28.15
20.55
13.17
6.72
1.95
-0.60
-0.77
1.18
4.62
8.74
12.83
16.32
18.80
19.94
19.39
16.95
12.61
6.68
-0.20
-7.25
-13.78
-19.38
-23.94
-27.61
-30.77
-33.89
-37.60
-42.46
-48.80
-56.28
-63.79
-69.40
-70.88
-66.44
-55.40
-38.59
-18.16
3.06
22.44
38.19
49.71
57.19
61.23
62.27
60.46
55.93
49.13
41.11
33.45
27.84
25.46
26.56
30.39
35.53
40.49
44.21
46.24
46.73
46.11
44.71
42.69
39.94
36.34
31.82
26.51
20.69
14.70
8.84
3.25
-2.01
-6.98
-11.71
-16.21
-20.54
-24.90
-29.63
-35.06
-41.23
-47.56
-52.79
-55.21
-53.24
-46.01
-33.76
-17.89
-0.46
16.32
30.71
41.64
48.69
51.89
51.53
48.09
42.24
34.92
27.33
20.74
16.30
14.65
15.77
18.90
22.85
26.31
28.33
28.59
27.36
25.27
22.93
20.57
17.97
14.67
10.20
4.49
-2.06
-8.77
-14.92
-20.18
-24.65
-28.80
-33.22
-38.34
-44.33
-51.11
-58.43
-65.74
-72.15
-76.27
-76.53
-71.58
-60.91
-45.21
-26.25
-6.42
11.98
27.34
38.89
46.49
50.36
50.74
47.98
42.64
35.67
28.46
22.45
18.83
18.15
20.14
23.82
27.99
31.64
34.28
35.90
36.78
37.09
36.66
35.04
31.70
26.41
19.43
11.52
3.64
-3.40
-9.21
-13.94
-18.13
-22.48
-27.67
-34.17
-42.05
-50.88
-59.58
-66.44
-69.46
-66.92
-58.07
-43.45
-24.87
-4.77
14.50
31.25
44.61
54.22
59.96
61.74
59.57
53.92
45.81
36.82
28.67
22.75
19.76
19.57
21.41
24.24
27.11
29.49
31.24
32.42
33.11
33.16
32.21
29.81
25.68
19.96
13.21
6.23
-0.19
-5.63
-10.16
-14.29
-18.75
-24.13
-30.75
-38.63
-47.48
-56.77
-65.64
-72.88
-77.03
-76.75
-71.35
-61.17
-47.61
-32.65
-18.34
-6.13
3.22
9.43
12.37
11.72
7.05
-1.75
-13.99
-27.86
-40.50
-48.64
-49.57
-42.12
-27.25
-7.83
12.28
29.56
41.98
49.37
53.02
54.67
55.52
55.80
54.91
52.11
47.17
40.62
33.53
27.03
21.73
17.58
13.96
10.14
5.65
0.42
-5.33
-11.40
-17.64
-23.93
-29.79
-34.24
-35.90
-33.39
-25.97
-13.99
1.17
17.46
32.80
45.55
54.78
60.13
61.63
59.56
54.45
47.09
38.58
30.11
22.80
17.47
14.44
13.59
14.42
16.26
18.46
20.60
22.45
23.93
24.93
25.21
24.44
22.32
18.81
14.20
9.03
3.89
-0.87
-5.24
-9.42
-13.64
-17.94
-22.13
-26.00
-29.58
-33.26
-37.58
-42.72
-48.05
-52.02
-52.58
-48.10
-38.03
-23.46
-6.61
9.92
24.07
34.86
42.31
46.97
49.39
49.75
48.05
44.38
39.28
33.74
29.01
26.16
25.85
28.04
32.14
37.29
42.69
47.80
52.43
56.63
60.53
64.14
67.31
69.84
71.65
72.89
74.01
75.63
78.30
82.13
86.76
91.46
95.46
98.45
100.82
103.55
107.70
113.60
120.51
126.74
130.28
129.61
124.08
113.81
99.43
81.85
62.19
41.82
22.06
3.76
-13.06
-29.15
-45.47
-62.49
-79.74
-96.01
-109.91
-120.55
-127.85
-132.38
-134.90
-136.14
-136.75
-137.39
-138.76
-141.31
-145.09
-149.60
-154.01
-157.45
-159.37
-159.60
-158.45
-156.62
-154.96
-154.34
-155.21
-157.26
-159.33
-159.56
-155.90
-146.82
-131.83
-111.66
-88.10
-63.39
-39.65
-18.44
-0.66
13.25
23.09
28.78
30.49
28.78
24.63
19.30
14.02
9.64
6.51
4.57
3.60
3.34
3.60
4.14
4.58
4.45
3.26
0.81
-2.69
-6.76
-10.78
-14.31
-17.25
-19.77
-22.13
-24.52
-26.97
-29.50
-32.22
-35.26
-38.50
-41.30
-42.37
-40.12
-33.25
-21.42
-5.60
12.15
29.35
43.87
54.39
60.57
62.71
61.43
57.41
51.34
44.11
36.76
30.29
25.42
22.39
20.98
20.70
21.12
21.95
23.08
24.41
25.71
26.56
26.54
25.34
23.00
19.88
16.56
13.60
11.31
9.66
8.17
6.09
2.55
-3.15
-11.11
-20.64
-30.17
-37.55
-40.59
-37.86
-29.14
-15.67
0.36
16.48
30.70
41.95
50.00
55.05
57.30
56.77
53.54
48.01
41.15
34.25
28.57
24.78
22.82
22.00
21.45
20.59
19.25
17.67
16.13
14.67
12.98
10.56
7.04
2.44
-2.71
-7.58
-11.38
-13.69
-14.68
-15.08
-15.84
-17.88
-21.83
-27.87
-35.74
-44.54
-52.74
-58.25
-58.94
-53.22
-40.80
-22.97
-2.38
17.75
34.62
46.55
53.19
55.19
53.67
49.76
44.39
38.34
32.28
26.83
22.45
19.39
17.62
16.87
16.71
16.73
16.61
16.19
15.48
14.53
13.27
11.48
8.76
4.73
-0.77
-7.48
-14.82
-21.96
-28.21
-33.27
-37.30
-40.86
-44.66
-49.30
-54.96
-61.24
-67.02
-70.67
-70.39
-64.81
-53.60
-37.64
-18.90
0.18
17.40
31.31
41.30
47.48
50.23
49.98
47.21
42.55
36.89
31.25
26.61
23.61
22.42
22.83
24.32
26.33
28.36
30.05
31.15
31.50
30.92
29.29
26.48
22.42
17.25
11.21
4.74
-1.61
-7.37
-12.26
-16.37
-20.20
-24.56
-30.36
-38.12
-47.55
-57.22
-64.86
-67.93
-64.69
-54.81
-39.74
-22.12
-4.87
9.75
20.69
27.96
32.02
33.28
31.84
27.72
21.31
13.57
5.93
-0.23
-4.04
-5.43
-4.99
-3.60
-1.98
-0.41
1.14
2.85
4.62
6.01
6.39
5.18
2.16
-2.31
-7.49
-12.51
-16.85
-20.47
-23.84
-27.58
-32.29
-38.31
-45.56
-53.48
-60.92
-66.24
-67.57
-63.35
-52.96
-37.19
-18.08
1.62
19.31
33.22
42.73
48.00
49.63
48.24
44.40
38.75
32.11
25.47
19.79
15.77
13.65
13.19
13.84
14.96
16.09
16.99
17.59
17.85
17.61
16.55
14.33
10.78
6.05
0.64
-4.70
-9.38
-13.11
-16.11
-18.99
-22.58
-27.57
-34.34
-42.68
-51.65
-59.67
-64.73
-64.92
-59.05
-47.20
-30.77
-12.12
6.08
21.61
33.17
40.39
43.60
43.40
40.45
35.41
29.04
22.22
15.90
10.94
7.84
6.68
7.12
8.51
10.15
11.45
12.14
12.25
12.00
11.62
11.21
10.59
9.42
7.30
4.07
-0.11
-4.77
-9.28
-13.08
-15.97
-18.23
-20.50
-23.69
-28.60
-35.54
-44.07
-52.78
-59.53
-61.97
-58.38
-48.29
-32.83
-14.34
4.28
20.60
33.10
41.38
45.83
47.20
46.20
43.35
38.97
33.39
27.00
20.49
14.79
11.08
10.37
13.16
19.03
26.65
34.12
39.73
42.46
42.34
40.20
37.09
33.71
30.20
26.11
20.96
14.64
7.60
0.73
-5.11
-9.50
-12.64
-15.32
-18.51
-22.89
-28.60
-35.33
-42.44
-49.23
-54.91
-58.63
-59.35
-56.04
-48.05
-35.42
-19.22
-1.35
15.93
30.47
40.81
46.37
47.36
44.63
39.28
32.47
25.26
18.51
12.91
8.94
6.89
6.79
8.38
11.06
14.10
16.75
18.55
19.32
19.23
18.58
17.63
16.49
15.10
13.27
10.82
7.69
3.92
-0.30
-4.67
-8.85
-12.53
-15.54
-17.99
-20.24
-22.87
-26.53
-31.63
-38.08
-45.09
-51.18
-54.48
-53.37
-46.98
-35.64
-20.80
-4.55
10.97
24.16
34.17
40.78
44.09
44.27
41.54
36.23
29.01
20.90
13.19
7.04
3.24
1.95
2.71
4.69
7.03
9.09
10.63
11.68
12.42
12.89
12.97
12.40
10.98
8.66
5.57
1.98
-1.82
-5.54
-8.97
-11.92
-14.28
-16.12
-17.69
-19.49
-22.11
-26.07
-31.48
-37.90
-44.20
-48.83
-50.11
-46.82
-38.54
-25.86
-10.38
5.87
20.89
33.17
41.88
46.81
48.11
46.13
41.35
34.43
26.23
17.82
10.25
4.35
0.60
-1.01
-0.87
0.39
2.12
3.88
5.45
6.88
8.24
9.52
10.43
10.51
9.30
6.58
2.60
-2.06
-6.61
-10.45
-13.36
-15.54
-17.48
-19.81
-23.06
-27.58
-33.44
-40.25
-47.06
-52.41
-54.61
-52.24
-44.65
-32.34
-16.87
-0.46
14.66
26.80
35.10
39.43
40.19
38.01
33.50
27.34
20.24
13.07
6.77
2.15
-0.31
-0.69
0.43
2.23
3.96
5.23
6.05
6.60
6.96
6.90
5.98
3.75
0.13
-4.50
-9.42
-13.91
-17.52
-20.23
-22.45
-24.85
-28.12
-32.80
-39.03
-46.36
-53.61
-58.95
-60.42
-56.48
-46.72
-32.06
-14.55
3.23
18.98
31.20
39.25
43.19
43.43
40.50
35.02
27.76
19.66
11.76
4.97
-0.13
-3.32
-4.75
-4.74
-3.67
-1.95
-0.02
1.65
2.64
2.60
1.38
-0.99
-4.24
-8.08
-12.22
-16.45
-20.68
-24.89
-29.13
-33.53
-38.46
-44.37
-51.59
-59.92
-68.23
-74.52
-76.42
-71.97
-60.59
-43.39
-22.90
-2.26
15.80
29.63
38.71
43.37
44.24
41.97
37.15
30.50
22.88
15.28
8.68
3.75
0.82
-0.10
0.72
2.85
5.82
9.07
12.04
14.19
15.07
14.37
12.04
8.23
3.36
-2.04
-7.41
-12.38
-16.86
-21.19
-26.08
-32.32
-40.29
-49.50
-58.39
-64.60
-65.68
-59.97
-47.32
-29.22
-8.27
12.56
30.87
45.10
54.73
59.80
60.76
58.20
52.99
46.17
39.00
32.57
27.70
24.73
23.55
23.82
25.08
26.87
28.75
30.22
30.75
29.93
27.59
23.84
19.03
13.58
7.79
1.76
-4.51
-10.98
-17.50
-23.92
-30.24
-36.76
-43.79
-51.37
-58.65
-63.90
-64.85
-59.65
-47.70
-30.17
-9.67
10.64
28.05
41.01
49.14
52.87
52.92
49.94
44.55
37.44
29.59
22.16
16.25
12.61
11.44
12.42
14.83
17.86
20.78
23.14
24.70
25.31
24.84
23.13
20.13
15.91
10.84
5.37
0.03
-4.86
-9.17
-13.09
-16.99
-21.36
-26.70
-33.26
-40.76
-48.17
-53.75
-55.45
-51.66
-41.81
-26.77
-8.69
9.72
25.89
38.16
45.89
49.34
49.18
46.14
40.89
34.09
26.58
19.44
13.82
10.59
10.11
12.00
15.33
18.98
21.99
23.89
24.62
24.47
23.69
22.42
20.60
18.07
14.77
10.78
6.41
2.06
-1.91
-5.36
-8.43
-11.50
-15.14
-19.81
-25.66
-32.22
-38.37
-42.45
-42.68
-37.80
-27.61
-13.17
3.50
20.01
34.35
45.29
52.38
55.70
55.42
51.75
45.03
36.14
26.41
17.54
11.06
7.80
7.75
10.04
13.36
16.44
18.39
18.84
17.91
15.97
13.42
10.50
7.25
3.63
-0.42
-4.79
-9.24
-13.48
-17.25
-20.54
-23.56
-26.70
-30.45
-35.26
-41.32
-48.27
-55.10
-60.07
-61.19
-56.82
-46.38
-30.72
-11.97
7.09
23.97
36.99
45.57
49.80
49.99
46.51
39.78
30.59
20.31
10.76
3.66
0.12
0.11
2.65
6.27
9.64
12.13
13.79
15.08
16.28
17.15
16.97
14.88
10.46
4.01
-3.45
-10.65
-16.59
-21.07
-24.54
-27.95
-32.22
-37.95
-45.22
-53.59
-62.07
-69.30
-73.62
-73.37
-67.45
-55.72
-39.22
-20.05
-0.67
16.58
30.12
39.20
43.71
44.04
40.78
34.78
27.15
19.21
12.36
7.68
5.71
6.23
8.40
11.09
13.39
14.83
15.54
15.97
16.51
17.08
17.10
15.69
12.16
6.41
-0.92
-8.66
-15.62
-21.08
-25.07
-28.26
-31.65
-36.17
-42.29
-49.86
-58.08
-65.53
-70.39
-70.86
-65.64
-54.48
-38.39
-19.52
-0.51
16.26
29.27
37.99
42.70
43.89
41.94
37.17
30.03
21.53
13.20
6.78
3.63
4.13
7.57
12.42
17.04
20.27
21.87
22.32
22.41
22.67
23.01
22.81
21.26
17.86
12.65
6.20
-0.65
-7.14
-12.83
-17.67
-21.89
-25.75
-29.54
-33.44
-37.70
-42.58
-48.28
-54.57
-60.52
-64.51
-64.52
-58.91
-47.11
-30.08
-10.09
9.95
27.45
40.82
49.59
54.20
55.38
53.91
50.39
45.50
40.05
35.06
31.53
30.19
31.30
34.53
39.20
44.37
49.17
52.98
55.49
56.67
56.69
55.82
54.21
51.94
49.03
45.55
41.66
37.59
33.61
29.81
26.15
22.45
18.52
14.32
10.03
5.98
2.47
-0.37
-2.69
-4.91
-7.65
-11.41
-16.34
-21.99
-27.17
-30.22
-29.44
-23.78
-13.36
0.50
15.66
29.92
41.70
50.30
55.72
58.10
57.36
53.18
45.39
34.47
21.78
9.23
-1.33
-8.84
-13.32
-15.72
-17.34
-19.17
-21.53
-24.00
-25.85
-26.35
-25.21
-22.61
-19.16
-15.59
-12.54
-10.35
-9.03
-8.37
-8.10
-8.12
-8.53
-9.55
-11.33
-13.82
-16.73
-19.62
-22.14
-24.15
-25.81
-27.41
-29.17
-31.20
-33.51
-36.19
-39.50
-43.76
-49.01
-54.57
-58.95
-60.12
-56.20
-46.30
-31.11
-12.70
6.16
22.89
35.92
44.80
49.83
51.62
50.57
46.97
41.15
33.88
26.28
19.64
14.91
12.37
11.63
11.88
12.31
12.48
12.41
12.41
12.81
13.65
14.61
15.12
14.57
12.73
9.77
6.29
2.99
0.39
-1.35
-2.49
-3.53
-4.95
-7.06
-9.86
-13.14
-16.62
-20.00
-23.06
-25.68
-27.86
-29.73
-31.64
-34.02
-37.32
-41.70
-46.87
-51.90
-55.38
-55.85
-52.23
-44.23
-32.45
-18.18
-3.02
11.54
24.29
34.36
41.16
44.38
44.02
40.53
34.84
28.12
21.60
16.17
12.31
10.13
9.48
10.15
11.85
14.23
16.82
19.04
20.32
20.29
18.87
16.28
12.95
9.25
5.47
1.60
-2.48
-6.93
-11.79
-16.87
-21.85
-26.46
-30.63
-34.59
-38.71
-43.30
-48.46
-54.01
-59.56
-64.66
-68.73
-71.05
-70.65
-66.58
-58.24
-45.84
-30.55
-14.29
0.91
13.46
22.64
28.53
31.64
32.45
31.23
28.09
23.26
17.33
11.27
6.21
3.04
2.11
3.07
5.08
7.21
8.78
9.63
10.06
10.49
11.20
12.12
12.82
12.81
11.74
9.58
6.63
3.40
0.35
-2.16
-4.03
-5.36
-6.38
-7.43
-8.91
-11.22
-14.65
-19.17
-24.19
-28.51
-30.47
-28.50
-21.75
-10.58
3.48
18.16
31.28
41.45
48.30
52.23
53.87
53.63
51.48
47.21
40.89
33.15
25.19
18.41
13.95
12.26
12.97
15.14
17.71
19.90
21.40
22.30
22.80
22.98
22.63
21.40
19.01
15.50
11.25
6.87
2.89
-0.50
-3.52
-6.71
-10.61
-15.53
-21.35
-27.72
-34.22
-40.44
-45.93
-49.95
-51.44
-49.14
-42.15
-30.44
-15.24
1.28
16.61
28.70
36.55
40.24
40.51
38.21
33.95
28.07
20.87
12.89
5.03
-1.60
-6.00
-7.65
-6.65
-3.77
-0.12
3.21
5.52
6.61
6.74
6.23
5.22
3.50
0.72
-3.38
-8.57
-14.16
-19.25
-23.14
-25.65
-27.22
-28.60
-30.59
-33.70
-38.11
-43.61
-49.64
-55.19
-58.86
-59.12
-54.81
-45.66
-32.58
-17.45
-2.48
10.50
20.53
27.47
31.63
33.26
32.44
29.13
23.59
16.61
9.44
3.43
-0.42
-1.83
-1.23
0.47
2.39
3.98
5.26
6.63
8.52
10.94
13.29
14.38
13.08
8.81
1.92
-6.27
-14.05
-20.08
-23.98
-26.59
-29.46
-34.12
-41.36
-50.86
-61.20
-70.44
-76.63
-78.39
-75.18
-67.27
-55.62
-41.59
-26.73
-12.51
-0.24
9.06
14.88
17.21
16.61
14.14
11.06
8.48
7.15
7.21
8.30
9.86
11.43
12.84
14.27
16.01
18.30
20.97
23.51
25.08
24.89
22.51
18.08
12.30
6.16
0.54
-4.10
-7.81
-11.02
-14.31
-18.16
-22.94
-28.78
-35.47
-42.38
-48.30
-51.66
-50.92
-45.11
-34.26
-19.52
-2.84
13.57
27.77
38.37
44.72
46.72
44.82
39.94
33.29
26.20
19.82
14.94
11.84
10.42
10.39
11.38
13.08
15.20
17.48
19.68
21.57
22.95
23.52
23.05
21.31
18.26
14.10
9.23
4.19
-0.61
-4.99
-9.06
-13.12
-17.60
-22.88
-29.16
-36.28
-43.49
-49.46
-52.44
-50.79
-43.65
-31.39
-15.69
0.99
16.11
27.84
35.34
38.75
38.65
35.76
30.72
24.16
16.89
9.98
4.57
1.52
1.17
3.15
6.63
10.62
14.36
17.48
20.02
22.15
23.96
25.33
25.94
25.53
24.04
21.67
18.87
16.12
13.71
11.62
9.55
7.00
3.40
-1.57
-7.88
-14.94
-21.56
-26.20
-27.33
-23.87
-15.68
-3.54
10.96
25.88
39.36
49.98
56.88
59.77
58.80
54.43
47.38
38.43
28.49
18.50
9.45
2.30
-2.23
-3.84
-2.86
-0.13
3.20
6.09
7.94
8.62
8.23
6.84
4.32
0.41
-4.92
-11.36
-18.19
-24.63
-30.23
-35.06
-39.77
-45.19
-51.94
-59.92
-68.23
-75.23
-78.98
-77.89
-71.18
-59.15
-43.18
-25.20
-7.27
8.92
22.22
31.93
37.76
39.71
38.12
33.84
28.12
22.39
18.00
15.82
16.19
18.91
23.37
28.70
33.97
38.23
40.68
40.74
38.24
33.40
26.81
19.34
11.83
4.97
-0.84
-5.62
-9.67
-13.51
-17.70
-22.77
-29.08
-36.68
-45.01
-52.81
-58.17
-59.00
-53.78
-42.28
-25.84
-7.08
10.94
25.74
36.02
41.74
43.66
42.65
39.35
34.15
27.46
20.08
13.14
7.88
5.09
4.87
6.50
8.84
10.84
11.98
12.33
12.33
12.31
12.15
11.23
8.72
4.06
-2.67
-10.66
-18.70
-25.62
-30.75
-34.15
-36.58
-39.23
-43.21
-49.11
-56.50
-63.86
-68.84
-69.01
-62.70
-49.85
-32.02
-12.06
7.00
22.92
34.78
42.86
48.00
50.85
51.58
49.92
45.75
39.54
32.50
26.34
22.59
22.05
24.43
28.49
32.54
35.13
35.60
34.21
31.95
29.84
28.47
27.52
26.04
22.94
17.62
10.40
2.43
-4.90
-10.58
-14.46
-17.24
-20.03
-23.80
-28.90
-35.11
-41.86
-48.55
-54.56
-59.18
-61.39
-59.94
-53.73
-42.40
-26.74
-8.61
9.49
25.27
37.14
44.48
47.40
46.47
42.37
35.90
28.02
19.90
12.84
7.87
5.54
5.78
7.99
11.36
15.18
19.02
22.65
25.91
28.49
29.95
29.85
28.03
24.79
20.84
17.00
13.82
11.29
8.92
5.98
1.99
-3.05
-8.62
-13.94
-18.29
-21.36
-23.31
-24.73
-26.42
-29.10
-33.29
-38.95
-45.33
-50.89
-53.72
-52.00
-44.79
-32.48
-16.74
-0.01
15.29
27.49
35.89
40.57
42.02
40.68
36.83
30.79
23.13
14.83
7.23
1.59
-1.14
-0.68
2.52
7.50
13.00
17.91
21.54
23.72
24.66
24.65
23.87
22.21
19.39
15.19
9.70
3.42
-2.86
-8.38
-12.74
-16.02
-18.77
-21.66
-25.12
-29.26
-33.86
-38.62
-43.38
-48.15
-52.92
-57.27
-60.21
-60.36
-56.42
-47.80
-35.05
-19.85
-4.51
8.76
18.46
24.06
25.84
24.45
20.63
14.97
8.02
0.40
-6.99
-13.12
-17.06
-18.26
-16.86
-13.63
-9.82
-6.58
-4.69
-4.21
-4.63
-5.29
-5.75
-6.13
-7.04
-9.17
-12.83
-17.71
-22.92
-27.47
-30.66
-32.42
-33.26
-33.95
-35.16
-37.29
-40.49
-44.81
-50.07
-55.69
-60.45
-62.59
-60.33
-52.54
-39.36
-22.27
-3.68
13.89
28.57
39.41
46.37
49.73
49.91
47.21
42.01
35.02
27.33
20.31
15.20
12.81
13.17
15.57
18.85
21.83
23.79
24.66
24.88
24.99
25.32
25.61
25.24
23.55
20.21
15.52
10.21
5.13
0.83
-2.74
-6.06
-9.74
-14.11
-18.97
-23.86
-28.33
-32.39
-36.52
-41.28
-46.62
-51.54
-54.12
-52.27
-44.69
-31.61
-14.81
2.97
19.05
31.65
40.19
45.06
46.95
46.46
43.84
39.25
33.08
26.12
19.51
14.43
11.78
11.89
14.41
18.57
23.38
27.87
31.38
33.63
34.60
34.57
33.86
32.73
31.30
29.48
27.04
23.84
19.98
15.75
11.70
8.25
5.57
3.41
1.25
-1.48
-5.10
-9.69
-15.02
-20.64
-25.89
-29.85
-31.51
-29.89
-24.38
-15.05
-2.80
10.91
24.38
36.15
45.22
51.12
53.68
52.94
49.09
42.55
34.13
24.93
16.24
9.18
4.49
2.28
2.10
3.13
4.49
5.58
6.16
6.33
6.31
6.22
5.88
4.85
2.66
-0.93
-5.61
-10.66
-15.11
-18.12
-19.44
-19.46
-19.08
-19.34
-20.98
-24.27
-28.97
-34.34
-39.31
-42.63
-43.06
-39.59
-31.80
-20.01
-5.38
10.33
25.24
37.72
46.70
51.74
52.90
50.58
45.43
38.33
30.26
22.20
14.94
8.93
4.35
1.16
-0.74
-1.47
-1.10
0.13
1.87
3.59
4.73
4.85
3.68
1.22
-2.31
-6.56
-11.13
-15.62
-19.71
-23.25
-26.19
-28.68
-31.04
-33.70
-37.17
-41.83
-47.64
-53.86
-59.08
-61.41
-59.22
-51.71
-39.40
-24.00
-7.87
6.80
18.54
26.83
31.83
33.93
33.38
30.38
25.16
18.42
11.23
4.83
0.26
-1.98
-2.10
-0.75
1.28
3.37
5.23
6.84
8.28
9.48
10.20
10.06
8.76
6.22
2.72
-1.23
-5.07
-8.40
-11.10
-13.37
-15.60
-18.23
-21.65
-26.07
-31.40
-37.03
-41.83
-44.25
-42.77
-36.52
-25.71
-11.71
3.33
17.22
28.35
35.97
40.10
41.14
39.50
35.49
29.45
21.97
13.98
6.57
0.78
-2.75
-3.91
-3.06
-0.88
1.89
4.65
7.01
8.77
9.80
10.02
9.38
7.87
5.61
2.87
-0.03
-2.69
-4.88
-6.54
-7.87
-9.34
-11.58
-15.13
-20.14
-26.05
-31.52
-34.67
-33.69
-27.58
-16.69
-2.64
12.17
25.39
35.47
41.90
44.93
45.15
43.04
38.80
32.55
24.63
15.77
7.06
-0.29
-5.33
-7.66
-7.45
-5.45
-2.64
0.02
1.84
2.49
1.89
0.12
-2.68
-6.30
-10.41
-14.59
-18.37
-21.45
-23.86
-26.03
-28.76
-32.81
-38.51
-45.42
-52.08
-56.38
-56.20
-50.15
-38.22
-21.85
-3.57
13.78
27.89
37.48
42.36
43.04
40.39
35.22
28.23
20.05
11.39
3.09
-3.98
-9.08
-11.84
-12.30
-10.95
-8.69
-6.49
-5.21
-5.42
-7.25
-10.47
-14.63
-19.19
-23.75
-28.11
-32.33
-36.62
-41.29
-46.68
-53.04
-60.40
-68.25
-75.41
-80.10
-80.29
-74.41
-62.10
-44.44
-23.79
-3.10
14.95
28.63
37.32
41.30
41.29
38.04
32.34
24.96
16.82
8.98
2.50
-1.77
-3.37
-2.37
0.60
4.60
8.55
11.48
12.81
12.39
10.39
7.15
3.02
-1.76
-7.05
-12.69
-18.53
-24.45
-30.50
-36.93
-44.12
-52.06
-60.04
-66.53
-69.41
-66.74
-57.55
-42.41
-23.22
-2.78
16.26
31.94
43.25
49.98
52.24
50.43
45.09
37.16
28.03
19.32
12.40
8.11
6.45
6.80
8.27
10.12
11.93
13.57
15.02
16.02
16.19
14.99
12.10
7.53
1.79
-4.35
-10.09
-14.96
-19.05
-22.95
-27.60
-33.82
-41.91
-51.26
-60.27
-66.64
-67.96
-62.57
-50.10
-31.75
-9.92
12.54
33.03
49.80
61.91
69.01
71.09
68.42
61.65
52.04
41.38
31.57
24.19
20.05
19.05
20.41
23.01
25.76
27.87
28.93
28.85
27.73
25.63
22.56
18.37
12.87
5.93
-2.35
-11.58
-21.19
-30.52
-39.08
-46.69
-53.50
-59.88
-66.34
-73.32
-81.16
-89.91
-99.21
-108.08
-115.10
-118.54
-116.94
-109.71
-97.40
-81.62
-64.47
-47.86
-32.98
-20.23
-9.50
-0.61
6.34
11.01
13.21
13.19
11.78
10.24
9.81
11.32
15.03
20.54
27.12
33.97
40.36
45.78
49.91
52.63
54.03
54.31
53.80
52.82
51.46
49.63
47.11
43.72
39.51
34.77
29.88
25.17
20.70
16.33
11.98
7.65
3.54
-0.29
-4.05
-8.30
-13.58
-19.89
-26.21
-30.56
-30.63
-24.71
-12.53
4.52
23.82
42.45
58.01
69.17
75.67
77.89
76.41
71.81
64.65
55.66
45.91
36.76
29.61
25.61
25.25
28.23
33.50
39.60
45.05
48.79
50.43
50.19
48.72
46.72
44.64
42.50
39.98
36.62
32.20
26.84
21.07
15.51
10.65
6.60
3.12
-0.24
-3.87
-8.01
-12.69
-17.90
-23.54
-29.30
-34.43
-37.66
-37.34
-32.06
-21.17
-5.24
13.92
33.80
51.86
66.17
75.78
80.51
80.70
76.94
70.00
60.88
50.86
41.46
34.12
29.82
28.86
30.78
34.60
39.17
43.49
46.87
48.97
49.65
48.90
46.82
43.56
39.32
34.23
28.35
21.66
14.26
6.46
-1.16
-7.88
-13.15
-16.91
-19.71
-22.76
-27.60
-35.71
-47.94
-63.96
-82.01
-99.05
-111.53
-116.36
-112.06
-99.17
-79.99
-57.74
-35.41
-15.08
2.17
15.91
25.81
31.42
32.33
28.70
21.60
13.05
5.55
1.26
1.27
5.31
12.00
19.47
26.11
31.05
34.15
35.77
36.27
35.80
34.28
31.58
27.67
22.66
16.75
10.25
3.40
-3.52
-10.23
-16.50
-22.20
-27.41
-32.32
-37.32
-42.85
-49.33
-56.85
-64.88
-72.08
-76.39
-75.62
-68.24
-54.13
-34.80
-13.00
8.13
26.02
39.27
47.62
51.55
51.72
48.72
43.05
35.43
26.96
19.05
13.16
10.29
10.66
13.63
18.00
22.42
25.93
28.10
29.05
29.11
28.64
27.71
26.15
23.61
19.78
14.50
7.92
0.47
-7.21
-14.46
-20.81
-26.13
-30.72
-35.10
-39.80
-45.21
-51.54
-58.77
-66.64
-74.45
-80.92
-84.27
-82.59
-74.57
-60.10
-40.59
-18.66
2.57
20.38
33.00
39.79
40.97
37.32
29.87
19.83
8.49
-2.86
-13.11
-21.52
-27.78
-32.09
-34.92
-36.75
-37.84
-38.01
-36.53
-32.31
-24.17
-11.40
5.77
25.87
46.38
64.27
76.90
82.67
81.47
74.47
63.62
50.91
37.87
25.44
14.02
3.80
-5.15
-12.92
-19.82
-26.43
-33.30
-40.52
-47.27
-51.76
-51.73
-45.32
-31.99
-12.98
8.96
30.39
48.27
60.74
67.41
69.00
66.74
61.82
55.20
47.67
40.02
33.21
28.16
25.55
25.53
27.60
30.85
34.32
37.34
39.67
41.39
42.57
43.08
42.54
40.54
36.95
32.09
26.63
21.30
16.49
12.13
7.72
2.70
-3.18
-9.69
-16.18
-21.89
-26.41
-29.81
-32.73
-36.06
-40.64
-46.96
-54.80
-63.29
-70.89
-75.65
-75.80
-70.19
-58.87
-43.06
-24.97
-7.05
8.58
20.63
28.71
33.01
34.00
32.19
28.11
22.46
16.15
10.27
5.82
3.48
3.43
5.31
8.46
12.11
15.70
18.92
21.70
24.07
25.91
26.94
26.78
25.16
22.14
18.18
14.01
10.30
7.36
5.07
2.88
0.21
-3.30
-7.56
-12.08
-16.22
-19.42
-21.56
-22.98
-24.41
-26.74
-30.64
-36.25
-42.91
-49.25
-53.43
-53.69
-48.91
-39.09
-25.35
-9.65
5.80
19.16
29.25
35.67
38.51
38.11
34.93
29.51
22.63
15.31
8.64
3.60
0.80
0.39
2.15
5.64
10.30
15.56
20.82
25.51
29.14
31.38
32.15
31.57
29.85
27.29
24.12
20.58
16.89
13.24
9.71
6.32
2.97
-0.44
-3.98
-7.58
-11.12
-14.47
-17.68
-21.01
-24.89
-29.71
-35.49
-41.55
-46.49
-48.51
-46.01
-38.32
-26.09
-11.14
4.08
17.39
27.48
33.99
37.30
37.91
36.11
31.98
25.62
17.51
8.68
0.57
-5.43
-8.41
-8.31
-5.84
-2.24
1.27
3.86
5.35
6.05
6.45
6.80
7.00
6.55
4.93
1.88
-2.43
-7.46
-12.48
-16.95
-20.60
-23.59
-26.32
-29.18
-32.44
-36.10
-40.11
-44.36
-48.74
-52.97
-56.37
-57.86
-56.11
-50.10
-39.71
-25.95
-10.72
3.78
15.86
24.71
30.39
33.36
33.97
32.31
28.34
22.32
15.02
7.68
1.68
-1.99
-3.08
-2.03
0.30
3.05
5.65
7.93
9.91
11.61
12.75
12.90
11.62
8.77
4.61
-0.26
-5.18
-9.58
-13.30
-16.44
-19.24
-21.86
-24.42
-26.97
-29.73
-32.97
-37.02
-41.79
-46.56
-49.95
-50.23
-46.06
-37.06
-24.13
-9.22
5.38
17.78
27.01
33.00
36.20
37.06
35.78
32.33
26.81
19.77
12.23
5.50
0.73
-1.47
-1.20
0.86
3.74
6.53
8.72
10.17
11.06
11.59
11.84
11.60
10.56
8.40
5.09
0.91
-3.54
-7.60
-10.80
-13.04
-14.60
-16.04
-18.00
-20.99
-25.24
-30.65
-36.66
-42.26
-46.18
-47.10
-44.04
-36.75
-25.82
-12.57
1.32
14.27
25.08
33.07
37.93
39.57
38.06
33.70
27.17
19.52
12.02
5.83
1.76
-0.01
0.23
1.85
4.15
6.56
8.73
10.52
11.86
12.73
13.01
12.56
11.24
8.99
5.89
2.22
-1.67
-5.43
-8.87
-12.01
-14.96
-17.91
-21.06
-24.61
-28.75
-33.47
-38.39
-42.57
-44.58
-42.96
-36.81
-26.30
-12.75
1.76
15.05
25.58
32.63
36.23
36.71
34.43
29.69
22.97
15.08
7.15
0.48
-3.97
-5.80
-5.29
-3.25
-0.61
1.89
3.84
5.17
5.98
6.30
6.02
4.88
2.70
-0.55
-4.54
-8.73
-12.57
-15.68
-18.07
-20.11
-22.35
-25.37
-29.52
-34.71
-40.34
-45.26
-48.00
-47.16
-41.84
-32.10
-18.96
-4.21
10.14
22.43
31.68
37.58
40.27
39.97
36.93
31.45
24.11
15.87
7.94
1.52
-2.59
-4.18
-3.65
-1.74
0.75
3.27
5.55
7.49
8.93
9.58
9.07
7.15
3.87
-0.34
-4.95
-9.47
-13.69
-17.76
-21.96
-26.60
-31.88
-37.84
-44.26
-50.58
-55.73
-58.24
-56.65
-50.01
-38.39
-23.06
-6.17
9.88
23.14
32.50
37.71
39.08
37.19
32.69
26.34
18.99
11.64
5.25
0.61
-1.90
-2.35
-1.15
1.11
3.83
6.51
8.76
10.23
10.67
9.89
7.84
4.68
0.75
-3.55
-7.78
-11.68
-15.16
-18.37
-21.71
-25.68
-30.76
-37.09
-44.19
-50.75
-54.89
-54.65
-48.74
-37.18
-21.37
-3.72
13.10
27.04
37.07
43.11
45.64
45.21
42.21
36.91
29.75
21.56
13.60
7.15
3.16
1.83
2.58
4.40
6.24
7.50
8.07
8.18
8.01
7.41
5.98
3.26
-0.85
-5.97
-11.35
-16.23
-20.21
-23.41
-26.44
-30.02
-34.74
-40.70
-47.47
-54.02
-58.81
-60.15
-56.57
-47.38
-33.03
-15.15
3.78
21.16
35.01
44.39
49.38
50.68
49.09
45.24
39.59
32.78
25.75
19.69
15.74
14.46
15.59
18.16
20.89
22.82
23.68
23.89
24.09
24.68
25.37
25.32
23.56
19.51
13.36
6.04
-1.17
-7.23
-11.72
-14.90
-17.54
-20.47
-24.36
-29.51
-35.74
-42.38
-48.26
-51.82
-51.55
-46.38
-36.17
-21.91
-5.41
11.23
26.16
38.11
46.44
50.85
51.37
48.21
41.97
33.80
25.21
17.77
12.66
10.37
10.71
13.02
16.46
20.22
23.69
26.33
27.75
27.69
26.15
23.33
19.70
15.81
12.11
8.79
5.77
2.75
-0.65
-4.68
-9.34
-14.32
-19.09
-23.09
-25.96
-27.70
-28.75
-29.81
-31.68
-35.03
-40.08
-46.44
-52.91
-57.70
-58.77
-54.59
-44.66
-29.90
-12.38
5.32
20.92
32.97
40.99
45.17
45.98
43.88
39.37
33.17
26.41
20.47
16.67
15.72
17.52
21.17
25.34
28.88
31.18
32.31
32.71
32.90
33.01
32.81
31.84
29.74
26.51
22.53
18.41
14.72
11.85
9.82
8.41
7.23
5.82
3.87
1.28
-1.84
-5.17
-8.27
-10.80
-12.57
-13.67
-14.42
-15.32
-17.01
-20.09
-24.99
-31.61
-39.12
-45.90
-49.85
-49.11
-42.72
-31.08
-15.90
0.43
15.59
27.91
36.62
41.58
42.96
41.00
36.05
28.76
20.21
11.75
4.71
0.06
-1.86
-1.30
1.08
4.48
8.08
11.22
13.42
14.44
14.22
12.88
10.56
7.38
3.42
-1.32
-6.69
-12.33
-17.73
-22.28
-25.62
-27.80
-29.26
-30.66
-32.50
-34.76
-36.80
-37.66
-36.50
-33.06
-27.93
-22.37
-17.74
-15.02
-14.46
-15.62
-17.76
-20.21
-22.51
-24.33
-25.13
-24.02
-19.98
-12.23
-0.83
13.16
27.85
41.02
50.80
56.18
57.07
54.18
48.69
41.80
34.53
27.64
21.67
17.04
14.08
12.93
13.47
15.25
17.53
19.57
21.18
22.94
26.17
32.29
42.04
54.92
69.20
82.51
92.81
98.99
101.00
99.28
94.15
85.50
73.20
57.73
40.70
24.85
13.14
7.66
8.72
14.69
22.62
29.28
32.22
30.32
23.81
13.99
2.72
-8.06
-16.64
-21.91
-23.62
-22.43
-19.79
-17.42
-16.77
-18.54
-22.59
-28.27
-34.81
-41.71
-48.74
-55.72
-62.22
-67.48
-70.56
-70.80
-68.16
-63.38
-57.66
-52.21
-47.72
-44.20
-41.10
-37.80
-33.97
-29.82
-26.02
-23.31
-22.14
-22.39
-23.47
-24.60
-25.20
-25.09
-24.55
-24.18
-24.63
-26.34
-29.44
-33.70
-38.47
-42.81
-45.54
-45.55
-42.06
-34.94
-24.78
-12.79
-0.52
10.55
19.27
24.93
27.24
26.24
22.25
15.83
7.80
-0.93
-9.38
-16.76
-22.58
-26.67
-29.15
-30.34
-30.65
-30.47
-30.13
-29.94
-30.13
-31.01
-32.79
-35.67
-39.73
-44.80
-50.53
-56.41
-61.97
-66.94
-71.29
-75.17
-78.89
-82.86
-87.53
-93.29
-100.26
-107.99
-115.26
-120.29
-121.25
-116.96
-107.45
-93.81
-77.72
-60.68
-43.53
-26.55
-9.90
5.92
19.99
31.30
39.31
44.22
46.96
48.75
50.59
53.03
56.14
59.74
63.61
67.64
71.81
76.09
80.45
84.73
88.63
91.79
93.89
94.76
94.52
93.49
92.04
90.44
88.63
86.31
82.99
78.32
72.20
64.94
57.26
50.24
45.04
42.71
43.80
48.18
55.05
63.05
70.71
76.74
80.22
80.72
78.14
72.68
64.77
55.06
44.37
33.67
23.88
15.70
9.52
5.38
3.00
1.98
1.88
2.29
2.91
3.54
3.89
3.74
2.88
1.17
-1.30
-4.31
-7.51
-10.56
-13.18
-15.28
-16.94
-18.43
-20.26
-22.96
-26.92
-32.11
-37.86
-42.85
-45.53
-44.55
-39.38
-30.55
-19.44
-7.85
2.56
10.70
16.10
18.76
18.92
16.87
12.85
7.24
0.59
-6.36
-12.79
-18.00
-21.60
-23.51
-23.95
-23.30
-21.89
-19.97
-17.61
-14.90
-12.03
-9.39
-7.51
-6.85
-7.66
-9.67
-12.35
-15.02
-17.16
-18.63
-19.69
-20.85
-22.62
-25.34
-28.98
-33.09
-36.83
-38.95
-38.20
-33.61
-25.04
-13.33
-0.24
12.13
22.00
28.39
31.33
31.44
29.54
26.16
21.57
15.95
9.66
3.38
-2.04
-5.82
-7.62
-7.57
-6.29
-4.54
-2.98
-1.91
-1.31
-0.92
-0.55
-0.19
-0.14
-0.77
-2.30
-4.61
-7.25
-9.63
-11.37
-12.41
-13.15
-14.25
-16.33
-19.73
-24.24
-29.09
-33.10
-34.88
-33.34
-27.98
-19.21
-8.18
3.42
13.94
22.10
27.30
29.48
29.01
26.44
22.40
17.48
12.21
7.03
2.31
-1.64
-4.53
-6.15
-6.36
-5.31
-3.33
-0.98
1.11
2.36
2.39
1.09
-1.44
-4.80
-8.53
-12.08
-15.02
-17.13
-18.54
-19.70
-21.26
-23.82
-27.68
-32.65
-37.83
-41.85
-43.16
-40.60
-33.83
-23.49
-11.04
1.72
13.18
22.29
28.55
31.88
32.36
30.17
25.61
19.20
11.85
4.64
-1.39
-5.56
-7.69
-8.03
-7.14
-5.62
-3.91
-2.25
-0.79
0.32
0.83
0.44
-1.02
-3.53
-6.79
-10.29
-13.58
-16.45
-19.12
-22.16
-26.24
-31.74
-38.38
-45.03
-49.99
-51.42
-48.06
-39.70
-27.35
-12.96
1.25
13.40
22.41
28.03
30.53
30.37
27.94
23.59
17.76
11.10
4.47
-1.22
-5.20
-7.06
-6.81
-4.82
-1.76
1.60
4.49
6.29
6.59
5.25
2.43
-1.52
-6.07
-10.75
-15.18
-19.25
-23.09
-27.11
-31.85
-37.77
-44.91
-52.71
-59.86
-64.64
-65.34
-60.81
-50.93
-36.65
-19.79
-2.58
12.87
25.03
33.12
37.10
37.51
35.21
31.21
26.44
21.73
17.73
14.97
13.73
14.06
15.75
18.43
21.63
24.95
28.14
30.96
33.24
34.68
34.96
33.86
31.34
27.71
23.51
19.44
16.06
13.68
12.11
10.75
8.65
4.88
-0.92
-8.16
-15.18
-19.65
-19.36
-13.14
-1.46
13.71
29.55
43.45
53.68
59.62
61.48
59.84
55.20
48.02
38.95
29.01
19.64
12.35
8.23
7.63
10.04
14.30
19.05
23.23
26.29
28.18
29.15
29.44
28.97
27.42
24.41
19.80
13.89
7.34
0.95
-4.66
-9.37
-13.41
-17.29
-21.44
-25.96
-30.68
-35.24
-39.35
-42.99
-46.42
-49.91
-53.46
-56.46
-57.71
-55.75
-49.51
-38.77
-24.53
-8.76
6.20
18.46
26.91
31.43
32.49
30.73
26.76
21.07
14.34
7.42
1.37
-2.84
-4.57
-3.75
-0.84
3.45
8.30
13.08
17.36
20.89
23.56
25.27
25.96
25.61
24.27
22.10
19.27
16.00
12.47
8.89
5.39
2.16
-0.72
-3.18
-5.35
-7.44
-9.73
-12.44
-15.57
-18.95
-22.34
-25.66
-29.05
-32.72
-36.70
-40.40
-42.71
-42.25
-37.99
-29.72
-18.32
-5.47
6.94
17.28
24.57
28.43
28.93
26.39
21.44
14.84
7.56
0.64
-5.06
-9.01
-11.02
-11.18
-9.77
-7.13
-3.59
0.49
4.68
8.44
11.25
12.67
12.56
11.14
9.00
6.82
5.10
3.98
3.14
2.13
0.54
-1.71
-4.37
-7.04
-9.42
-11.44
-13.28
-15.27
-17.70
-20.73
-24.43
-28.65
-33.01
-36.83
-39.11
-38.76
-34.87
-27.20
-16.27
-3.42
9.65
21.36
30.62
37.03
40.67
41.88
40.92
38.00
33.33
27.39
20.96
15.04
10.60
8.29
8.27
10.24
13.57
17.50
21.30
24.39
26.40
27.17
26.73
25.23
22.86
19.80
16.19
12.15
7.79
3.28
-1.20
-5.50
-9.47
-13.07
-16.33
-19.37
-22.49
-26.10
-30.53
-35.75
-41.04
-44.99
-45.83
-42.07
-33.22
-20.15
-4.82
10.34
23.31
33.12
39.92
44.52
47.88
50.56
52.66
54.04
54.67
54.90
55.46
57.37
61.69
69.29
80.62
95.54
113.29
132.65
152.18
170.60
187.02
201.18
213.51
225.13
237.62
252.53
270.79
291.89
313.66
332.42
344.08
345.35
335.06
314.37
286.29
254.38
221.61
189.83
159.91
132.31
107.40
85.49
66.38
49.03
31.70
12.49
-9.90
-35.66
-63.87
-93.08
-122.13
-150.56
-178.81
-207.70
-237.86
-269.08
-300.16
-329.26
-354.61
-375.19
-391.05
-403.01
-411.98
-418.20
-421.03
-419.20
-411.62
-398.13
-379.79
-358.51
-336.37
-314.78
-294.16
-274.17
-254.17
-233.86
-213.50
-193.73
-175.30
-158.65
-143.81
-130.57
-118.81
-108.61
-100.10
-93.00
-86.19
-77.82
-65.84
-48.83
-26.73
-1.01
25.80
50.95
72.15
88.19
98.73
104.11
104.98
102.15
96.53
89.23
81.46
74.40
69.06
66.00
65.28
66.47
68.82
71.37
73.32
74.13
73.68
72.22
70.18
67.90
65.40
62.36
58.28
52.76
45.88
38.28
30.97
24.86
20.33
17.09
14.23
10.72
5.81
-0.62
-8.03
-15.34
-21.22
-24.32
-23.54
-18.38
-9.14
3.06
16.44
29.08
39.48
46.84
51.12
52.73
52.06
49.30
44.44
37.63
29.44
20.93
13.51
8.47
6.51
7.50
10.58
14.51
18.19
21.01
22.96
24.37
25.57
26.50
26.72
25.60
22.66
17.91
11.93
5.69
0.05
-4.57
-8.41
-12.22
-16.92
-23.11
-30.82
-39.44
-47.97
-55.34
-60.57
-62.79
-61.35
-55.76
-45.99
-32.56
-16.71
-0.13
15.40
28.48
38.37
44.99
48.70
49.96
49.16
46.56
42.45
37.21
31.46
25.92
21.31
18.13
16.59
16.60
17.85
19.99
22.67
25.55
28.27
30.34
31.23
30.52
28.06
24.05
19.04
13.73
8.77
4.58
1.20
-1.61
-4.27
-7.17
-10.67
-14.99
-20.31
-26.56
-33.31
-39.62
-44.06
-45.09
-41.58
-33.35
-21.38
-7.58
5.82
16.96
24.80
29.21
30.68
29.85
27.27
23.31
18.26
12.55
6.81
1.80
-1.76
-3.43
-3.25
-1.65
0.66
2.96
4.77
5.95
6.65
7.11
7.35
7.18
6.25
4.34
1.53
-1.77
-4.97
-7.68
-9.84
-11.78
-14.04
-17.07
-21.12
-26.10
-31.58
-36.76
-40.56
-41.74
-39.19
-32.43
-21.80
-8.56
5.39
18.13
28.09
34.54
37.55
37.79
36.12
33.23
29.45
24.77
19.04
12.35
5.20
-1.43
-6.38
-8.80
-8.43
-5.76
-1.90
1.85
4.48
5.46
4.92
3.32
1.20
-1.03
-3.30
-5.71
-8.42
-11.46
-14.78
-18.28
-22.06
-26.32
-31.29
-36.75
-41.91
-45.41
-45.78
-42.05
-34.13
-22.96
-10.15
2.53
13.62
22.17
27.76
30.33
30.09
27.50
23.23
18.11
12.95
8.33
4.51
1.48
-0.84
-2.41
-3.02
-2.38
-0.38
2.69
6.13
8.93
10.12
9.13
5.93
1.11
-4.52
-10.18
-15.47
-20.42
-25.49
-31.26
-38.21
-46.40
-55.25
-63.47
-69.22
-70.63
-66.39
-56.29
-41.45
-23.95
-6.27
9.52
22.18
31.39
37.36
40.44
40.79
38.49
33.72
27.02
19.40
12.06
6.12
2.30
0.76
1.18
2.96
5.43
8.05
10.41
12.23
13.22
13.07
11.57
8.62
4.44
-0.50
-5.65
-10.55
-15.02
-19.30
-24.02
-29.94
-37.52
-46.47
-55.49
-62.43
-64.79
-60.76
-49.91
-33.59
-14.54
4.14
19.93
31.55
38.94
42.73
43.53
41.61
37.06
30.18
21.83
13.40
6.39
1.86
0.04
0.31
1.61
2.99
3.92
4.39
4.69
5.11
5.59
5.77
5.12
3.24
-0.00
-4.36
-9.31
-14.27
-18.79
-22.74
-26.49
-30.69
-36.12
-43.15
-51.38
-59.34
-64.85
-65.63
-60.18
-48.43
-31.86
-12.91
5.87
22.62
36.42
47.08
54.57
58.72
59.21
55.92
49.39
40.95
32.44
25.65
21.72
20.90
22.64
25.90
29.61
32.91
35.36
36.87
37.58
37.67
37.17
35.90
33.56
29.90
24.95
19.10
13.05
7.56
3.06
-0.56
-3.89
-7.81
-13.11
-20.16
-28.66
-37.63
-45.48
-50.41
-50.80
-45.74
-35.32
-20.63
-3.52
13.93
29.89
43.08
52.83
58.89
61.25
60.06
55.70
48.92
40.87
32.92
26.41
22.28
20.89
21.91
24.55
27.83
30.95
33.45
35.25
36.51
37.37
37.77
37.37
35.73
32.53
27.85
22.15
16.18
10.58
5.61
1.05
-3.67
-9.09
-15.45
-22.64
-30.37
-38.26
-45.92
-52.77
-57.83
-59.78
-57.26
-49.51
-36.77
-20.44
-2.63
14.54
29.48
41.35
49.87
54.91
56.36
54.23
48.93
41.54
33.69
27.02
22.73
21.12
21.67
23.46
25.59
27.55
29.26
30.81
32.17
33.02
32.81
30.99
27.33
22.07
15.86
9.58
3.98
-0.58
-4.22
-7.44
-10.94
-15.29
-20.85
-27.64
-35.29
-42.95
-49.26
-52.50
-51.00
-43.76
-30.92
-13.94
4.83
22.78
37.83
48.80
55.41
57.98
56.99
52.99
46.62
38.76
30.56
23.29
17.97
15.14
14.69
15.93
17.96
19.95
21.41
22.30
22.80
23.10
23.14
22.56
20.87
17.80
13.43
8.25
2.96
-1.90
-6.13
-10.03
-14.14
-19.10
-25.30
-32.70
-40.68
-48.01
-53.00
-53.94
-49.64
-39.84
-25.42
-8.18
9.62
25.93
39.21
48.62
53.83
54.94
52.32
46.69
39.16
31.03
23.68
18.10
14.76
13.52
13.88
15.25
17.15
19.33
21.67
24.00
25.88
26.60
25.38
21.69
15.51
7.50
-1.15
-9.08
-15.27
-19.43
-22.11
-24.47
-27.93
-33.59
-41.80
-51.94
-62.35
-70.71
-74.64
-72.55
-64.12
-50.53
-33.96
-16.81
-0.95
12.64
23.73
32.33
38.17
40.75
39.62
34.91
27.72
19.87
13.31
9.37
8.37
9.57
11.67
13.49
14.51
14.93
15.40
16.45
17.97
19.18
18.89
16.12
10.67
3.27
-4.74
-11.92
-17.38
-21.06
-23.61
-25.99
-29.04
-33.26
-38.73
-45.21
-52.11
-58.39
-62.62
-63.18
-58.71
-48.73
-33.87
-15.88
2.96
20.43
35.03
46.03
53.34
57.10
57.48
54.65
49.04
41.53
33.43
26.22
21.13
18.79
19.06
21.20
24.27
27.50
30.45
33.00
35.04
36.28
36.26
34.48
30.77
25.53
19.51
13.68
8.71
4.72
1.29
-2.23
-6.37
-11.26
-16.53
-21.66
-26.15
-29.88
-33.09
-36.33
-40.23
-45.21
-51.23
-57.62
-63.02
-65.77
-64.28
-57.69
-46.23
-31.26
-14.80
1.03
14.66
25.20
32.46
36.60
37.87
36.60
33.13
28.07
22.28
16.80
12.62
10.49
10.67
12.89
16.41
20.24
23.52
25.65
26.53
26.40
25.68
24.67
23.43
21.83
19.66
16.82
13.41
9.74
6.12
2.76
-0.41
-3.69
-7.38
-11.68
-16.43
-21.24
-25.54
-28.94
-31.32
-32.95
-34.38
-36.30
-39.45
-44.31
-50.92
-58.59
-65.83
-70.52
-70.56
-64.64
-52.85
-36.83
-19.31
-3.14
9.56
17.90
22.12
23.09
21.69
18.50
13.85
8.04
1.64
-4.46
-9.29
-12.09
-12.63
-11.28
-8.78
-5.90
-3.21
-0.85
1.30
3.42
5.53
7.45
8.84
9.41
8.99
7.59
5.44
2.82
0.03
-2.74
-5.52
-8.50
-11.94
-15.97
-20.46
-24.87
-28.47
-30.58
-30.92
-29.73
-27.80
-26.13
-25.65
-26.91
-29.88
-33.88
-37.74
-39.94
-39.05
-34.17
-25.24
-13.16
0.46
13.71
25.07
33.66
39.40
42.69
44.03
43.75
41.99
38.86
34.63
29.95
25.64
22.50
21.04
21.32
22.93
25.23
27.61
29.65
31.21
32.37
33.16
33.56
33.34
32.25
30.15
27.15
23.62
19.97
16.51
13.28
10.10
6.67
2.82
-1.40
-5.66
-9.57
-12.83
-15.38
-17.48
-19.62
-22.35
-26.07
-30.80
-36.04
-40.66
-43.21
-42.32
-37.26
-28.27
-16.59
-4.00
7.78
17.59
25.01
30.14
33.20
34.26
33.22
30.02
24.95
18.72
12.39
7.04
3.48
2.05
2.52
4.29
6.51
8.39
9.43
9.60
9.16
8.58
8.27
8.26
8.23
7.73
6.36
4.07
1.15
-1.91
-4.64
-6.86
-8.63
-10.25
-12.07
-14.34
-17.23
-20.78
-24.95
-29.59
-34.22
-37.93
-39.48
-37.64
-31.63
-21.57
-8.56
5.67
19.29
30.85
39.64
45.56
48.74
49.39
47.70
43.95
38.71
32.91
27.55
23.40
20.61
18.67
16.65
13.63
9.14
3.46
-2.54
-7.76
-11.41
-13.27
-13.81
-13.82
-14.11
-15.16
-16.99
-19.34
-21.81
-24.13
-26.17
-27.94
-29.52
-31.10
-32.88
-35.15
-38.32
-42.69
-48.23
-54.34
-59.74
-62.73
-61.72
-55.81
-45.29
-31.61
-16.92
-3.34
7.66
15.46
20.11
21.98
21.38
18.51
13.65
7.39
0.68
-5.41
-9.92
-12.33
-12.66
-11.37
-9.07
-6.39
-3.71
-1.23
0.99
2.91
4.45
5.40
5.50
4.55
2.46
-0.60
-4.26
-7.98
-11.26
-13.79
-15.57
-17.03
-18.79
-21.62
-26.04
-32.06
-39.05
-45.68
-50.28
-51.31
-47.90
-40.17
-29.22
-16.67
-4.17
7.09
16.43
23.60
28.44
30.66
30.00
26.38
20.23
12.52
4.60
-2.22
-6.98
-9.35
-9.58
-8.28
-6.14
-3.68
-1.15
1.36
3.84
6.15
8.03
9.11
9.11
7.95
5.81
3.13
0.43
-1.81
-3.40
-4.46
-5.37
-6.66
-8.80
-12.03
-16.32
-21.26
-26.15
-29.96
-31.57
-30.02
-24.76
-15.96
-4.50
8.21
20.63
31.38
39.57
44.76
46.92
46.21
42.92
37.43
30.39
22.66
15.26
9.15
4.95
2.83
2.55
3.54
5.21
7.09
8.89
10.45
11.58
12.00
11.40
9.55
6.49
2.50
-1.84
-5.96
-9.43
-12.13
-14.31
-16.44
-19.05
-22.51
-26.89
-31.92
-36.92
-40.90
-42.71
-41.29
-36.02
-26.99
-15.05
-1.68
11.42
22.79
31.49
37.15
39.82
39.78
37.31
32.80
26.80
20.05
13.47
7.93
4.01
1.89
1.36
1.99
3.28
4.81
6.16
6.93
6.67
5.01
1.76
-2.89
-8.41
-14.07
-19.16
-23.23
-26.31
-28.80
-31.37
-34.75
-39.42
-45.26
-51.48
-56.60
-58.93
-57.05
-50.50
-39.89
-26.78
-13.10
-0.56
9.79
17.53
22.67
25.21
25.09
22.26
16.97
9.90
2.21
-4.81
-10.06
-12.94
-13.48
-12.18
-9.85
-7.27
-5.05
-3.59
-3.03
-3.34
-4.41
-6.05
-8.09
-10.40
-12.93
-15.77
-19.09
-23.12
-28.14
-34.31
-41.48
-48.99
-55.55
-59.39
-58.72
-52.36
-40.28
-23.79
-5.24
12.72
27.78
38.60
44.89
47.19
46.40
43.39
38.82
33.19
26.97
20.72
15.14
10.99
8.89
9.03
11.04
14.04
16.84
18.35
17.96
15.65
12.01
7.81
3.67
-0.18
-3.98
-8.13
-13.03
-18.80
-25.37
-32.53
-40.01
-47.36
-53.75
-57.89
-58.31
-53.79
-43.95
-29.60
-12.57
4.85
20.47
32.79
41.11
45.39
46.01
43.56
38.72
32.37
25.45
18.94
13.68
10.24
8.86
9.40
11.45
14.39
17.52
20.22
22.04
22.72
22.21
20.58
18.04
14.82
11.21
7.51
3.95
0.58
-2.76
-6.48
-11.13
-17.02
-23.93
-30.91
-36.32
-38.29
-35.29
-26.81
-13.46
3.16
20.95
37.85
52.16
62.65
68.54
69.52
65.77
58.19
48.28
37.90
28.80
22.22
18.60
17.64
18.61
20.62
22.92
24.96
26.39
27.06
26.91
25.94
24.14
21.52
18.00
13.54
8.21
2.25
-3.84
-9.50
-14.23
-17.76
-20.23
-22.16
-24.34
-27.60
-32.43
-38.70
-45.41
-50.77
-52.67
-49.42
-40.39
-26.40
-9.45
7.96
23.69
36.41
45.77
51.92
55.04
55.11
52.00
45.85
37.52
28.55
20.77
15.76
14.25
15.92
19.64
23.95
27.62
30.00
30.99
30.92
30.17
28.98
27.39
25.29
22.58
19.25
15.43
11.31
7.17
3.27
-0.18
-3.08
-5.46
-7.52
-9.61
-12.13
-15.44
-19.75
-24.92
-30.46
-35.41
-38.48
-38.33
-33.99
-25.15
-12.44
2.74
18.49
32.90
44.45
52.18
55.70
55.11
50.91
43.91
35.19
26.02
17.57
10.73
6.02
3.50
2.88
3.71
5.50
7.80
10.22
12.42
14.07
14.92
14.75
13.45
11.00
7.51
3.20
-1.60
-6.52
-11.26
-15.63
-19.69
-23.57
-27.43
-31.34
-35.23
-38.99
-42.61
-46.27
-50.29
-54.85
-59.62
-63.56
-65.13
-62.79
-55.76
-44.42
-30.31
-15.56
-2.12
8.81
16.98
22.64
26.07
27.26
25.98
22.08
15.94
8.62
1.58
-3.74
-6.44
-6.38
-4.17
-0.81
2.73
5.78
8.09
9.73
10.83
11.44
11.37
10.32
8.01
4.36
-0.42
-5.88
-11.51
-16.86
-21.67
-25.94
-29.76
-33.28
-36.61
-39.82
-43.00
-46.29
-49.87
-53.72
-57.39
-59.90
-59.93
-56.26
-48.31
-36.41
-21.85
-6.38
8.27
20.81
30.52
37.08
40.40
40.50
37.58
32.19
25.23
17.84
11.16
6.04
2.94
1.83
2.37
4.03
6.25
8.54
10.61
12.30
13.52
14.20
14.17
13.25
11.36
8.61
5.37
2.19
-0.39
-2.02
-2.69
-2.72
-2.60
-2.96
-4.36
-7.14
-11.32
-16.35
-21.09
-23.94
-23.34
-18.31
-8.92
3.65
17.53
30.79
42.01
50.54
56.34
59.53
60.15
58.13
53.55
46.96
39.44
32.36
26.95
23.86
23.12
24.16
26.24
28.72
31.23
33.62
35.84
37.74
39.05
39.40
38.36
35.70
31.41
25.85
19.62
13.48
8.07
3.73
0.31
-2.68
-5.90
-9.93
-15.03
-20.99
-27.10
-32.19
-34.86
-33.89
-28.62
-19.16
-6.46
7.89
22.15
34.68
44.30
50.35
52.68
51.50
47.39
41.19
33.92
26.61
20.22
15.39
12.36
11.00
10.93
11.69
12.93
14.53
16.50
18.74
20.92
22.41
22.51
20.75
17.09
12.04
6.41
1.02
-3.59
-7.30
-10.35
-13.28
-16.69
-21.19
-27.23
-34.93
-43.80
-52.59
-59.45
-62.38
-60.01
-52.14
-40.03
-25.96
-12.42
-1.27
6.67
11.58
14.03
14.43
12.84
9.04
2.98
-4.87
-13.45
-21.31
-26.93
-29.08
-27.16
-21.26
-12.26
-1.54
9.33
18.93
26.30
31.02
33.02
32.40
29.29
23.90
16.68
8.41
0.09
-7.39
-13.48
-18.27
-22.35
-26.61
-31.85
-38.54
-46.51
-54.91
-62.28
-66.82
-66.92
-61.68
-51.36
-37.42
-22.03
-7.46
4.62
13.46
19.13
22.07
22.79
21.53
18.43
13.74
8.02
2.17
-2.78
-5.94
-6.91
-5.86
-3.50
-0.76
1.58
3.18
4.15
4.99
6.10
7.51
8.75
8.98
7.46
3.87
-1.48
-7.74
-13.83
-18.99
-22.97
-26.10
-29.03
-32.41
-36.65
-41.77
-47.35
-52.64
-56.61
-58.06
-55.86
-49.41
-38.86
-25.24
-10.27
4.09
16.19
25.06
30.53
32.88
32.60
30.12
25.83
20.21
14.00
8.21
3.85
1.71
1.96
4.10
7.17
10.09
12.10
13.02
13.17
13.10
13.23
13.57
13.72
13.06
11.10
7.73
3.24
-1.78
-6.72
-11.17
-14.95
-18.13
-20.92
-23.57
-26.33
-29.51
-33.37
-37.97
-42.89
-47.07
-48.99
-47.07
-40.43
-29.27
-15.00
0.27
14.42
25.94
34.22
39.32
41.56
41.10
38.05
32.57
25.28
17.32
10.11
4.87
2.26
2.11
3.66
5.88
7.93
9.38
10.28
10.85
11.28
11.51
11.23
10.03
7.61
3.93
-0.73
-5.84
-10.84
-15.27
-18.93
-21.91
-24.52
-27.19
-30.39
-34.48
-39.55
-45.18
-50.28
-53.18
-52.10
-45.74
-34.00
-18.08
-0.22
17.09
31.84
42.93
50.15
53.59
53.41
49.64
42.53
32.84
21.96
11.60
3.28
-2.12
-4.61
-4.86
-3.84
-2.37
-0.89
0.48
1.83
3.14
4.20
4.54
3.64
1.14
-2.97
-8.17
-13.68
-18.67
-22.66
-25.69
-28.29
-31.21
-35.10
-40.31
-46.71
-53.75
-60.32
-65.00
-66.15
-62.46
-53.36
-39.43
-22.33
-4.40
12.03
25.26
34.44
39.52
40.97
39.36
35.30
29.48
22.69
15.83
9.81
5.30
2.63
1.70
2.07
3.20
4.60
6.01
7.33
8.55
9.54
10.02
9.62
8.03
5.22
1.43
-2.90
-7.31
-11.56
-15.60
-19.57
-23.71
-28.31
-33.67
-39.92
-46.88
-53.70
-58.82
-60.29
-56.36
-46.35
-31.05
-12.64
5.98
22.10
34.00
41.24
44.32
44.18
41.63
37.19
31.21
24.16
16.81
10.18
5.24
2.57
2.14
3.35
5.35
7.35
8.87
9.78
10.15
9.92
8.84
6.51
2.68
-2.59
-8.83
-15.29
-21.26
-26.29
-30.39
-33.98
-37.72
-42.34
-48.33
-55.54
-62.99
-68.80
-70.72
-66.84
-56.38
-40.27
-20.83
-1.08
16.30
29.66
38.55
43.32
44.54
42.67
38.04
31.18
23.06
15.07
8.59
4.52
3.02
3.49
4.90
6.38
7.45
8.23
8.99
9.86
10.59
10.52
8.97
5.62
0.73
-4.96
-10.60
-15.56
-19.69
-23.27
-26.86
-31.03
-36.25
-42.75
-50.46
-58.70
-66.01
-70.31
-69.40
-61.86
-47.69
-28.53
-7.19
13.32
30.74
44.01
53.11
58.49
60.51
59.26
54.84
47.79
39.39
31.49
25.92
23.79
25.14
28.98
33.76
38.11
41.27
43.22
44.39
45.16
45.45
44.82
42.59
38.33
32.11
24.53
16.51
8.92
2.32
-3.13
-7.62
-11.40
-14.82
-18.30
-22.35
-27.59
-34.38
-42.31
-49.90
-54.71
-54.04
-46.13
-30.91
-10.34
12.26
33.35
50.35
62.21
69.26
72.46
72.68
70.36
65.64
58.72
50.34
41.75
34.39
29.45
27.47
28.18
30.71
33.86
36.46
37.72
37.27
35.20
31.86
27.77
23.32
18.72
13.92
8.70
2.89
-3.49
-10.11
-16.43
-21.89
-26.18
-29.35
-31.82
-34.18
-37.00
-40.75
-45.71
-51.87
-58.83
-65.63
-70.68
-72.07
-68.13
-58.06
-42.38
-22.90
-2.19
17.17
33.20
44.86
51.90
54.59
53.52
49.42
43.20
35.96
28.92
23.18
19.52
18.23
19.03
21.26
24.10
26.81
28.89
30.14
30.49
29.89
28.22
25.36
21.32
16.39
11.03
5.81
1.10
-3.11
-7.16
-11.60
-16.84
-22.99
-29.65
-36.17
-41.83
-46.21
-49.33
-51.78
-54.35
-57.85
-62.57
-68.04
-72.94
-75.37
-73.42
-65.84
-52.59
-34.92
-15.07
4.55
21.90
35.81
45.77
51.70
53.58
51.40
45.44
36.50
26.12
16.25
8.66
4.44
3.70
5.61
8.93
12.52
15.72
18.36
20.59
22.51
23.97
24.63
24.15
22.42
19.74
16.60
13.48
10.57
7.69
4.44
0.45
-4.36
-9.68
-14.91
-19.48
-23.06
-25.66
-27.65
-29.58
-32.10
-35.77
-40.73
-46.49
-51.79
-54.74
-53.42
-46.55
-34.11
-17.49
0.97
18.70
33.70
44.90
52.14
55.67
55.86
53.00
47.47
39.76
30.80
21.83
14.10
8.68
6.14
6.40
8.86
12.51
16.37
19.70
22.14
23.66
24.35
24.22
23.06
20.58
16.58
11.21
4.96
-1.47
-7.51
-12.87
-17.62
-22.15
-26.86
-31.95
-37.35
-42.77
-47.93
-52.75
-57.39
-62.17
-67.23
-72.13
-75.66
-76.08
-71.75
-61.83
-46.83
-28.62
-9.87
6.83
19.78
28.42
33.10
34.49
33.16
29.28
22.91
14.30
4.21
-6.09
-15.07
-21.49
-24.63
-24.55
-21.95
-17.77
-12.89
-7.82
-2.71
2.51
7.84
12.97
17.32
20.15
20.93
19.59
16.61
12.82
9.11
6.09
3.90
2.19
0.38
-2.06
-5.48
-10.00
-15.56
-21.88
-28.30
-33.74
-36.71
-35.70
-29.76
-18.95
-4.51
11.47
26.74
39.46
48.61
53.83
55.35
53.51
48.76
41.69
33.09
23.95
15.36
8.22
3.12
0.20
-0.80
-0.39
0.86
2.49
4.23
5.96
7.57
8.80
9.25
8.49
6.36
3.07
-0.79
-4.49
-7.52
-9.77
-11.58
-13.60
-16.50
-20.73
-26.42
-33.29
-40.53
-46.77
-50.33
-49.63
-43.73
-32.83
-18.20
-1.89
13.96
27.65
38.17
45.12
48.48
48.40
45.12
39.16
31.36
22.83
14.76
8.09
3.32
0.48
-0.76
-0.85
-0.17
1.07
2.75
4.71
6.62
7.97
8.21
7.01
4.38
0.75
-3.22
-6.91
-10.02
-12.69
-15.48
-19.17
-24.41
-31.34
-39.37
-47.07
-52.52
-53.78
-49.62
-39.90
-25.70
-8.94
8.19
23.73
36.28
45.01
49.59
50.04
46.78
40.50
32.25
23.24
14.63
7.38
2.09
-1.07
-2.23
-1.74
-0.09
2.19
4.56
6.52
7.65
7.67
6.46
4.12
0.91
-2.81
-6.74
-10.65
-14.44
-18.13
-21.91
-26.14
-31.27
-37.64
-45.06
-52.56
-58.34
-60.24
-56.49
-46.44
-30.99
-12.32
6.71
23.48
36.20
44.20
47.65
47.29
43.93
38.39
31.43
23.83
16.47
10.15
5.54
3.01
2.58
3.90
6.37
9.26
11.84
13.59
14.15
13.41
11.42
8.32
4.37
-0.20
-5.13
-10.16
-15.07
-19.73
-24.28
-29.10
-34.81
-41.86
-50.14
-58.62
-65.38
-68.04
-64.66
-54.53
-38.49
-18.79
1.75
20.55
35.85
46.90
53.55
55.95
54.36
49.23
41.39
32.20
23.34
16.37
12.33
11.35
12.79
15.55
18.54
21.05
22.89
24.27
25.33
25.98
25.76
24.02
20.32
14.77
7.98
0.98
-5.33
-10.52
-14.78
-18.78
-23.38
-29.29
-36.80
-45.53
-54.35
-61.49
-64.88
-62.75
-54.31
-40.16
-22.25
-3.31
14.05
28.00
37.86
43.79
46.26
45.64
42.06
35.75
27.37
18.27
10.20
4.78
2.95
4.62
8.71
13.67
18.06
21.05
22.59
23.17
23.40
23.61
23.60
22.84
20.74
17.03
11.94
6.14
0.50
-4.32
-8.15
-11.35
-14.65
-18.79
-24.32
-31.26
-39.10
-46.77
-52.81
-55.59
-53.79
-46.75
-34.80
-19.28
-2.18
14.41
28.78
39.87
47.28
50.94
50.97
47.58
41.22
32.81
23.71
15.60
9.97
7.76
8.96
12.73
17.69
22.47
26.13
28.37
29.43
29.78
29.79
29.53
28.72
26.98
24.04
19.93
15.05
9.99
5.34
1.42
-1.81
-4.64
-7.47
-10.58
-14.11
-18.16
-22.79
-28.02
-33.56
-38.60
-41.75
-41.38
-36.26
-26.18
-12.23
3.48
18.51
30.88
39.51
44.28
45.66
44.17
40.22
34.12
26.35
17.75
9.55
3.03
-0.85
-1.84
-0.42
2.34
5.31
7.67
9.12
9.86
10.31
10.73
11.05
10.86
9.69
7.25
3.65
-0.70
-5.15
-9.18
-12.56
-15.40
-18.14
-21.28
-25.28
-30.44
-36.71
-43.60
-50.10
-54.76
-55.97
-52.43
-43.67
-30.32
-14.01
3.09
18.82
31.61
40.64
45.73
47.09
45.06
40.13
33.02
24.78
16.70
10.03
5.61
3.68
3.89
5.49
7.68
9.90
11.80
13.34
14.48
15.11
15.01
13.82
11.23
7.20
2.00
-3.81
-9.45
-14.28
-17.99
-20.83
-23.46
-26.74
-31.41
-37.69
-45.07
-52.27
-57.46
-58.77
-54.91
-45.61
-31.80
-15.33
1.61
17.09
29.80
39.05
44.63
46.52
44.89
40.14
33.09
24.89
16.88
10.17
5.40
2.69
1.71
1.95
2.89
4.16
5.50
6.65
7.38
7.48
6.74
5.05
2.42
-1.00
-4.95
-9.20
-13.52
-17.80
-22.07
-26.46
-31.20
-36.58
-42.81
-49.80
-56.94
-62.93
-65.98
-64.33
-56.93
-43.95
-26.88
-8.15
9.65
24.51
35.34
41.95
44.70
44.08
40.63
34.90
27.69
20.04
13.10
7.86
4.80
3.85
4.43
5.76
7.16
8.30
9.17
9.95
10.69
11.13
10.79
9.15
5.94
1.33
-4.09
-9.52
-14.33
-18.21
-21.33
-24.24
-27.69
-32.40
-38.71
-46.28
-53.93
-59.76
-61.59
-57.75
-47.72
-32.50
-14.32
4.18
20.67
33.76
43.02
48.58
50.67
49.47
45.20
38.47
30.43
22.65
16.72
13.63
13.53
15.72
18.98
22.15
24.49
25.93
26.77
27.47
28.15
28.55
28.10
26.18
22.55
17.44
11.51
5.56
0.25
-4.15
-7.80
-11.08
-14.55
-18.67
-23.75
-29.79
-36.31
-42.21
-45.92
-45.73
-40.45
-29.96
-15.36
1.22
17.37
31.06
41.12
47.33
50.00
49.65
46.74
41.67
35.00
27.61
20.65
15.26
12.35
12.16
14.34
17.96
21.90
25.18
27.24
28.01
27.76
26.91
25.75
24.35
22.52
19.97
16.50
12.15
7.25
2.36
-2.00
-5.53
-8.31
-10.77
-13.56
-17.28
-22.36
-28.91
-36.57
-44.53
-51.49
-55.86
-56.12
-51.33
-41.49
-27.71
-11.82
4.07
18.10
29.06
36.37
39.95
40.02
37.04
31.65
24.75
17.45
10.80
5.69
2.60
1.64
2.54
4.86
8.05
11.51
14.74
17.24
18.69
18.87
17.83
15.77
13.06
10.06
7.04
4.07
1.01
-2.28
-5.88
-9.65
-13.27
-16.41
-18.94
-21.03
-23.11
-25.71
-29.23
-33.66
-38.52
-42.79
-45.10
-44.15
-39.06
-29.76
-17.11
-2.70
11.58
24.05
33.66
39.97
43.00
42.98
40.22
35.08
28.16
20.40
12.91
6.86
3.04
1.75
2.69
5.14
8.27
11.38
14.08
16.25
17.99
19.36
20.30
20.59
20.00
18.33
15.67
12.27
8.58
5.01
1.83
-0.91
-3.40
-5.88
-8.62
-11.79
-15.42
-19.45
-23.78
-28.19
-32.33
-35.55
-36.99
-35.74
-31.19
-23.37
-13.07
-1.72
9.07
17.86
23.80
26.59
26.48
23.92
19.51
13.79
7.31
0.69
-5.48
-10.60
-14.26
-16.22
-16.53
-15.53
-13.76
-11.75
-9.87
-8.33
-7.15
-6.39
-6.19
-6.79
-8.32
-10.67
-13.43
-15.99
-17.81
-18.68
-18.87
-19.03
-19.91
-22.09
-25.76
-30.62
-35.83
-40.24
-42.46
-41.29
-36.07
-26.93
-14.89
-1.60
11.12
21.69
29.20
33.33
34.23
32.30
28.00
21.94
14.86
7.67
1.27
-3.70
-6.98
-8.68
-9.15
-8.77
-7.78
-6.34
-4.50
-2.42
-0.37
1.26
2.00
1.46
-0.52
-3.73
-7.68
-11.70
-15.16
-17.79
-19.74
-21.67
-24.36
-28.44
-33.91
-39.98
-45.10
-47.39
-45.33
-38.35
-27.09
-13.32
0.77
13.12
22.43
28.22
30.69
30.24
27.34
22.44
16.10
9.13
2.50
-2.87
-6.33
-7.72
-7.38
-5.88
-3.90
-1.97
-0.45
0.48
0.64
-0.10
-1.81
-4.46
-7.86
-11.62
-15.35
-18.67
-21.40
-23.62
-25.71
-28.22
-31.60
-35.89
-40.48
-44.05
-44.99
-41.84
-34.00
-21.98
-7.34
7.75
21.21
31.50
37.89
40.37
39.41
35.71
30.03
23.14
15.76
8.58
2.25
-2.74
-6.03
-7.49
-7.24
-5.71
-3.53
-1.48
-0.26
-0.33
-1.79
-4.35
-7.56
-10.94
-14.23
-17.37
-20.50
-23.79
-27.45
-31.68
-36.65
-42.28
-48.05
-52.84
-55.08
-53.29
-46.61
-35.31
-20.80
-5.22
9.29
21.09
29.38
34.03
35.36
33.89
30.13
24.65
18.20
11.67
6.00
2.04
0.30
0.84
3.29
6.93
10.92
14.49
17.07
18.29
17.98
16.15
12.98
8.86
4.31
-0.12
-4.07
-7.48
-10.59
-13.96
-18.17
-23.68
-30.45
-37.67
-43.77
-46.77
-44.86
-37.16
-24.16
-7.68
9.73
25.55
38.08
46.63
51.25
52.32
50.17
45.06
37.49
28.34
19.04
11.18
6.07
4.24
5.33
8.22
11.58
14.37
16.14
17.00
17.27
17.12
16.33
14.37
10.67
5.11
-1.85
-9.19
-15.81
-21.04
-24.97
-28.52
-32.95
-39.27
-47.44
-56.20
-63.28
-66.23
-63.28
-54.12
-39.97
-23.11
-6.04
9.22
21.59
30.74
36.76
39.74
39.70
36.69
31.11
23.90
16.44
10.24
6.45
5.51
7.06
10.19
13.81
17.17
20.05
22.64
25.30
28.07
30.57
32.06
31.87
29.77
26.18
21.97
18.04
14.92
12.55
10.37
7.73
4.04
-0.92
-7.10
-14.11
-21.23
-27.31
-30.94
-30.71
-25.73
-16.09
-3.01
11.56
25.49
37.09
45.47
50.38
51.95
50.47
46.21
39.69
31.76
23.67
16.78
12.28
10.78
12.15
15.65
20.08
24.27
27.32
28.80
28.78
27.66
25.91
23.77
21.27
18.23
14.52
10.20
5.54
0.94
-3.30
-7.02
-10.31
-13.40
-16.59
-20.18
-24.38
-29.32
-34.77
-39.96
-43.63
-44.21
-40.42
-31.82
-19.11
-3.97
11.39
25.03
35.68
42.91
46.84
47.82
46.08
41.77
35.21
27.05
18.36
10.50
4.71
1.73
1.62
3.72
6.95
10.27
12.95
14.82
16.10
17.03
17.58
17.37
15.82
12.53
7.67
1.92
-3.68
-8.26
-11.50
-13.70
-15.61
-18.05
-21.58
-26.32
-31.93
-37.74
-42.70
-45.65
-45.45
-41.28
-33.00
-21.29
-7.52
6.57
19.41
29.88
37.37
41.69
42.84
40.86
35.96
28.66
19.89
10.91
3.07
-2.58
-5.51
-5.85
-4.24
-1.54
1.46
4.22
6.49
8.12
8.93
8.62
6.80
3.18
-2.18
-8.79
-15.87
-22.58
-28.30
-32.95
-36.94
-41.08
-46.23
-52.90
-60.96
-69.40
-76.50
-80.24
-78.95
-71.95
-59.87
-44.43
-27.93
-12.46
0.56
10.57
17.59
21.81
23.33
22.24
18.75
13.51
7.53
1.98
-2.14
-4.30
-4.56
-3.31
-1.11
1.57
4.48
7.34
9.82
11.39
11.46
9.61
5.88
0.78
-4.79
-9.94
-14.11
-17.29
-19.99
-22.98
-27.03
-32.64
-39.87
-48.14
-56.14
-62.01
-63.70
-59.67
-49.46
-33.98
-15.29
3.94
21.31
35.17
44.81
50.25
51.83
50.03
45.40
38.68
30.90
23.23
16.74
12.16
9.69
9.13
9.99
11.80
14.24
17.06
20.04
22.76
24.60
24.83
22.92
18.73
12.76
5.95
-0.49
-5.68
-9.31
-11.83
-14.30
-17.96
-23.65
-31.35
-39.98
-47.51
-51.65
-50.56
-43.54
-31.37
-15.94
0.39
15.52
28.16
37.80
44.37
47.86
48.16
45.22
39.40
31.70
23.65
16.90
12.63
11.17
11.97
13.94
15.98
17.46
18.37
19.14
20.18
21.50
22.59
22.55
20.61
16.48
10.55
3.70
-2.96
-8.58
-12.82
-15.86
-18.34
-21.10
-24.88
-30.14
-36.70
-43.65
-49.36
-51.93
-49.78
-42.23
-29.83
-14.24
2.37
17.97
31.16
41.26
48.04
51.35
51.06
47.17
40.15
31.14
21.79
13.85
8.61
6.55
7.31
9.98
13.53
17.15
20.40
23.12
25.25
26.63
27.09
26.43
24.59
21.67
17.95
13.75
9.37
5.08
1.09
-2.46
-5.61
-8.53
-11.57
-15.07
-19.38
-24.60
-30.52
-36.50
-41.43
-43.99
-42.85
-37.19
-27.06
-13.53
1.53
16.01
28.10
36.75
41.74
43.34
42.05
38.32
32.57
25.35
17.46
9.89
3.69
-0.40
-2.07
-1.58
0.48
3.35
6.38
9.11
11.27
12.74
13.40
13.12
11.82
9.48
6.28
2.49
-1.54
-5.51
-9.24
-12.72
-16.04
-19.35
-22.81
-26.67
-31.20
-36.61
-42.72
-48.72
-53.14
-54.12
-50.17
-40.83
-27.01
-10.79
5.34
19.28
29.89
36.91
40.63
41.31
39.03
33.89
26.34
17.37
8.35
0.65
-4.83
-7.82
-8.63
-7.89
-6.23
-4.15
-2.01
-0.14
1.18
1.64
1.03
-0.71
-3.52
-7.13
-11.13
-15.09
-18.58
-21.35
-23.49
-25.38
-27.75
-31.42
-36.96
-44.29
-52.36
-59.33
-63.03
-61.69
-54.68
-42.81
-28.13
-13.27
-0.59
8.33
12.97
13.57
10.82
5.45
-1.79
-10.13
-18.72
-26.68
-33.26
-37.90
-40.41
-40.90
-39.76
-37.40
-34.22
-30.54
-26.57
-22.40
-18.07
-13.50
-8.69
-3.75
0.97
4.93
7.52
8.33
7.31
4.74
0.96
-3.80
-9.50
-16.02
-22.74
-28.26
-30.68
-28.18
-19.95
-6.62
9.82
26.68
41.46
52.64
59.76
63.20
63.61
61.53
57.34
51.27
43.75
35.45
27.28
20.18
14.84
11.57
10.17
10.05
10.47
10.74
10.46
9.48
7.90
5.84
3.40
0.64
-2.34
-5.39
-8.34
-11.14
-13.98
-17.36
-21.95
-28.16
-35.73
-43.49
-49.35
-50.93
-46.32
-34.86
-17.49
3.47
25.01
44.28
59.31
69.25
74.24
74.96
72.34
67.30
60.70
53.32
45.95
39.25
33.71
29.58
26.86
25.34
24.69
24.56
24.60
24.49
23.85
22.35
19.74
16.01
11.39
6.27
1.08
-3.95
-8.84
-13.80
-19.15
-25.20
-32.11
-39.74
-47.48
-54.15
-58.12
-57.71
-51.83
-40.53
-25.22
-8.25
7.70
20.46
28.80
32.55
32.23
28.67
22.73
15.23
7.01
-1.01
-7.91
-12.93
-15.63
-16.03
-14.49
-11.63
-8.05
-4.20
-0.44
2.93
5.54
6.89
6.63
4.64
1.25
-2.87
-6.90
-10.21
-12.60
-14.32
-16.00
-18.38
-22.09
-27.34
-33.73
-40.14
-44.91
-46.19
-42.58
-33.62
-19.98
-3.35
14.14
30.47
44.12
54.15
60.07
61.65
58.93
52.37
43.02
32.48
22.63
15.06
10.62
9.21
9.96
11.71
13.53
15.07
16.47
18.13
20.16
22.21
23.47
23.06
20.43
15.75
9.77
3.63
-1.72
-5.89
-9.14
-12.21
-16.00
-21.16
-27.89
-35.87
-44.33
-52.07
-57.70
-59.79
-57.29
-49.92
-38.35
-24.18
-9.43
3.89
14.34
21.09
23.88
22.72
17.85
9.76
-0.62
-11.90
-22.40
-30.63
-35.70
-37.55
-36.88
-34.75
-32.04
-29.20
-26.15
-22.57
-18.32
-13.68
-9.39
-6.32
-5.07
-5.65
-7.40
-9.27
-10.31
-10.00
-8.51
-6.59
-5.21
-5.30
-7.43
-11.69
-17.47
-23.52
-28.07
-29.23
-25.60
-16.78
-3.68
11.83
27.39
41.03
51.52
58.37
61.53
60.99
56.74
48.92
38.18
25.73
13.24
2.30
-5.98
-11.25
-13.82
-14.35
-13.53
-11.82
-9.50
-6.72
-3.73
-0.98
0.90
1.32
-0.05
-3.08
-7.11
-11.26
-14.67
-16.90
-18.04
-18.62
-19.39
-21.03
-24.00
-28.33
-33.50
-38.35
-41.21
-40.26
-34.18
-22.67
-6.78
11.31
28.98
43.82
54.25
59.61
59.99
55.98
48.36
38.13
26.47
14.72
4.19
-4.06
-9.48
-12.09
-12.41
-11.18
-9.20
-7.03
-5.00
-3.24
-1.85
-0.96
-0.81
-1.58
-3.26
-5.64
-8.34
-10.95
-13.32
-15.55
-18.07
-21.42
-26.09
-32.29
-39.62
-46.92
-52.36
-53.86
-49.77
-39.49
-23.92
-5.17
14.02
31.15
44.55
53.53
58.14
58.79
56.01
50.41
42.76
34.04
25.32
17.53
11.30
6.94
4.49
3.85
4.80
7.05
10.07
13.14
15.45
16.23
15.01
11.69
6.63
0.52
-5.81
-11.64
-16.59
-20.78
-24.88
-29.85
-36.52
-45.04
-54.44
-62.64
-67.00
-65.26
-56.45
-41.37
-22.40
-2.60
15.29
29.54
39.65
45.85
48.55
47.97
44.14
37.25
27.98
17.59
7.69
-0.29
-5.44
-7.59
-7.20
-5.04
-1.95
1.39
4.40
6.67
7.80
7.59
5.98
3.13
-0.61
-4.83
-9.21
-13.59
-18.04
-22.79
-28.29
-34.92
-42.75
-51.18
-58.68
-63.06
-62.06
-54.23
-39.61
-19.86
2.19
23.40
41.32
54.53
62.70
66.19
65.58
61.56
54.88
46.49
37.55
29.33
22.86
18.77
17.17
17.73
19.86
22.95
26.41
29.67
32.15
33.19
32.29
29.28
24.43
18.46
12.31
6.73
1.98
-2.27
-6.86
-12.77
-20.81
-31.15
-43.16
-55.25
-65.11
-70.19
-68.49
-59.22
-43.19
-22.66
-0.77
19.43
35.70
46.93
53.04
54.53
52.13
46.53
38.51
29.00
19.20
10.38
3.61
-0.53
-2.07
-1.53
0.43
3.23
6.53
10.08
13.56
16.45
17.99
17.47
14.40
8.79
1.17
-7.50
-16.19
-24.02
-30.61
-36.17
-41.48
-47.63
-55.50
-65.16
-75.48
-84.14
-88.23
-85.28
-74.28
-56.17
-33.53
-9.68
12.38
30.80
44.86
54.59
60.09
61.27
57.99
50.58
40.15
28.63
18.26
10.91
7.51
7.82
10.74
14.81
18.77
21.95
24.29
26.17
27.93
29.56
30.56
30.13
27.55
22.57
15.68
7.98
0.73
-5.14
-9.37
-12.42
-15.20
-18.71
-23.66
-30.29
-38.32
-46.86
-54.44
-59.20
-59.21
-53.14
-40.74
-23.19
-2.73
17.87
36.18
50.60
60.44
65.72
66.74
63.85
57.48
48.31
37.46
26.44
16.93
10.28
7.20
7.51
10.22
13.88
17.03
18.65
18.47
16.84
14.49
12.09
9.90
7.67
4.88
1.01
-4.05
-9.90
-15.78
-20.92
-24.88
-27.68
-29.82
-31.91
-34.44
-37.72
-41.84
-46.67
-51.92
-56.84
-60.19
-60.34
-55.75
-45.58
-30.16
-11.05
9.37
28.56
44.56
56.27
63.48
66.54
66.06
62.69
57.09
50.04
42.44
35.37
29.89
26.79
26.40
28.43
32.07
36.23
39.91
42.43
